---ACOUSTIC CALIBRATION---
Filename: C:\Data\AZH DATA\AZH52\RightPrimary.calib
Date: 8/27/2019 11:39:31 AM
Format: 4
Probe Tube Correction File: C:\Data\Probe Tube Calibrations\50_ProbeTube.calib
Experiment VIs: 850
EPL_CFTS.exe V12.0.1 (2012)
DAQmx V9.6

Attenuation (dB): 40.000000
Min Freq (Hz): 50.000000
Max Freq (Hz): 49950.000000
Freq Step (Hz): 50.000000
Sample Rate (Hz): 100000.000000
[Smoothing]
Method=None
MA.Iterations=0
MA.Length=0
Loess.Length=0
Loess.Type=Linear
Loess.Robust=FALSE


Freq(Hz)	Mag(dB)	Phase(deg)	Unsmoothed(dB)

50.00000	92.08546	473.28810	92.08546
100.00000	84.52912	570.47549	84.52912
150.00000	82.21852	492.52754	82.21852
200.00000	85.14268	443.55282	85.14268
250.00000	93.91165	443.80551	93.91165
300.00000	94.43361	354.49451	94.43361
350.00000	90.85091	392.27021	90.85091
400.00000	88.90952	375.00091	88.90952
450.00000	90.66321	366.93084	90.66321
500.00000	93.19879	373.31477	93.19879
550.00000	95.12551	370.78043	95.12551
600.00000	97.32507	360.26277	97.32507
650.00000	100.85613	350.88958	100.85613
700.00000	102.86833	327.63437	102.86833
750.00000	104.56370	312.15376	104.56370
800.00000	105.19039	287.27001	105.19039
850.00000	104.50939	273.35919	104.50939
900.00000	102.37151	252.96797	102.37151
950.00000	100.85393	255.42981	100.85393
1000.00000	99.39515	255.95176	99.39515
1050.00000	97.30104	273.31304	97.30104
1100.00000	99.36743	293.81638	99.36743
1150.00000	102.11426	298.91160	102.11426
1200.00000	104.96969	297.61670	104.96969
1250.00000	106.61862	290.15795	106.61862
1300.00000	108.45796	284.37539	108.45796
1350.00000	109.61504	274.63494	109.61504
1400.00000	110.70534	268.51666	110.70534
1450.00000	111.63469	260.29511	111.63469
1500.00000	112.65728	251.40435	112.65728
1550.00000	113.50614	244.26403	113.50614
1600.00000	114.85325	234.63769	114.85325
1650.00000	115.89967	217.63147	115.89967
1700.00000	114.62525	207.91882	114.62525
1750.00000	114.41312	201.82393	114.41312
1800.00000	114.10445	197.46031	114.10445
1850.00000	114.37282	196.81646	114.37282
1900.00000	115.57643	191.38924	115.57643
1950.00000	116.17877	177.54136	116.17877
2000.00000	115.12128	165.45946	115.12128
2050.00000	113.83037	170.89628	113.83037
2100.00000	115.65935	170.72471	115.65935
2150.00000	116.27166	158.04084	116.27166
2200.00000	116.13398	147.73838	116.13398
2250.00000	115.48924	140.57138	115.48924
2300.00000	115.55921	135.22002	115.55921
2350.00000	115.20516	128.63428	115.20516
2400.00000	114.88988	123.37554	114.88988
2450.00000	114.54746	116.74003	114.54746
2500.00000	114.10897	112.05695	114.10897
2550.00000	113.64319	106.63124	113.64319
2600.00000	113.04857	102.70350	113.04857
2650.00000	112.51991	99.03579	112.51991
2700.00000	112.04437	95.48137	112.04437
2750.00000	111.32977	92.25950	111.32977
2800.00000	110.61433	89.89334	110.61433
2850.00000	109.89118	88.94709	109.89118
2900.00000	109.15727	87.63942	109.15727
2950.00000	108.32908	87.87842	108.32908
3000.00000	107.49566	89.09126	107.49566
3050.00000	106.45295	92.21887	106.45295
3100.00000	105.72221	98.68235	105.72221
3150.00000	105.05241	106.59285	105.05241
3200.00000	105.04993	118.16374	105.04993
3250.00000	105.73471	128.95711	105.73471
3300.00000	107.01567	137.96206	107.01567
3350.00000	108.52815	144.80609	108.52815
3400.00000	110.52826	149.74530	110.52826
3450.00000	112.66926	150.13196	112.66926
3500.00000	114.76738	146.74911	114.76738
3550.00000	116.40079	140.58956	116.40079
3600.00000	117.85883	134.61295	117.85883
3650.00000	119.08322	127.28337	119.08322
3700.00000	120.17894	119.90396	120.17894
3750.00000	121.19150	111.90414	121.19150
3800.00000	121.97656	103.19496	121.97656
3850.00000	122.54074	94.95009	122.54074
3900.00000	123.03410	87.79939	123.03410
3950.00000	123.63373	80.41257	123.63373
4000.00000	124.16481	72.91691	124.16481
4050.00000	124.68610	65.41583	124.68610
4100.00000	125.23100	57.64743	125.23100
4150.00000	125.93120	49.09528	125.93120
4200.00000	126.30415	39.13115	126.30415
4250.00000	126.61275	28.71128	126.61275
4300.00000	126.72590	17.91899	126.72590
4350.00000	126.60479	 7.22006	126.60479
4400.00000	126.32698	-2.67264	126.32698
4450.00000	125.95056	-11.81578	125.95056
4500.00000	125.53572	-20.21972	125.53572
4550.00000	125.09235	-28.39402	125.09235
4600.00000	124.60048	-36.18990	124.60048
4650.00000	124.11923	-43.68601	124.11923
4700.00000	123.55835	-51.54666	123.55835
4750.00000	122.84276	-59.41944	122.84276
4800.00000	121.93856	-66.89037	121.93856
4850.00000	120.81004	-73.01013	120.81004
4900.00000	119.59558	-77.06291	119.59558
4950.00000	118.42251	-79.06408	118.42251
5000.00000	117.41120	-79.52828	117.41120
5050.00000	116.50788	-79.33422	116.50788
5100.00000	115.53631	-75.78206	115.53631
5150.00000	115.71378	-71.57568	115.71378
5200.00000	115.47526	-67.27859	115.47526
5250.00000	117.14357	-65.48858	117.14357
5300.00000	117.75820	-76.07368	117.75820
5350.00000	117.29914	-83.12052	117.29914
5400.00000	116.79105	-87.05746	116.79105
5450.00000	116.43696	-89.59003	116.43696
5500.00000	116.15807	-92.06447	116.15807
5550.00000	115.93636	-94.17299	115.93636
5600.00000	115.73662	-96.47136	115.73662
5650.00000	115.58452	-98.62446	115.58452
5700.00000	115.43003	-100.97663	115.43003
5750.00000	115.31727	-103.09323	115.31727
5800.00000	115.21502	-105.22407	115.21502
5850.00000	115.16127	-107.63504	115.16127
5900.00000	115.15829	-110.00138	115.15829
5950.00000	115.15726	-112.64170	115.15726
6000.00000	115.16676	-115.62428	115.16676
6050.00000	115.12485	-118.89757	115.12485
6100.00000	115.06453	-122.25131	115.06453
6150.00000	114.97767	-125.62531	114.97767
6200.00000	114.84686	-128.93539	114.84686
6250.00000	114.74154	-132.23124	114.74154
6300.00000	114.62945	-135.42866	114.62945
6350.00000	114.47953	-138.70662	114.47953
6400.00000	114.33009	-141.83175	114.33009
6450.00000	114.20885	-145.11542	114.20885
6500.00000	114.05777	-148.25716	114.05777
6550.00000	113.90303	-151.45641	113.90303
6600.00000	113.75343	-154.56874	113.75343
6650.00000	113.60457	-157.73287	113.60457
6700.00000	113.46434	-161.12761	113.46434
6750.00000	113.31343	-164.37310	113.31343
6800.00000	113.15867	-167.61330	113.15867
6850.00000	112.98670	-170.85613	112.98670
6900.00000	112.80313	-174.10609	112.80313
6950.00000	112.63907	-177.38923	112.63907
7000.00000	112.44434	-180.79809	112.44434
7050.00000	112.22287	-184.25181	112.22287
7100.00000	112.01096	-187.63677	112.01096
7150.00000	111.78464	-190.90659	111.78464
7200.00000	111.52519	-194.36683	111.52519
7250.00000	111.22269	-197.82110	111.22269
7300.00000	110.97181	-201.10994	110.97181
7350.00000	110.63371	-204.28059	110.63371
7400.00000	110.32149	-207.51773	110.32149
7450.00000	109.97141	-210.68837	109.97141
7500.00000	109.61051	-213.61545	109.61051
7550.00000	109.19953	-216.45551	109.19953
7600.00000	108.77547	-219.14983	108.77547
7650.00000	108.34395	-221.68191	108.34395
7700.00000	107.94041	-224.12981	107.94041
7750.00000	107.46360	-226.31513	107.46360
7800.00000	107.04817	-228.35785	107.04817
7850.00000	106.61179	-230.13032	106.61179
7900.00000	106.22882	-231.59224	106.22882
7950.00000	105.85980	-233.02195	105.85980
8000.00000	105.54169	-234.26385	105.54169
8050.00000	105.25528	-235.26510	105.25528
8100.00000	105.03141	-235.51771	105.03141
8150.00000	104.69430	-235.89306	104.69430
8200.00000	104.44839	-235.71549	104.44839
8250.00000	104.20026	-235.80985	104.20026
8300.00000	103.96242	-235.76321	103.96242
8350.00000	103.70423	-235.60864	103.70423
8400.00000	103.44918	-236.07630	103.44918
8450.00000	103.09242	-236.47924	103.09242
8500.00000	102.82399	-237.32396	102.82399
8550.00000	102.63178	-238.20834	102.63178
8600.00000	102.47329	-240.28759	102.47329
8650.00000	102.35357	-241.75678	102.35357
8700.00000	102.33024	-244.27298	102.33024
8750.00000	102.30101	-244.81155	102.30101
8800.00000	102.39828	-246.47730	102.39828
8850.00000	102.46426	-247.55062	102.46426
8900.00000	102.54081	-247.77461	102.54081
8950.00000	102.59025	-248.45120	102.59025
9000.00000	102.47410	-248.57598	102.47410
9050.00000	102.42920	-249.12605	102.42920
9100.00000	102.26214	-249.54501	102.26214
9150.00000	102.11007	-250.40183	102.11007
9200.00000	101.94357	-251.95711	101.94357
9250.00000	101.75209	-253.91980	101.75209
9300.00000	101.72184	-255.76411	101.72184
9350.00000	101.71031	-258.53737	101.71031
9400.00000	101.69517	-260.60904	101.69517
9450.00000	101.87596	-262.26051	101.87596
9500.00000	102.10785	-262.77173	102.10785
9550.00000	102.39629	-263.48951	102.39629
9600.00000	102.64879	-264.99161	102.64879
9650.00000	102.69614	-266.24477	102.69614
9700.00000	102.67926	-266.92651	102.67926
9750.00000	102.68957	-269.03251	102.68957
9800.00000	102.55200	-270.47890	102.55200
9850.00000	102.46262	-272.46181	102.46262
9900.00000	102.31878	-275.28508	102.31878
9950.00000	102.32973	-278.02020	102.32973
10000.00000	102.40742	-281.41730	102.40742
10050.00000	102.46230	-283.96196	102.46230
10100.00000	102.52946	-286.17954	102.52946
10150.00000	102.50639	-288.78659	102.50639
10200.00000	102.51500	-290.80575	102.51500
10250.00000	102.40541	-293.25241	102.40541
10300.00000	102.38754	-295.65691	102.38754
10350.00000	102.19581	-298.19629	102.19581
10400.00000	101.99271	-301.45371	101.99271
10450.00000	101.94374	-304.93234	101.94374
10500.00000	101.92574	-308.31664	101.92574
10550.00000	101.86340	-311.73386	101.86340
10600.00000	101.80767	-314.65009	101.80767
10650.00000	101.71782	-316.81564	101.71782
10700.00000	101.63919	-320.06127	101.63919
10750.00000	101.52629	-322.56251	101.52629
10800.00000	101.29188	-324.80809	101.29188
10850.00000	101.01936	-328.11499	101.01936
10900.00000	100.78547	-330.70926	100.78547
10950.00000	100.53257	-333.15828	100.53257
11000.00000	100.30976	-336.06413	100.30976
11050.00000	99.92002	-338.58934	99.92002
11100.00000	99.67500	-341.47993	99.67500
11150.00000	99.31874	-343.46240	99.31874
11200.00000	99.09041	-345.30230	99.09041
11250.00000	98.70917	-347.51516	98.70917
11300.00000	98.29793	-349.55838	98.29793
11350.00000	97.92988	-350.99487	97.92988
11400.00000	97.47672	-352.73828	97.47672
11450.00000	97.14448	-354.72963	97.14448
11500.00000	96.93703	-355.46522	96.93703
11550.00000	96.53491	-356.38187	96.53491
11600.00000	96.33984	-357.83401	96.33984
11650.00000	96.02047	-357.68669	96.02047
11700.00000	95.77580	-358.31292	95.77580
11750.00000	95.58167	-358.97376	95.58167
11800.00000	95.34201	-360.30562	95.34201
11850.00000	95.20834	-360.05168	95.20834
11900.00000	94.88246	-361.03473	94.88246
11950.00000	94.77172	-361.17278	94.77172
12000.00000	94.55146	-361.24010	94.55146
12050.00000	94.28867	-361.32587	94.28867
12100.00000	94.14929	-362.49501	94.14929
12150.00000	93.93581	-363.60830	93.93581
12200.00000	93.91864	-364.95884	93.91864
12250.00000	93.80016	-365.45528	93.80016
12300.00000	94.81329	-366.61714	94.81329
12350.00000	93.67415	-367.67725	93.67415
12400.00000	93.58590	-367.36133	93.58590
12450.00000	93.42865	-367.67757	93.42865
12500.00000	93.22377	-368.86827	93.22377
12550.00000	93.03304	-370.02667	93.03304
12600.00000	92.76098	-371.27849	92.76098
12650.00000	92.71119	-372.68088	92.71119
12700.00000	92.47647	-373.96673	92.47647
12750.00000	92.35603	-375.26850	92.35603
12800.00000	92.19507	-375.68208	92.19507
12850.00000	91.67369	-375.63283	91.67369
12900.00000	91.51685	-376.61124	91.51685
12950.00000	91.25078	-377.57435	91.25078
13000.00000	90.94525	-378.34333	90.94525
13050.00000	90.77015	-377.95216	90.77015
13100.00000	90.47810	-378.24960	90.47810
13150.00000	90.26959	-378.95182	90.26959
13200.00000	90.12511	-377.03148	90.12511
13250.00000	89.98515	-376.64259	89.98515
13300.00000	89.66736	-373.82174	89.66736
13350.00000	89.43288	-373.36278	89.43288
13400.00000	89.38821	-372.47828	89.38821
13450.00000	89.07941	-370.82945	89.07941
13500.00000	89.03647	-369.07556	89.03647
13550.00000	88.92223	-368.70186	88.92223
13600.00000	88.96263	-366.62503	88.96263
13650.00000	89.07372	-364.42697	89.07372
13700.00000	88.95840	-362.65721	88.95840
13750.00000	88.76528	-360.37047	88.76528
13800.00000	88.88215	-361.16999	88.88215
13850.00000	88.85347	-360.27635	88.85347
13900.00000	89.02447	-359.95990	89.02447
13950.00000	89.38672	-358.02402	89.38672
14000.00000	89.77757	-355.29443	89.77757
14050.00000	90.16304	-352.59285	90.16304
14100.00000	90.15473	-351.76990	90.15473
14150.00000	90.37546	-350.22151	90.37546
14200.00000	90.74861	-349.23933	90.74861
14250.00000	91.38522	-347.36561	91.38522
14300.00000	91.71949	-346.69917	91.71949
14350.00000	92.23094	-344.28515	92.23094
14400.00000	92.20439	-345.12017	92.20439
14450.00000	92.75832	-342.49734	92.75832
14500.00000	93.07420	-343.22558	93.07420
14550.00000	93.60546	-342.45922	93.60546
14600.00000	93.93295	-344.01994	93.93295
14650.00000	94.57942	-342.29642	94.57942
14700.00000	95.08864	-346.78954	95.08864
14750.00000	95.59608	-347.29818	95.59608
14800.00000	96.06289	-346.93952	96.06289
14850.00000	96.71786	-347.44650	96.71786
14900.00000	97.21870	-348.22381	97.21870
14950.00000	97.67000	-349.71712	97.67000
15000.00000	98.22159	-351.29523	98.22159
15050.00000	98.60991	-351.75833	98.60991
15100.00000	99.24077	-352.85731	99.24077
15150.00000	99.90390	-355.21022	99.90390
15200.00000	100.29681	-355.85438	100.29681
15250.00000	100.61579	-358.67150	100.61579
15300.00000	101.23219	-361.64929	101.23219
15350.00000	101.72479	-365.05205	101.72479
15400.00000	102.13489	-366.86802	102.13489
15450.00000	102.57308	-370.13421	102.57308
15500.00000	103.13953	-373.22836	103.13953
15550.00000	103.57672	-376.61840	103.57672
15600.00000	103.92342	-380.13740	103.92342
15650.00000	104.43105	-381.75372	104.43105
15700.00000	104.59305	-386.48241	104.59305
15750.00000	105.07319	-389.84278	105.07319
15800.00000	105.41480	-392.76602	105.41480
15850.00000	105.67484	-396.24377	105.67484
15900.00000	105.79893	-400.10936	105.79893
15950.00000	106.17112	-403.93093	106.17112
16000.00000	106.36900	-407.43980	106.36900
16050.00000	106.67251	-410.98152	106.67251
16100.00000	106.71986	-415.10046	106.71986
16150.00000	106.84941	-418.56314	106.84941
16200.00000	107.02783	-422.49843	107.02783
16250.00000	107.15896	-425.79267	107.15896
16300.00000	107.44547	-429.15342	107.44547
16350.00000	107.50265	-432.58693	107.50265
16400.00000	107.62105	-435.59192	107.62105
16450.00000	107.74283	-438.76198	107.74283
16500.00000	107.78050	-441.64195	107.78050
16550.00000	107.94824	-445.92516	107.94824
16600.00000	108.10052	-448.71178	108.10052
16650.00000	108.13009	-451.75563	108.13009
16700.00000	108.23418	-454.55572	108.23418
16750.00000	108.24152	-457.95952	108.24152
16800.00000	108.37169	-461.50615	108.37169
16850.00000	108.54170	-464.32439	108.54170
16900.00000	108.63925	-467.38407	108.63925
16950.00000	108.72176	-470.62410	108.72176
17000.00000	108.70116	-473.78668	108.70116
17050.00000	108.83250	-476.08727	108.83250
17100.00000	108.77677	-478.06058	108.77677
17150.00000	109.04585	-481.93445	109.04585
17200.00000	109.11724	-484.83760	109.11724
17250.00000	109.15943	-488.41833	109.15943
17300.00000	109.33481	-491.36040	109.33481
17350.00000	109.29077	-494.23664	109.29077
17400.00000	109.45219	-497.32330	109.45219
17450.00000	109.46941	-500.96316	109.46941
17500.00000	109.55875	-504.01017	109.55875
17550.00000	109.63379	-507.30732	109.63379
17600.00000	109.78719	-510.16242	109.78719
17650.00000	109.82574	-514.17598	109.82574
17700.00000	109.77567	-517.93232	109.77567
17750.00000	110.01137	-520.36746	110.01137
17800.00000	109.92988	-524.39803	109.92988
17850.00000	109.98902	-527.35979	109.98902
17900.00000	109.97469	-530.95380	109.97469
17950.00000	110.06439	-534.69930	110.06439
18000.00000	110.04358	-538.57701	110.04358
18050.00000	110.17696	-541.55635	110.17696
18100.00000	110.06704	-545.56949	110.06704
18150.00000	110.04309	-548.48340	110.04309
18200.00000	109.94251	-552.58330	109.94251
18250.00000	109.97288	-555.34907	109.97288
18300.00000	110.02141	-558.92831	110.02141
18350.00000	109.89059	-562.20756	109.89059
18400.00000	109.77107	-565.82926	109.77107
18450.00000	109.65598	-570.31783	109.65598
18500.00000	109.58912	-573.51621	109.58912
18550.00000	109.48566	-576.28974	109.48566
18600.00000	109.47961	-580.06412	109.47961
18650.00000	109.20993	-582.92510	109.20993
18700.00000	109.07697	-586.63164	109.07697
18750.00000	109.00791	-589.57724	109.00791
18800.00000	108.98231	-592.16554	108.98231
18850.00000	108.71144	-595.29514	108.71144
18900.00000	108.50548	-598.05110	108.50548
18950.00000	108.43046	-601.51845	108.43046
19000.00000	108.15060	-603.78445	108.15060
19050.00000	108.15148	-606.77342	108.15148
19100.00000	107.95412	-609.16993	107.95412
19150.00000	107.95226	-611.70533	107.95226
19200.00000	107.79214	-613.93548	107.79214
19250.00000	107.63448	-617.48862	107.63448
19300.00000	107.45425	-619.30255	107.45425
19350.00000	107.35121	-621.83538	107.35121
19400.00000	107.17928	-624.17200	107.17928
19450.00000	107.16853	-626.02477	107.16853
19500.00000	107.01317	-629.12403	107.01317
19550.00000	106.89363	-631.49814	106.89363
19600.00000	106.84538	-634.45252	106.84538
19650.00000	106.67815	-636.40036	106.67815
19700.00000	106.48523	-638.92148	106.48523
19750.00000	106.36189	-640.80524	106.36189
19800.00000	106.35791	-644.03051	106.35791
19850.00000	106.26605	-646.05937	106.26605
19900.00000	106.10331	-649.17614	106.10331
19950.00000	105.96694	-651.47517	105.96694
20000.00000	105.86371	-653.95038	105.86371
20050.00000	105.77705	-656.31502	105.77705
20100.00000	105.58657	-658.88668	105.58657
20150.00000	105.49120	-660.28539	105.49120
20200.00000	105.32164	-663.46707	105.32164
20250.00000	105.12665	-665.74759	105.12665
20300.00000	104.90424	-668.06375	104.90424
20350.00000	104.82563	-670.47986	104.82563
20400.00000	104.60930	-671.97107	104.60930
20450.00000	104.34266	-674.25687	104.34266
20500.00000	104.23152	-676.57311	104.23152
20550.00000	103.82715	-677.83220	103.82715
20600.00000	103.72600	-679.31006	103.72600
20650.00000	103.52390	-681.00676	103.52390
20700.00000	103.28590	-682.62223	103.28590
20750.00000	103.14029	-683.71747	103.14029
20800.00000	102.91789	-684.48803	102.91789
20850.00000	102.81921	-685.63495	102.81921
20900.00000	102.58504	-686.53580	102.58504
20950.00000	102.43277	-686.87149	102.43277
21000.00000	102.34548	-687.32373	102.34548
21050.00000	102.39872	-687.49863	102.39872
21100.00000	102.32549	-687.68081	102.32549
21150.00000	102.39663	-688.55128	102.39663
21200.00000	102.46430	-688.79208	102.46430
21250.00000	102.52162	-690.77626	102.52162
21300.00000	102.69154	-691.25153	102.69154
21350.00000	102.73466	-692.12382	102.73466
21400.00000	102.82052	-693.95100	102.82052
21450.00000	102.92082	-695.46954	102.92082
21500.00000	103.03054	-697.47565	103.03054
21550.00000	103.00397	-698.82741	103.00397
21600.00000	103.12256	-701.01578	103.12256
21650.00000	103.15019	-703.29841	103.15019
21700.00000	103.16715	-705.00588	103.16715
21750.00000	103.22069	-707.02526	103.22069
21800.00000	103.19880	-709.09614	103.19880
21850.00000	103.11150	-710.98069	103.11150
21900.00000	103.15338	-712.67812	103.15338
21950.00000	103.11134	-714.59913	103.11134
22000.00000	103.13601	-716.38823	103.13601
22050.00000	103.07636	-717.84525	103.07636
22100.00000	103.04378	-719.66797	103.04378
22150.00000	102.98577	-721.60883	102.98577
22200.00000	103.05012	-723.08970	103.05012
22250.00000	102.96067	-724.14762	102.96067
22300.00000	102.84436	-726.11141	102.84436
22350.00000	102.95890	-727.94850	102.95890
22400.00000	102.96315	-729.68624	102.96315
22450.00000	102.88331	-731.18334	102.88331
22500.00000	102.80406	-731.83450	102.80406
22550.00000	102.81093	-733.75040	102.81093
22600.00000	102.79037	-736.17482	102.79037
22650.00000	102.81689	-737.68586	102.81689
22700.00000	102.78686	-738.99175	102.78686
22750.00000	102.75121	-738.99477	102.75121
22800.00000	102.75786	-742.85335	102.75786
22850.00000	102.79727	-744.97245	102.79727
22900.00000	102.78066	-745.16868	102.78066
22950.00000	102.82812	-746.34799	102.82812
23000.00000	102.73678	-747.47120	102.73678
23050.00000	102.69010	-750.06933	102.69010
23100.00000	102.86919	-750.73029	102.86919
23150.00000	102.66646	-751.54310	102.66646
23200.00000	102.80432	-754.15281	102.80432
23250.00000	102.60588	-756.80582	102.60588
23300.00000	102.93105	-758.26835	102.93105
23350.00000	102.70052	-759.94532	102.70052
23400.00000	102.65149	-760.81898	102.65149
23450.00000	102.76946	-762.88295	102.76946
23500.00000	102.61078	-763.83870	102.61078
23550.00000	102.57411	-764.02414	102.57411
23600.00000	102.57645	-767.18431	102.57645
23650.00000	102.59087	-768.41803	102.59087
23700.00000	102.80297	-772.46657	102.80297
23750.00000	102.70737	-772.40727	102.70737
23800.00000	102.50419	-772.49690	102.50419
23850.00000	102.70385	-772.78387	102.70385
23900.00000	103.07334	-774.93218	103.07334
23950.00000	102.75591	-777.50882	102.75591
24000.00000	102.63467	-779.98138	102.63467
24050.00000	102.90634	-779.68957	102.90634
24100.00000	103.20371	-783.23313	103.20371
24150.00000	103.18019	-784.49332	103.18019
24200.00000	103.26693	-787.38481	103.26693
24250.00000	102.94759	-787.33617	102.94759
24300.00000	103.49962	-789.15335	103.49962
24350.00000	103.31509	-791.88743	103.31509
24400.00000	103.39905	-794.63243	103.39905
24450.00000	103.20884	-796.16915	103.20884
24500.00000	103.76661	-797.41420	103.76661
24550.00000	103.61556	-801.90367	103.61556
24600.00000	104.15473	-802.64415	104.15473
24650.00000	103.86876	-446.61779	103.86876
24700.00000	103.83998	-86.49396	103.83998
24750.00000	103.97718	268.98337	103.97718
24800.00000	104.07472	626.75639	104.07472
24850.00000	103.75954	985.12594	103.75954
24900.00000	104.02676	1344.77197	104.02676
24950.00000	104.27197	1699.32293	104.27197
25000.00000	104.35110	1692.13512	104.35110
25050.00000	104.62044	1692.94732	104.62044
25100.00000	103.95565	1689.36204	103.95565
25150.00000	104.32106	1688.02909	104.32106
25200.00000	104.09394	1683.64283	104.09394
25250.00000	104.24577	1682.42481	104.24577
25300.00000	104.21060	1680.31567	104.21060
25350.00000	104.09733	1673.59045	104.09733
25400.00000	104.09226	1670.29773	104.09226
25450.00000	104.12768	1668.74724	104.12768
25500.00000	103.98192	1667.07119	103.98192
25550.00000	103.98103	1662.51806	103.98103
25600.00000	103.98166	1660.87375	103.98166
25650.00000	103.86071	1659.32748	103.86071
25700.00000	103.77051	1655.76061	103.77051
25750.00000	103.60653	1652.78356	103.60653
25800.00000	103.47606	1649.54820	103.47606
25850.00000	103.37779	1646.95750	103.37779
25900.00000	103.30099	1643.44667	103.30099
25950.00000	103.11354	1645.09369	103.11354
26000.00000	103.08691	1640.01758	103.08691
26050.00000	103.00315	1637.98930	103.00315
26100.00000	102.83418	1636.04488	102.83418
26150.00000	102.80437	1633.82412	102.80437
26200.00000	102.81750	1631.49010	102.81750
26250.00000	102.68663	1628.98725	102.68663
26300.00000	102.70965	1626.45814	102.70965
26350.00000	102.32977	1625.87341	102.32977
26400.00000	102.26983	1623.56271	102.26983
26450.00000	102.50951	1620.36958	102.50951
26500.00000	102.27710	1618.37352	102.27710
26550.00000	102.14731	1613.72244	102.14731
26600.00000	101.97515	1611.96713	101.97515
26650.00000	102.13449	1613.13323	102.13449
26700.00000	101.86656	1609.38248	101.86656
26750.00000	101.87513	1607.75464	101.87513
26800.00000	101.78807	1603.47473	101.78807
26850.00000	101.93590	1603.51917	101.93590
26900.00000	102.01658	1602.58477	102.01658
26950.00000	102.05436	1598.50193	102.05436
27000.00000	101.75514	1597.46480	101.75514
27050.00000	101.92681	1595.89297	101.92681
27100.00000	101.67933	1594.35081	101.67933
27150.00000	101.63162	1591.27900	101.63162
27200.00000	101.78263	1590.17659	101.78263
27250.00000	101.42664	1589.01242	101.42664
27300.00000	101.05673	1585.31459	101.05673
27350.00000	101.47998	1585.56489	101.47998
27400.00000	101.15241	1583.57740	101.15241
27450.00000	101.13229	1581.87401	101.13229
27500.00000	101.19413	1580.34979	101.19413
27550.00000	101.25148	1578.65077	101.25148
27600.00000	101.72274	1575.71212	101.72274
27650.00000	101.06012	1576.35298	101.06012
27700.00000	101.26776	1571.30878	101.26776
27750.00000	101.26545	1569.32228	101.26545
27800.00000	101.35739	1566.79694	101.35739
27850.00000	101.71648	1568.42926	101.71648
27900.00000	101.29546	1565.41692	101.29546
27950.00000	100.72035	1564.22145	100.72035
28000.00000	101.02125	1563.57802	101.02125
28050.00000	101.67292	1560.44550	101.67292
28100.00000	101.07839	1558.69802	101.07839
28150.00000	101.17951	1557.16172	101.17951
28200.00000	101.37314	1553.57266	101.37314
28250.00000	101.08800	1550.76734	101.08800
28300.00000	100.94261	1551.35661	100.94261
28350.00000	101.31111	1550.28332	101.31111
28400.00000	101.13593	1549.24789	101.13593
28450.00000	101.79383	1545.36225	101.79383
28500.00000	101.15470	1545.69283	101.15470
28550.00000	101.32772	1544.91998	101.32772
28600.00000	101.40235	1543.26270	101.40235
28650.00000	101.61650	1538.26007	101.61650
28700.00000	101.55682	1539.09592	101.55682
28750.00000	102.23049	1538.57238	102.23049
28800.00000	102.03477	1535.01605	102.03477
28850.00000	101.48308	1531.69477	101.48308
28900.00000	101.65308	1529.79787	101.65308
28950.00000	101.63474	1529.33678	101.63474
29000.00000	101.87518	1527.07961	101.87518
29050.00000	101.57947	1527.02114	101.57947
29100.00000	101.54901	1525.03212	101.54901
29150.00000	101.48298	1524.55776	101.48298
29200.00000	101.45126	1520.87513	101.45126
29250.00000	101.86710	1519.95395	101.86710
29300.00000	101.58331	1517.36771	101.58331
29350.00000	101.87979	1514.66669	101.87979
29400.00000	101.71449	1513.86784	101.71449
29450.00000	101.67752	1511.68011	101.67752
29500.00000	101.97883	1510.98810	101.97883
29550.00000	101.68391	1506.24388	101.68391
29600.00000	101.57649	1506.44129	101.57649
29650.00000	101.67407	1503.11044	101.67407
29700.00000	101.39733	1505.23416	101.39733
29750.00000	101.44921	1503.39125	101.44921
29800.00000	101.15915	1500.05352	101.15915
29850.00000	101.22576	1497.89830	101.22576
29900.00000	101.39662	1498.10665	101.39662
29950.00000	100.50406	1497.31515	100.50406
30000.00000	101.02673	1497.76142	101.02673
30050.00000	100.87084	1495.19126	100.87084
30100.00000	100.59938	1496.05046	100.59938
30150.00000	100.61452	1492.62140	100.61452
30200.00000	100.61627	1490.99992	100.61627
30250.00000	100.34223	1491.69726	100.34223
30300.00000	100.17364	1491.77121	100.17364
30350.00000	100.11944	1493.49365	100.11944
30400.00000	100.10680	1491.49731	100.10680
30450.00000	99.71844	1491.69506	99.71844
30500.00000	99.76967	1491.46499	99.76967
30550.00000	99.68274	1493.22139	99.68274
30600.00000	99.75047	1493.66534	99.75047
30650.00000	99.74034	1494.30474	99.74034
30700.00000	99.86737	1493.95636	99.86737
30750.00000	99.67315	1496.10064	99.67315
30800.00000	99.84989	1496.36054	99.84989
30850.00000	100.04634	1498.34663	100.04634
30900.00000	100.11722	1500.22776	100.11722
30950.00000	100.49653	1499.37228	100.49653
31000.00000	100.76889	1499.47379	100.76889
31050.00000	101.07205	1500.63982	101.07205
31100.00000	101.53126	1501.37910	101.53126
31150.00000	101.54514	1501.59045	101.54514
31200.00000	102.30412	1500.80621	102.30412
31250.00000	102.61089	1500.66094	102.61089
31300.00000	103.00817	1499.59256	103.00817
31350.00000	103.54409	1498.62256	103.54409
31400.00000	103.79020	1496.51542	103.79020
31450.00000	104.27208	1495.07890	104.27208
31500.00000	104.59302	1492.47425	104.59302
31550.00000	105.04617	1490.88813	105.04617
31600.00000	105.55076	1487.33071	105.55076
31650.00000	105.78824	1485.08083	105.78824
31700.00000	106.19146	1483.22436	106.19146
31750.00000	106.51269	1481.46047	106.51269
31800.00000	106.73930	1477.72095	106.73930
31850.00000	107.09137	1473.75599	107.09137
31900.00000	107.19860	1471.30033	107.19860
31950.00000	107.51285	1468.28966	107.51285
32000.00000	107.77901	1465.05213	107.77901
32050.00000	108.05104	1462.21068	108.05104
32100.00000	108.16232	1458.71107	108.16232
32150.00000	108.43154	1456.05320	108.43154
32200.00000	108.66688	1452.45322	108.66688
32250.00000	108.78701	1448.52716	108.78701
32300.00000	108.94054	1445.91017	108.94054
32350.00000	108.94365	1442.94496	108.94365
32400.00000	109.20972	1440.30765	109.20972
32450.00000	109.26358	1436.27536	109.26358
32500.00000	109.49086	1433.87821	109.49086
32550.00000	109.68144	1429.90191	109.68144
32600.00000	109.76481	1427.55109	109.76481
32650.00000	109.93230	1423.80613	109.93230
32700.00000	109.86713	1420.56646	109.86713
32750.00000	110.05654	1417.07523	110.05654
32800.00000	110.31566	1414.75927	110.31566
32850.00000	110.47150	1410.89610	110.47150
32900.00000	110.49267	1406.57023	110.49267
32950.00000	110.39488	1403.05661	110.39488
33000.00000	110.47171	1401.72197	110.47171
33050.00000	110.52812	1396.59991	110.52812
33100.00000	110.76416	1394.14383	110.76416
33150.00000	110.71723	1391.33443	110.71723
33200.00000	111.00233	1389.16771	111.00233
33250.00000	110.85698	1386.09118	110.85698
33300.00000	111.03927	1382.34672	111.03927
33350.00000	110.95955	1378.70918	110.95955
33400.00000	111.00821	1376.81047	111.00821
33450.00000	111.09069	1372.82240	111.09069
33500.00000	111.26829	1371.44597	111.26829
33550.00000	111.04389	1366.75338	111.04389
33600.00000	111.33833	1363.95315	111.33833
33650.00000	111.32185	1360.56088	111.32185
33700.00000	111.40000	1358.32030	111.40000
33750.00000	111.24398	1355.07663	111.24398
33800.00000	111.39464	1352.22933	111.39464
33850.00000	111.15356	1349.53864	111.15356
33900.00000	111.41245	1346.88793	111.41245
33950.00000	111.43582	1344.46076	111.43582
34000.00000	111.46838	1341.02213	111.46838
34050.00000	111.37383	1338.25828	111.37383
34100.00000	111.32816	1336.54775	111.32816
34150.00000	111.48317	1333.41421	111.48317
34200.00000	111.53182	1332.47114	111.53182
34250.00000	111.52810	1328.25075	111.52810
34300.00000	111.51539	1325.76182	111.51539
34350.00000	111.62128	1323.66656	111.62128
34400.00000	111.38681	1322.33275	111.38681
34450.00000	111.57424	1317.85507	111.57424
34500.00000	111.64584	1316.86527	111.64584
34550.00000	111.63755	1314.15466	111.63755
34600.00000	111.33064	1310.76017	111.33064
34650.00000	111.65395	1310.64231	111.65395
34700.00000	111.27546	1309.71554	111.27546
34750.00000	111.53860	1303.99690	111.53860
34800.00000	111.64093	1304.92444	111.64093
34850.00000	111.78866	1303.77495	111.78866
34900.00000	111.99372	1300.06758	111.99372
34950.00000	111.89887	1299.14989	111.89887
35000.00000	111.93572	1296.67891	111.93572
35050.00000	112.07363	1295.45492	112.07363
35100.00000	112.21682	1293.16205	112.21682
35150.00000	112.08463	1292.67209	112.08463
35200.00000	112.18589	1289.56096	112.18589
35250.00000	112.36086	1286.88652	112.36086
35300.00000	112.57804	1285.33474	112.57804
35350.00000	112.68358	1282.62571	112.68358
35400.00000	112.64298	1280.84860	112.64298
35450.00000	112.96591	1279.79733	112.96591
35500.00000	112.66171	1278.08364	112.66171
35550.00000	113.10502	1277.27577	113.10502
35600.00000	113.12768	1273.85783	113.12768
35650.00000	113.32130	1271.98895	113.32130
35700.00000	113.42714	1270.49570	113.42714
35750.00000	113.37797	1269.67966	113.37797
35800.00000	113.67240	1268.90668	113.67240
35850.00000	113.88274	1265.92458	113.88274
35900.00000	114.09767	1263.57337	114.09767
35950.00000	114.34927	1261.30664	114.34927
36000.00000	114.43156	1260.49596	114.43156
36050.00000	114.69085	1258.05726	114.69085
36100.00000	115.01540	1255.66296	115.01540
36150.00000	115.05747	1253.90363	115.05747
36200.00000	115.27800	1252.44083	115.27800
36250.00000	115.77205	1251.94911	115.77205
36300.00000	115.58978	1248.23744	115.58978
36350.00000	115.87580	1245.41930	115.87580
36400.00000	116.12214	1243.54160	116.12214
36450.00000	116.11229	1240.69413	116.11229
36500.00000	116.59660	1239.57153	116.59660
36550.00000	116.75598	1235.12053	116.75598
36600.00000	116.94560	1232.90885	116.94560
36650.00000	117.22922	1230.81865	117.22922
36700.00000	117.48603	1226.75710	117.48603
36750.00000	117.62584	1223.92883	117.62584
36800.00000	117.75753	1221.75876	117.75753
36850.00000	117.83439	1218.59051	117.83439
36900.00000	118.26048	1215.27824	118.26048
36950.00000	118.17286	1211.73334	118.17286
37000.00000	118.10005	1209.56302	118.10005
37050.00000	118.25315	1206.22373	118.25315
37100.00000	118.54839	1202.19716	118.54839
37150.00000	118.68830	1198.15747	118.68830
37200.00000	118.99417	1196.32444	118.99417
37250.00000	118.69144	1192.12116	118.69144
37300.00000	118.77938	1188.50327	118.77938
37350.00000	119.05900	1185.55176	119.05900
37400.00000	118.84976	1182.89620	118.84976
37450.00000	118.85343	1180.17157	118.85343
37500.00000	119.21728	1176.09364	119.21728
37550.00000	118.96660	1173.85384	118.96660
37600.00000	119.07522	1170.03714	119.07522
37650.00000	119.06577	1167.67062	119.06577
37700.00000	119.11449	1163.44160	119.11449
37750.00000	119.18396	1161.59564	119.18396
37800.00000	119.03642	1157.45579	119.03642
37850.00000	119.12529	1153.37611	119.12529
37900.00000	119.06179	1150.76488	119.06179
37950.00000	119.11866	1149.04252	119.11866
38000.00000	119.03669	1146.16781	119.03669
38050.00000	119.14607	1143.05352	119.14607
38100.00000	119.26010	1139.71883	119.26010
38150.00000	119.21313	1135.96326	119.21313
38200.00000	119.41507	1132.66687	119.41507
38250.00000	119.42814	1130.11825	119.42814
38300.00000	119.54656	1126.02560	119.54656
38350.00000	119.54250	1123.20504	119.54250
38400.00000	119.62736	1119.96043	119.62736
38450.00000	119.71194	1115.86953	119.71194
38500.00000	119.84614	1112.03281	119.84614
38550.00000	120.04296	1108.80926	120.04296
38600.00000	120.11729	1104.96478	120.11729
38650.00000	120.28830	1100.60469	120.28830
38700.00000	120.32784	1096.57392	120.32784
38750.00000	120.45706	1092.66937	120.45706
38800.00000	120.59050	1088.29196	120.59050
38850.00000	120.70019	1083.52351	120.70019
38900.00000	120.83151	1079.08806	120.83151
38950.00000	120.88849	1073.94947	120.88849
39000.00000	120.92133	1069.04860	120.92133
39050.00000	121.04145	1064.27303	121.04145
39100.00000	120.93815	1059.20595	120.93815
39150.00000	120.90740	1053.90369	120.90740
39200.00000	120.94346	1048.93742	120.94346
39250.00000	120.84620	1043.42404	120.84620
39300.00000	120.75293	1037.83772	120.75293
39350.00000	120.63393	1033.29164	120.63393
39400.00000	120.49385	1027.63417	120.49385
39450.00000	120.24855	1022.90574	120.24855
39500.00000	120.12430	1017.66870	120.12430
39550.00000	119.81026	1012.57918	119.81026
39600.00000	119.43892	1007.70445	119.43892
39650.00000	119.25822	1003.51851	119.25822
39700.00000	118.88086	998.83349	118.88086
39750.00000	118.58369	994.26602	118.58369
39800.00000	118.24183	990.14900	118.24183
39850.00000	117.81170	986.10196	117.81170
39900.00000	117.53382	982.66190	117.53382
39950.00000	117.16295	979.12131	117.16295
40000.00000	116.64932	976.88929	116.64932
40050.00000	116.36195	972.34168	116.36195
40100.00000	116.02408	968.98471	116.02408
40150.00000	115.56685	966.01976	115.56685
40200.00000	115.22026	962.83185	115.22026
40250.00000	114.84876	960.41746	114.84876
40300.00000	114.56983	958.19358	114.56983
40350.00000	113.97506	955.95062	113.97506
40400.00000	113.59171	953.54402	113.59171
40450.00000	113.18037	951.31687	113.18037
40500.00000	112.99184	950.91076	112.99184
40550.00000	112.57761	947.62536	112.57761
40600.00000	112.20414	946.49827	112.20414
40650.00000	111.79332	945.30844	111.79332
40700.00000	111.37743	944.60940	111.37743
40750.00000	111.21242	942.51267	111.21242
40800.00000	110.77376	941.87324	110.77376
40850.00000	110.42069	941.65525	110.42069
40900.00000	110.00566	939.42511	110.00566
40950.00000	109.59965	940.68131	109.59965
41000.00000	109.25821	940.42491	109.25821
41050.00000	109.12034	939.79906	109.12034
41100.00000	108.95407	939.60499	108.95407
41150.00000	108.70540	941.16332	108.70540
41200.00000	108.52922	941.09064	108.52922
41250.00000	108.22934	939.17223	108.22934
41300.00000	107.72947	941.15420	107.72947
41350.00000	107.78548	943.16665	107.78548
41400.00000	107.57573	938.82373	107.57573
41450.00000	107.45833	941.48292	107.45833
41500.00000	107.40771	942.16449	107.40771
41550.00000	106.98558	945.83971	106.98558
41600.00000	106.51984	945.38052	106.51984
41650.00000	107.12773	945.04436	107.12773
41700.00000	106.73133	947.48084	106.73133
41750.00000	106.54542	951.32495	106.54542
41800.00000	105.87225	945.60404	105.87225
41850.00000	105.60421	949.44615	105.60421
41900.00000	105.41176	949.56071	105.41176
41950.00000	106.46109	955.43233	106.46109
42000.00000	105.38713	950.68249	105.38713
42050.00000	104.62934	952.44115	104.62934
42100.00000	104.82606	954.59667	104.82606
42150.00000	104.27688	950.90746	104.27688
42200.00000	104.14137	957.52102	104.14137
42250.00000	103.98889	957.31644	103.98889
42300.00000	103.65122	956.53057	103.65122
42350.00000	103.77234	958.65493	103.77234
42400.00000	103.23943	961.22042	103.23943
42450.00000	104.18726	957.72851	104.18726
42500.00000	103.52663	960.15812	103.52663
42550.00000	104.18132	970.26338	104.18132
42600.00000	103.76611	965.85205	103.76611
42650.00000	103.35608	966.01755	103.35608
42700.00000	103.69794	960.41113	103.69794
42750.00000	104.19362	960.94929	104.19362
42800.00000	103.95182	956.73278	103.95182
42850.00000	103.81222	955.48200	103.81222
42900.00000	104.86442	958.93256	104.86442
42950.00000	104.03650	954.34013	104.03650
43000.00000	104.99723	945.96757	104.99723
43050.00000	104.15491	943.03157	104.15491
43100.00000	105.21090	945.00917	105.21090
43150.00000	104.08009	941.03659	104.08009
43200.00000	105.14706	937.09123	105.14706
43250.00000	105.36118	931.42916	105.36118
43300.00000	105.41009	925.89306	105.41009
43350.00000	106.41542	922.66569	106.41542
43400.00000	106.31990	920.03486	106.31990
43450.00000	107.23559	916.33783	107.23559
43500.00000	105.91757	906.33809	105.91757
43550.00000	107.00789	904.00774	107.00789
43600.00000	106.85805	898.66823	106.85805
43650.00000	107.43308	888.91327	107.43308
43700.00000	107.46541	886.51780	107.46541
43750.00000	107.01542	884.27006	107.01542
43800.00000	107.42192	874.19120	107.42192
43850.00000	108.36595	869.46679	108.36595
43900.00000	108.53351	866.23545	108.53351
43950.00000	108.55020	859.90245	108.55020
44000.00000	108.37594	855.02796	108.37594
44050.00000	109.05469	848.73179	109.05469
44100.00000	109.46172	835.53870	109.46172
44150.00000	109.03328	837.45190	109.03328
44200.00000	109.13183	834.54015	109.13183
44250.00000	109.40145	827.30214	109.40145
44300.00000	109.77373	818.52338	109.77373
44350.00000	108.74259	811.99728	108.74259
44400.00000	109.61233	811.00347	109.61233
44450.00000	109.84534	806.45362	109.84534
44500.00000	109.66596	801.30394	109.66596
44550.00000	110.82137	790.29290	110.82137
44600.00000	109.78566	791.35014	109.78566
44650.00000	109.53249	782.49457	109.53249
44700.00000	109.24369	778.54149	109.24369
44750.00000	109.57282	776.31150	109.57282
44800.00000	110.13728	770.25560	110.13728
44850.00000	109.62845	763.00448	109.62845
44900.00000	109.38241	761.09076	109.38241
44950.00000	109.43688	754.52001	109.43688
45000.00000	109.73148	745.31999	109.73148
45050.00000	108.08541	750.50337	108.08541
45100.00000	108.63898	741.44868	108.63898
45150.00000	108.65833	730.08184	108.65833
45200.00000	108.35645	734.97343	108.35645
45250.00000	108.22305	729.10103	108.22305
45300.00000	107.81671	725.49104	107.81671
45350.00000	107.59885	716.14270	107.59885
45400.00000	107.44702	715.35582	107.44702
45450.00000	107.50395	708.16335	107.50395
45500.00000	105.76876	704.19952	105.76876
45550.00000	105.95773	705.62095	105.95773
45600.00000	106.77550	696.68215	106.77550
45650.00000	105.31458	691.98339	105.31458
45700.00000	105.20052	690.16985	105.20052
45750.00000	105.63749	694.76754	105.63749
45800.00000	104.64792	682.39223	104.64792
45850.00000	104.31089	683.13314	104.31089
45900.00000	104.36501	678.79629	104.36501
45950.00000	103.46129	682.26151	103.46129
46000.00000	101.90944	664.31598	101.90944
46050.00000	102.71560	663.71422	102.71560
46100.00000	101.16790	666.40896	101.16790
46150.00000	101.12292	669.43498	101.12292
46200.00000	99.11238	657.81676	99.11238
46250.00000	100.38708	656.08679	100.38708
46300.00000	99.10508	655.47963	99.10508
46350.00000	100.37451	652.15358	100.37451
46400.00000	98.26337	650.61416	98.26337
46450.00000	96.68407	650.92645	96.68407
46500.00000	97.96771	646.82524	97.96771
46550.00000	97.09971	659.85756	97.09971
46600.00000	97.28231	658.09611	97.28231
46650.00000	94.52565	656.40398	94.52565
46700.00000	94.28239	664.61492	94.28239
46750.00000	95.33241	670.12623	95.33241
46800.00000	93.69427	661.48007	93.69427
46850.00000	94.93622	318.88622	94.93622
46900.00000	94.92808	308.17534	94.92808
46950.00000	96.13989	306.22157	96.13989
47000.00000	95.19344	314.84461	95.19344
47050.00000	96.78230	307.19832	96.78230
47100.00000	94.79068	305.68881	94.79068
47150.00000	96.80563	306.61127	96.80563
47200.00000	95.16465	307.16010	95.16465
47250.00000	97.60207	303.91376	97.60207
47300.00000	96.42299	295.89586	96.42299
47350.00000	96.65625	-50.41162	96.65625
47400.00000	95.92169	-55.54092	95.92169
47450.00000	96.93171	-55.56084	96.93171
47500.00000	95.00320	-68.49234	95.00320
47550.00000	95.18238	-420.08876	95.18238
47600.00000	95.53440	-423.85717	95.53440
47650.00000	97.43504	-428.83442	97.43504
47700.00000	95.46348	-429.42670	95.46348
47750.00000	94.34375	-426.09035	94.34375
47800.00000	95.30192	-441.86867	95.30192
47850.00000	96.00884	-790.95353	96.00884
47900.00000	95.78619	-1143.04311	95.78619
47950.00000	94.68647	-1144.86201	94.68647
48000.00000	95.21830	-1143.46165	95.21830
48050.00000	95.71542	-1153.46605	95.71542
48100.00000	94.92724	-1152.74162	94.92724
48150.00000	95.61436	-1506.99724	95.61436
48200.00000	95.29381	-1504.52340	95.29381
48250.00000	94.77921	-1514.32504	94.77921
48300.00000	95.36624	-1513.74328	95.36624
48350.00000	95.58663	-1517.09492	95.58663
48400.00000	96.52291	-1864.28658	96.52291
48450.00000	97.51987	-1870.65665	97.51987
48500.00000	96.25780	-1874.41776	96.25780
48550.00000	95.30223	-1879.54071	95.30223
48600.00000	97.56318	-2235.83978	97.56318
48650.00000	97.92671	-2238.21065	97.92671
48700.00000	98.17000	-2249.79862	98.17000
48750.00000	96.96167	-2598.55102	96.96167
48800.00000	97.59048	-2605.67145	97.59048
48850.00000	97.24985	-2610.44383	97.24985
48900.00000	96.62854	-2966.11953	96.62854
48950.00000	97.02626	-2979.76607	97.02626
49000.00000	97.87583	-2984.22041	97.87583
49050.00000	96.78566	-2987.20742	96.78566
49100.00000	96.50064	-3346.69359	96.50064
49150.00000	98.42279	-3704.57960	98.42279
49200.00000	97.48973	-3717.13043	97.48973
49250.00000	96.56205	-4067.36837	96.56205
49300.00000	97.09915	-3730.02197	97.09915
49350.00000	94.14937	-3707.73614	94.14937
49400.00000	95.68468	-3364.69303	95.68468
49450.00000	94.57420	-3011.91241	94.57420
49500.00000	95.15929	-2660.14557	95.15929
49550.00000	94.84153	-2301.53058	94.84153
49600.00000	92.05386	-2298.24755	92.05386
49650.00000	93.18889	-2292.31343	93.18889
49700.00000	92.94452	-1966.42542	92.94452
49750.00000	90.79081	-1956.61691	90.79081
49800.00000	89.64537	-1953.59916	89.64537
49850.00000	87.35433	-1936.33992	87.35433
49900.00000	86.47549	-1573.89696	86.47549
49950.00000	84.58139	-1233.40593	84.58139
