---ACOUSTIC CALIBRATION---
Filename: C:\Data\AZH DATA\AZH52\RightPrimary.calib
Date: 8/27/2019 11:39:14 AM
Format: 4
Probe Tube Correction File: C:\Data\Probe Tube Calibrations\50_ProbeTube.calib
Experiment VIs: 850
EPL_CFTS.exe V12.0.1 (2012)
DAQmx V9.6

Attenuation (dB): 40.000000
Min Freq (Hz): 50.000000
Max Freq (Hz): 49950.000000
Freq Step (Hz): 50.000000
Sample Rate (Hz): 100000.000000
[Smoothing]
Method=None
MA.Iterations=0
MA.Length=0
Loess.Length=0
Loess.Type=Linear
Loess.Robust=FALSE


Freq(Hz)	Mag(dB)	Phase(deg)	Unsmoothed(dB)

50.00000	95.75151	595.20584	95.75151
100.00000	82.63569	502.05087	82.63569
150.00000	76.40308	489.20956	76.40308
200.00000	81.60190	458.68571	81.60190
250.00000	88.67740	463.74489	88.67740
300.00000	88.43643	385.77915	88.43643
350.00000	80.54577	378.94559	80.54577
400.00000	88.06869	383.76258	88.06869
450.00000	83.05564	374.27857	83.05564
500.00000	88.18358	355.85339	88.18358
550.00000	90.63392	377.10357	90.63392
600.00000	95.16363	363.34867	95.16363
650.00000	96.44388	350.79921	96.44388
700.00000	98.12654	335.36435	98.12654
750.00000	99.47318	316.83238	99.47318
800.00000	100.90097	294.92486	100.90097
850.00000	100.03795	277.08498	100.03795
900.00000	98.17865	263.25997	98.17865
950.00000	96.37543	259.30213	96.37543
1000.00000	95.09610	260.99093	95.09610
1050.00000	93.10963	276.23014	93.10963
1100.00000	95.19663	298.58200	95.19663
1150.00000	97.82140	300.53113	97.82140
1200.00000	100.53997	297.55971	100.53997
1250.00000	102.17085	290.56812	102.17085
1300.00000	103.87400	284.81047	103.87400
1350.00000	104.97219	275.21978	104.97219
1400.00000	105.79209	267.58727	105.79209
1450.00000	106.79906	263.18032	106.79906
1500.00000	108.20244	255.92101	108.20244
1550.00000	108.92909	246.65321	108.92909
1600.00000	110.47274	235.61993	110.47274
1650.00000	111.23890	219.12303	111.23890
1700.00000	110.13052	208.45126	110.13052
1750.00000	109.74722	203.22421	109.74722
1800.00000	109.51022	198.92003	109.51022
1850.00000	109.60569	198.87654	109.60569
1900.00000	110.89750	194.24639	110.89750
1950.00000	111.55741	180.49962	111.55741
2000.00000	110.51941	168.71566	110.51941
2050.00000	109.27258	173.84614	109.27258
2100.00000	111.17771	173.00474	111.17771
2150.00000	111.81015	160.78977	111.81015
2200.00000	111.68233	150.58962	111.68233
2250.00000	111.04935	144.20506	111.04935
2300.00000	111.18267	138.03795	111.18267
2350.00000	110.91294	131.60210	110.91294
2400.00000	110.65004	125.65883	110.65004
2450.00000	110.27071	119.58030	110.27071
2500.00000	109.92996	114.27540	109.92996
2550.00000	109.44177	108.92560	109.44177
2600.00000	108.91372	104.50543	108.91372
2650.00000	108.31253	100.79319	108.31253
2700.00000	107.81788	96.93188	107.81788
2750.00000	107.13528	93.13144	107.13528
2800.00000	106.33879	90.42690	106.33879
2850.00000	105.61166	88.96710	105.61166
2900.00000	104.83437	87.43636	104.83437
2950.00000	103.84348	87.05324	103.84348
3000.00000	102.91463	87.71490	102.91463
3050.00000	101.74372	90.09895	101.74372
3100.00000	100.58707	96.56207	100.58707
3150.00000	99.66656	106.31898	99.66656
3200.00000	99.62622	122.29037	99.62622
3250.00000	100.70502	136.03903	100.70502
3300.00000	102.21127	145.61204	102.21127
3350.00000	104.08608	152.40823	104.08608
3400.00000	106.39942	156.28567	106.39942
3450.00000	108.60570	155.28886	108.60570
3500.00000	110.77341	151.01314	110.77341
3550.00000	112.37895	143.80475	112.37895
3600.00000	113.78492	137.28119	113.78492
3650.00000	114.96113	129.51102	114.96113
3700.00000	115.97939	122.10948	115.97939
3750.00000	116.97269	113.93804	116.97269
3800.00000	117.72020	105.34924	117.72020
3850.00000	118.25773	97.23611	118.25773
3900.00000	118.77663	89.99040	118.77663
3950.00000	119.34936	82.88247	119.34936
4000.00000	119.88525	75.29663	119.88525
4050.00000	120.40111	67.90349	120.40111
4100.00000	120.96006	60.05983	120.96006
4150.00000	121.64466	51.29190	121.64466
4200.00000	121.99542	41.29612	121.99542
4250.00000	122.24899	30.83426	122.24899
4300.00000	122.32241	20.19239	122.32241
4350.00000	122.15897	 9.64949	122.15897
4400.00000	121.84911	 0.19540	121.84911
4450.00000	121.46575	-8.62697	121.46575
4500.00000	121.06079	-16.67620	121.06079
4550.00000	120.65318	-24.55842	120.65318
4600.00000	120.18724	-32.11340	120.18724
4650.00000	119.75773	-39.51360	119.75773
4700.00000	119.23845	-47.42796	119.23845
4750.00000	118.55524	-55.51144	118.55524
4800.00000	117.64054	-63.40334	117.64054
4850.00000	116.48212	-69.63889	116.48212
4900.00000	115.20935	-73.86149	115.20935
4950.00000	113.97028	-75.67842	113.97028
5000.00000	112.89050	-75.45489	112.89050
5050.00000	111.96382	-75.31428	111.96382
5100.00000	111.02799	-71.28455	111.02799
5150.00000	111.16574	-66.76343	111.16574
5200.00000	111.04635	-62.14882	111.04635
5250.00000	112.69175	-61.50904	112.69175
5300.00000	113.11329	-71.96750	113.11329
5350.00000	112.56965	-78.29736	112.56965
5400.00000	112.04056	-81.44243	112.04056
5450.00000	111.65622	-83.31282	111.65622
5500.00000	111.35419	-85.24610	111.35419
5550.00000	111.13548	-86.78927	111.13548
5600.00000	110.95476	-88.55745	110.95476
5650.00000	110.81356	-90.17544	110.81356
5700.00000	110.67582	-91.93058	110.67582
5750.00000	110.59487	-93.44957	110.59487
5800.00000	110.51750	-95.18929	110.51750
5850.00000	110.50152	-96.89653	110.50152
5900.00000	110.52031	-98.78686	110.52031
5950.00000	110.55310	-101.08891	110.55310
6000.00000	110.59890	-103.57961	110.59890
6050.00000	110.57095	-106.46107	110.57095
6100.00000	110.55383	-109.23450	110.55383
6150.00000	110.49365	-112.10714	110.49365
6200.00000	110.42511	-114.77393	110.42511
6250.00000	110.32933	-117.49789	110.32933
6300.00000	110.26848	-120.13481	110.26848
6350.00000	110.16735	-122.79450	110.16735
6400.00000	110.09555	-125.29637	110.09555
6450.00000	110.02098	-127.84001	110.02098
6500.00000	109.94646	-130.38830	109.94646
6550.00000	109.86155	-132.90939	109.86155
6600.00000	109.81400	-135.38817	109.81400
6650.00000	109.74938	-137.82091	109.74938
6700.00000	109.69969	-140.55181	109.69969
6750.00000	109.64758	-143.04525	109.64758
6800.00000	109.60410	-145.61554	109.60410
6850.00000	109.57124	-148.12192	109.57124
6900.00000	109.52788	-150.80855	109.52788
6950.00000	109.48703	-153.36677	109.48703
7000.00000	109.45384	-155.99133	109.45384
7050.00000	109.40981	-158.79546	109.40981
7100.00000	109.37766	-161.57311	109.37766
7150.00000	109.35645	-164.31531	109.35645
7200.00000	109.30401	-167.26045	109.30401
7250.00000	109.23589	-170.12930	109.23589
7300.00000	109.20618	-173.15557	109.20618
7350.00000	109.13912	-176.01472	109.13912
7400.00000	109.08053	-179.19400	109.08053
7450.00000	108.99527	-182.28779	108.99527
7500.00000	108.92559	-185.43449	108.92559
7550.00000	108.84600	-188.37412	108.84600
7600.00000	108.71289	-191.47184	108.71289
7650.00000	108.59109	-194.52187	108.59109
7700.00000	108.50657	-197.64858	108.50657
7750.00000	108.34094	-200.60769	108.34094
7800.00000	108.18648	-203.50079	108.18648
7850.00000	108.03456	-206.30574	108.03456
7900.00000	107.85912	-209.10482	107.85912
7950.00000	107.73012	-211.75377	107.73012
8000.00000	107.57353	-214.46259	107.57353
8050.00000	107.43064	-217.29318	107.43064
8100.00000	107.29871	-219.35540	107.29871
8150.00000	107.13378	-221.74533	107.13378
8200.00000	106.99823	-223.83604	106.99823
8250.00000	106.85170	-226.02062	106.85170
8300.00000	106.71909	-228.05173	106.71909
8350.00000	106.59285	-229.87209	106.59285
8400.00000	106.43839	-232.22500	106.43839
8450.00000	106.27172	-234.23238	106.27172
8500.00000	106.12771	-236.64984	106.12771
8550.00000	106.06648	-238.68590	106.06648
8600.00000	105.96427	-241.34975	105.96427
8650.00000	105.87716	-243.87061	105.87716
8700.00000	105.84327	-247.05240	105.84327
8750.00000	105.79347	-248.88846	105.79347
8800.00000	105.78737	-252.04095	105.78737
8850.00000	105.76935	-254.76294	105.76935
8900.00000	105.73849	-257.42766	105.73849
8950.00000	105.70546	-260.49318	105.70546
9000.00000	105.53373	-263.30793	105.53373
9050.00000	105.42705	-266.34408	105.42705
9100.00000	105.29686	-269.17167	105.29686
9150.00000	105.15018	-272.10222	105.15018
9200.00000	105.06820	-275.65700	105.06820
9250.00000	104.87785	-278.95660	104.87785
9300.00000	104.77244	-282.15546	104.77244
9350.00000	104.71302	-285.17274	104.71302
9400.00000	104.56369	-287.90222	104.56369
9450.00000	104.49832	-290.51442	104.49832
9500.00000	104.45292	-292.30460	104.45292
9550.00000	104.46795	-294.44170	104.46795
9600.00000	104.51944	-297.51140	104.51944
9650.00000	104.33535	-300.55667	104.33535
9700.00000	104.17911	-302.91949	104.17911
9750.00000	104.03273	-306.40527	104.03273
9800.00000	103.82893	-309.04701	103.82893
9850.00000	103.64691	-312.03582	103.64691
9900.00000	103.31816	-315.34275	103.31816
9950.00000	103.18249	-318.15278	103.18249
10000.00000	103.01183	-321.70531	103.01183
10050.00000	102.81547	-324.44560	102.81547
10100.00000	102.59246	-327.19209	102.59246
10150.00000	102.29126	-330.38915	102.29126
10200.00000	102.06697	-333.19433	102.06697
10250.00000	101.77590	-336.39720	101.77590
10300.00000	101.54388	-339.61623	101.54388
10350.00000	101.22969	-342.54732	101.22969
10400.00000	100.88765	-345.92544	100.88765
10450.00000	100.69308	-349.48660	100.69308
10500.00000	100.49211	-352.90857	100.49211
10550.00000	100.25079	-356.05950	100.25079
10600.00000	99.97128	-359.06063	99.97128
10650.00000	99.65330	-361.44834	99.65330
10700.00000	99.33973	-364.87978	99.33973
10750.00000	99.00954	-367.43721	99.00954
10800.00000	98.53836	-369.89447	98.53836
10850.00000	98.10867	-373.26793	98.10867
10900.00000	97.65366	-375.55049	97.65366
10950.00000	97.21822	-377.56648	97.21822
11000.00000	96.74808	-379.82912	96.74808
11050.00000	96.16680	-381.50429	96.16680
11100.00000	95.69765	-383.75974	95.69765
11150.00000	95.15995	-384.61741	95.15995
11200.00000	94.73361	-385.74614	94.73361
11250.00000	94.16096	-386.81598	94.16096
11300.00000	93.60964	-387.74695	93.60964
11350.00000	93.11404	-387.95154	93.11404
11400.00000	92.59368	-388.67001	92.59368
11450.00000	92.14047	-389.46982	92.14047
11500.00000	91.88468	-388.93969	91.88468
11550.00000	91.44624	-388.69547	91.44624
11600.00000	91.20966	-389.04129	91.20966
11650.00000	90.82868	-387.82311	90.82868
11700.00000	90.63397	-387.22150	90.63397
11750.00000	90.41749	-387.07061	90.41749
11800.00000	90.16365	-387.21051	90.16365
11850.00000	90.05350	-385.43592	90.05350
11900.00000	89.74115	-385.75380	89.74115
11950.00000	89.59416	-385.30290	89.59416
12000.00000	89.38028	-384.66312	89.38028
12050.00000	89.17450	-383.72127	89.17450
12100.00000	89.13987	-384.27382	89.13987
12150.00000	89.06649	-384.22729	89.06649
12200.00000	89.10717	-384.36224	89.10717
12250.00000	89.04011	-384.11204	89.04011
12300.00000	90.17237	-384.39323	90.17237
12350.00000	89.06027	-384.30828	89.06027
12400.00000	89.01801	-383.66363	89.01801
12450.00000	88.99709	-383.51631	88.99709
12500.00000	88.88757	-384.39040	88.88757
12550.00000	88.89246	-384.95093	88.89246
12600.00000	88.73321	-386.10552	88.73321
12650.00000	88.94422	-386.95068	88.94422
12700.00000	88.90406	-386.95706	88.90406
12750.00000	88.85106	-388.91028	88.85106
12800.00000	88.77335	-389.11175	88.77335
12850.00000	88.49372	-389.84882	88.49372
12900.00000	88.45840	-390.71141	88.45840
12950.00000	88.45536	-392.18105	88.45536
13000.00000	88.40321	-393.94418	88.40321
13050.00000	88.45314	-393.55624	88.45314
13100.00000	88.25293	-394.13554	88.25293
13150.00000	88.14545	-395.50826	88.14545
13200.00000	88.15990	-395.07769	88.15990
13250.00000	87.93461	-395.61320	87.93461
13300.00000	87.86916	-394.33326	87.86916
13350.00000	87.84610	-396.22811	87.84610
13400.00000	87.93106	-396.35918	87.93106
13450.00000	87.71105	-395.77390	87.71105
13500.00000	87.71352	-394.75978	87.71352
13550.00000	87.47700	-395.49205	87.47700
13600.00000	87.46732	-396.07197	87.46732
13650.00000	87.44764	-395.65505	87.44764
13700.00000	87.22076	-396.19265	87.22076
13750.00000	87.14706	-396.63718	87.14706
13800.00000	87.08582	-398.50131	87.08582
13850.00000	87.06112	-399.27542	87.06112
13900.00000	86.69271	-398.48584	86.69271
13950.00000	86.71194	-398.94029	86.71194
14000.00000	86.84698	-396.55927	86.84698
14050.00000	86.87871	-397.23367	86.87871
14100.00000	86.73510	-396.30026	86.73510
14150.00000	86.78638	-396.36287	86.78638
14200.00000	86.83977	-395.14849	86.83977
14250.00000	87.24562	-393.17645	87.24562
14300.00000	87.10027	-392.58964	87.10027
14350.00000	87.19667	-391.36926	87.19667
14400.00000	87.01703	-389.95039	87.01703
14450.00000	87.07663	-386.93212	87.07663
14500.00000	87.21666	-386.83453	87.21666
14550.00000	87.35070	-386.53652	87.35070
14600.00000	87.50137	-385.40832	87.50137
14650.00000	88.00424	-383.00152	88.00424
14700.00000	88.22854	-386.17242	88.22854
14750.00000	88.50154	-384.06760	88.50154
14800.00000	88.65065	-382.54550	88.65065
14850.00000	89.18422	-381.80274	89.18422
14900.00000	89.77507	-381.78104	89.77507
14950.00000	89.94021	-381.78713	89.94021
15000.00000	90.59238	-381.09462	90.59238
15050.00000	90.91694	-379.73947	90.91694
15100.00000	91.25644	-379.12352	91.25644
15150.00000	91.77060	-380.23157	91.77060
15200.00000	92.17532	-379.28590	92.17532
15250.00000	92.46706	-380.29915	92.46706
15300.00000	93.12943	-380.95316	93.12943
15350.00000	93.59191	-382.58762	93.59191
15400.00000	94.04604	-382.36125	94.04604
15450.00000	94.52936	-383.60090	94.52936
15500.00000	95.13327	-385.21321	95.13327
15550.00000	95.60489	-386.66310	95.60489
15600.00000	96.13527	-388.35031	96.13527
15650.00000	96.76668	-388.42384	96.76668
15700.00000	97.10600	-391.33179	97.10600
15750.00000	97.75430	-392.97785	97.75430
15800.00000	98.32818	-394.46534	98.32818
15850.00000	98.77755	-396.94029	98.77755
15900.00000	99.20646	-399.87221	99.20646
15950.00000	99.74229	-402.56440	99.74229
16000.00000	100.21251	-405.05929	100.21251
16050.00000	100.78494	-408.08839	100.78494
16100.00000	101.05121	-411.38073	101.05121
16150.00000	101.40595	-414.54994	101.40595
16200.00000	101.83230	-418.60651	101.83230
16250.00000	102.24305	-421.64516	102.24305
16300.00000	102.75466	-425.18208	102.75466
16350.00000	103.05559	-428.76221	103.05559
16400.00000	103.38557	-431.72917	103.38557
16450.00000	103.65987	-435.15938	103.65987
16500.00000	103.95164	-438.94604	103.95164
16550.00000	104.31195	-443.03822	104.31195
16600.00000	104.58955	-446.38566	104.58955
16650.00000	104.80069	-449.92979	104.80069
16700.00000	105.07409	-453.22118	105.07409
16750.00000	105.22755	-457.10863	105.22755
16800.00000	105.47435	-461.15451	105.47435
16850.00000	105.78195	-464.64341	105.78195
16900.00000	106.00011	-468.23647	106.00011
16950.00000	106.22940	-471.85718	106.22940
17000.00000	106.30359	-475.47671	106.30359
17050.00000	106.53194	-478.35225	106.53194
17100.00000	106.67245	-481.16484	106.67245
17150.00000	106.98034	-485.38374	106.98034
17200.00000	107.18033	-488.75508	107.18033
17250.00000	107.31060	-492.80866	107.31060
17300.00000	107.58694	-496.26809	107.58694
17350.00000	107.63695	-499.64092	107.63695
17400.00000	107.91879	-503.33957	107.91879
17450.00000	108.04071	-507.41244	108.04071
17500.00000	108.24257	-511.07313	108.24257
17550.00000	108.42860	-514.92725	108.42860
17600.00000	108.68048	-518.33887	108.68048
17650.00000	108.83549	-523.13704	108.83549
17700.00000	108.96363	-527.16905	108.96363
17750.00000	109.25765	-530.57531	109.25765
17800.00000	109.27913	-535.32759	109.27913
17850.00000	109.43160	-539.02067	109.43160
17900.00000	109.55325	-543.38280	109.55325
17950.00000	109.74916	-547.95968	109.74916
18000.00000	109.83605	-552.87736	109.83605
18050.00000	110.06712	-556.68095	110.06712
18100.00000	110.06043	-561.69094	110.06043
18150.00000	110.13260	-565.60508	110.13260
18200.00000	110.12839	-570.68249	110.12839
18250.00000	110.25275	-574.56502	110.25275
18300.00000	110.32194	-579.17844	110.32194
18350.00000	110.35423	-583.61236	110.35423
18400.00000	110.29735	-588.52146	110.29735
18450.00000	110.24538	-594.21126	110.24538
18500.00000	110.24809	-598.69271	110.24809
18550.00000	110.19237	-602.71851	110.19237
18600.00000	110.23851	-607.85599	110.23851
18650.00000	110.03710	-612.04641	110.03710
18700.00000	109.94093	-617.17899	109.94093
18750.00000	109.89791	-621.63648	109.89791
18800.00000	109.89364	-625.54200	109.89364
18850.00000	109.65736	-630.37389	109.65736
18900.00000	109.50142	-634.70935	109.50142
18950.00000	109.38506	-639.61777	109.38506
19000.00000	109.09151	-643.60009	109.09151
19050.00000	109.05436	-648.03825	109.05436
19100.00000	108.82787	-652.24158	108.82787
19150.00000	108.76892	-656.27664	108.76892
19200.00000	108.55968	-660.16091	108.55968
19250.00000	108.34170	-665.43721	108.34170
19300.00000	108.06166	-668.95197	108.06166
19350.00000	107.88249	-673.29527	107.88249
19400.00000	107.60143	-677.16639	107.60143
19450.00000	107.43452	-680.84388	107.43452
19500.00000	107.11106	-685.77441	107.11106
19550.00000	106.87899	-689.75161	106.87899
19600.00000	106.66258	-694.29776	106.66258
19650.00000	106.29424	-697.88325	106.29424
19700.00000	105.91239	-701.96390	105.91239
19750.00000	105.57122	-705.37183	105.57122
19800.00000	105.31508	-710.10478	105.31508
19850.00000	104.99027	-713.63223	104.99027
19900.00000	104.55422	-718.10672	104.55422
19950.00000	104.13295	-721.74995	104.13295
20000.00000	103.72809	-725.23686	103.72809
20050.00000	103.30334	-728.92273	103.30334
20100.00000	102.79657	-732.40667	102.79657
20150.00000	102.36172	-734.88000	102.36172
20200.00000	101.83445	-738.93188	101.83445
20250.00000	101.28026	-741.79980	101.28026
20300.00000	100.67710	-744.75943	100.67710
20350.00000	100.19736	-747.53721	100.19736
20400.00000	99.56763	-749.25085	99.56763
20450.00000	98.91118	-751.68825	98.91118
20500.00000	98.36772	-754.16462	98.36772
20550.00000	97.51965	-754.91184	97.51965
20600.00000	97.00753	-756.10785	97.00753
20650.00000	96.37553	-756.99249	96.37553
20700.00000	95.67552	-757.72250	95.67552
20750.00000	95.12263	-757.92769	95.12263
20800.00000	94.45553	-757.56472	94.45553
20850.00000	93.94728	-757.08251	93.94728
20900.00000	93.31581	-756.15080	93.31581
20950.00000	92.81479	-754.63643	92.81479
21000.00000	92.37427	-752.82939	92.37427
21050.00000	92.10695	-750.89643	92.10695
21100.00000	91.76471	-748.58963	91.76471
21150.00000	91.52807	-746.58934	91.52807
21200.00000	91.37841	-744.15170	91.37841
21250.00000	91.33941	-743.23247	91.33941
21300.00000	91.34108	-740.48855	91.34108
21350.00000	91.30541	-739.01446	91.30541
21400.00000	91.33332	-737.70030	91.33332
21450.00000	91.42100	-736.43272	91.42100
21500.00000	91.57437	-735.87225	91.57437
21550.00000	91.61408	-735.05566	91.61408
21600.00000	91.88145	-734.35932	91.88145
21650.00000	91.92267	-734.70185	91.92267
21700.00000	91.99264	-734.24333	91.99264
21750.00000	92.25539	-734.76178	92.25539
21800.00000	92.40860	-734.98716	92.40860
21850.00000	92.41014	-734.82216	92.41014
21900.00000	92.60677	-735.18977	92.60677
21950.00000	92.76053	-736.51543	92.76053
22000.00000	92.94922	-736.82935	92.94922
22050.00000	93.14397	-737.33643	93.14397
22100.00000	93.20948	-738.04020	93.20948
22150.00000	93.35510	-739.46101	93.35510
22200.00000	93.56810	-739.36875	93.56810
22250.00000	93.68486	-740.45050	93.68486
22300.00000	93.77912	-740.77135	93.77912
22350.00000	93.95065	-742.79257	93.95065
22400.00000	94.11908	-743.37054	94.11908
22450.00000	94.20656	-744.66710	94.20656
22500.00000	94.35024	-745.27521	94.35024
22550.00000	94.53095	-746.75411	94.53095
22600.00000	94.61923	-748.75893	94.61923
22650.00000	94.83477	-750.74596	94.83477
22700.00000	94.92091	-751.69905	94.92091
22750.00000	94.96226	-750.87569	94.96226
22800.00000	95.24716	-755.16105	95.24716
22850.00000	95.41540	-757.15042	95.41540
22900.00000	95.47539	-757.68875	95.47539
22950.00000	95.64302	-759.07010	95.64302
23000.00000	95.85195	-759.58712	95.85195
23050.00000	95.84603	-762.29239	95.84603
23100.00000	96.04218	-763.18829	96.04218
23150.00000	96.04516	-764.45636	96.04516
23200.00000	96.34483	-766.88116	96.34483
23250.00000	96.32843	-769.89232	96.32843
23300.00000	96.84240	-771.73292	96.84240
23350.00000	96.63329	-774.37660	96.63329
23400.00000	96.76815	-776.49940	96.76815
23450.00000	96.97981	-777.88904	96.97981
23500.00000	97.04674	-779.35364	97.04674
23550.00000	97.15038	-779.22645	97.15038
23600.00000	97.11085	-784.27124	97.11085
23650.00000	97.46715	-785.39044	97.46715
23700.00000	97.58701	-788.86647	97.58701
23750.00000	97.67770	-789.95202	97.67770
23800.00000	97.56611	-790.00292	97.56611
23850.00000	97.81498	-792.32043	97.81498
23900.00000	98.32064	-794.76073	98.32064
23950.00000	98.09369	-798.25374	98.09369
24000.00000	98.01984	-801.12584	98.01984
24050.00000	98.40755	-801.64892	98.40755
24100.00000	98.82311	-804.85242	98.82311
24150.00000	98.93318	-807.38674	98.93318
24200.00000	99.14849	-811.48020	99.14849
24250.00000	98.82227	-811.51233	98.82227
24300.00000	99.60131	-813.83112	99.60131
24350.00000	99.32316	-817.80950	99.32316
24400.00000	99.38436	-821.09757	99.38436
24450.00000	99.30573	-822.80782	99.30573
24500.00000	99.87001	-824.58428	99.87001
24550.00000	99.65907	-469.95353	99.65907
24600.00000	100.37008	-111.16828	100.37008
24650.00000	100.06619	244.32587	100.06619
24700.00000	100.03332	604.04437	100.03332
24750.00000	100.28412	958.17282	100.28412
24800.00000	100.32489	1315.64866	100.32489
24850.00000	100.06265	1674.02174	100.06265
24900.00000	100.27142	2032.12864	100.27142
24950.00000	100.65756	2386.23365	100.65756
25000.00000	100.58268	2380.38520	100.58268
25050.00000	101.22812	2379.58760	101.22812
25100.00000	100.08875	2376.49440	100.08875
25150.00000	100.71269	2374.69142	100.71269
25200.00000	100.36440	2370.73770	100.36440
25250.00000	100.42797	2369.77386	100.42797
25300.00000	100.56375	2368.09021	100.56375
25350.00000	100.48492	2361.36536	100.48492
25400.00000	100.50226	2358.29426	100.50226
25450.00000	100.58577	2356.05406	100.58577
25500.00000	100.20327	2355.85499	100.20327
25550.00000	100.28217	2351.36744	100.28217
25600.00000	100.44520	2349.43655	100.44520
25650.00000	100.18046	2346.82276	100.18046
25700.00000	100.38044	2344.25662	100.38044
25750.00000	100.23350	2342.09470	100.23350
25800.00000	100.12193	2338.03971	100.12193
25850.00000	100.23545	2335.75243	100.23545
25900.00000	100.19553	2333.25846	100.19553
25950.00000	100.04802	2334.29695	100.04802
26000.00000	100.09142	2329.65406	100.09142
26050.00000	99.99927	2327.04416	99.99927
26100.00000	100.12269	2325.18615	100.12269
26150.00000	100.04372	2322.84876	100.04372
26200.00000	100.20885	2319.98024	100.20885
26250.00000	100.04309	2318.22765	100.04309
26300.00000	100.20288	2314.78530	100.20288
26350.00000	99.86027	2314.30073	99.86027
26400.00000	100.02237	2311.26879	100.02237
26450.00000	100.34154	2308.22304	100.34154
26500.00000	100.10548	2305.85805	100.10548
26550.00000	100.10622	2300.55976	100.10622
26600.00000	100.09102	2298.19831	100.09102
26650.00000	100.24183	2298.28240	100.24183
26700.00000	100.20782	2295.42418	100.20782
26750.00000	100.09277	2292.33383	100.09277
26800.00000	100.06167	2286.21190	100.06167
26850.00000	100.34941	2286.10835	100.34941
26900.00000	100.31599	2283.91307	100.31599
26950.00000	100.50423	2280.05444	100.50423
27000.00000	100.00921	2278.06157	100.00921
27050.00000	100.42339	2274.18110	100.42339
27100.00000	100.14889	2272.39050	100.14889
27150.00000	100.14434	2268.68685	100.14434
27200.00000	100.28502	2266.21240	100.28502
27250.00000	99.88481	2263.62517	99.88481
27300.00000	99.71674	2259.51935	99.71674
27350.00000	99.92505	2258.46458	99.92505
27400.00000	99.42532	2254.88290	99.42532
27450.00000	99.47749	2252.22001	99.47749
27500.00000	99.36386	2250.06416	99.36386
27550.00000	99.47513	2246.29442	99.47513
27600.00000	99.73704	2242.82116	99.73704
27650.00000	99.07160	2241.83693	99.07160
27700.00000	99.23082	2235.63342	99.23082
27750.00000	99.19200	2231.69664	99.19200
27800.00000	99.15463	2227.00963	99.15463
27850.00000	99.20116	2228.81988	99.20116
27900.00000	98.77764	2226.27097	98.77764
27950.00000	98.04325	2221.08887	98.04325
28000.00000	98.08627	2219.36424	98.08627
28050.00000	98.60047	2216.14860	98.60047
28100.00000	97.85936	2213.20138	97.85936
28150.00000	97.77393	2211.41330	97.77393
28200.00000	97.92074	2204.83732	97.92074
28250.00000	97.40071	2201.57310	97.40071
28300.00000	96.95043	2199.24126	96.95043
28350.00000	97.10709	2196.62280	97.10709
28400.00000	96.86077	2195.35132	96.86077
28450.00000	97.30615	2190.23966	97.30615
28500.00000	96.79531	2188.45649	96.79531
28550.00000	96.33114	2187.68061	96.33114
28600.00000	95.95832	2184.55653	95.95832
28650.00000	96.21203	2178.27703	96.21203
28700.00000	95.81137	2176.92508	95.81137
28750.00000	96.33819	2175.25602	96.33819
28800.00000	95.85399	2171.51681	95.85399
28850.00000	95.13710	2164.84225	95.13710
28900.00000	95.09358	2163.88615	95.09358
28950.00000	94.57149	2159.98275	94.57149
29000.00000	94.54522	2156.64727	94.54522
29050.00000	94.12838	2155.17391	94.12838
29100.00000	94.06974	2151.37313	94.06974
29150.00000	93.81498	2148.67814	93.81498
29200.00000	92.99497	2144.95442	92.99497
29250.00000	93.18722	2142.77704	93.18722
29300.00000	92.40427	2136.65266	92.40427
29350.00000	92.53304	2133.62850	92.53304
29400.00000	92.04530	2130.86685	92.04530
29450.00000	91.90693	2125.40476	91.90693
29500.00000	91.92000	2126.08883	91.92000
29550.00000	91.36641	2118.16043	91.36641
29600.00000	90.72601	2117.28024	90.72601
29650.00000	90.57388	2111.56822	90.57388
29700.00000	90.13605	2111.19619	90.13605
29750.00000	89.66469	2106.41415	89.66469
29800.00000	89.16132	2105.29350	89.16132
29850.00000	89.11983	2100.27655	89.11983
29900.00000	88.55114	2098.72187	88.55114
29950.00000	87.89709	2096.99410	87.89709
30000.00000	88.24786	2095.85847	88.24786
30050.00000	87.73986	2089.96367	87.73986
30100.00000	87.15420	2093.04927	87.15420
30150.00000	86.82607	2085.55309	86.82607
30200.00000	86.71693	2086.05377	86.71693
30250.00000	86.30968	2082.55002	86.30968
30300.00000	85.54172	2085.79633	85.54172
30350.00000	85.73724	2085.65868	85.73724
30400.00000	85.66005	2082.61619	85.66005
30450.00000	84.79090	2082.54794	84.79090
30500.00000	84.69784	2082.73156	84.69784
30550.00000	84.10460	2084.47102	84.10460
30600.00000	84.01960	2086.97583	84.01960
30650.00000	84.06441	2086.52179	84.06441
30700.00000	83.99765	2083.75002	83.99765
30750.00000	84.01331	2088.01583	84.01331
30800.00000	84.11575	2088.11774	84.11575
30850.00000	84.02719	2092.97021	84.02719
30900.00000	83.91665	2097.10626	83.91665
30950.00000	84.27190	2094.82222	84.27190
31000.00000	84.64767	2094.52385	84.64767
31050.00000	84.96884	2100.59346	84.96884
31100.00000	85.52860	2101.16253	85.52860
31150.00000	85.23537	2103.03724	85.23537
31200.00000	86.14278	2106.35520	86.14278
31250.00000	86.30438	2105.03635	86.30438
31300.00000	86.86280	2110.73985	86.86280
31350.00000	87.12378	2108.95660	87.12378
31400.00000	88.00886	2108.08047	88.00886
31450.00000	88.38841	2106.84979	88.38841
31500.00000	88.70607	2107.15556	88.70607
31550.00000	89.06564	2108.94728	89.06564
31600.00000	89.29976	2107.71392	89.29976
31650.00000	89.82128	2107.33182	89.82128
31700.00000	90.04438	2107.56075	90.04438
31750.00000	90.93809	2106.74729	90.93809
31800.00000	91.34463	2105.39777	91.34463
31850.00000	91.47900	2103.75139	91.47900
31900.00000	91.52763	2101.65069	91.52763
31950.00000	92.23689	2100.65982	92.23689
32000.00000	91.95895	2099.67863	91.95895
32050.00000	92.63424	2101.22343	92.63424
32100.00000	92.97126	2097.95848	92.97126
32150.00000	93.16597	2097.13752	93.16597
32200.00000	93.55753	2097.18761	93.55753
32250.00000	93.71682	2095.00231	93.71682
32300.00000	93.72430	2092.04999	93.72430
32350.00000	93.90307	2093.91988	93.90307
32400.00000	94.41689	2090.83710	94.41689
32450.00000	94.20780	2091.94611	94.20780
32500.00000	94.29822	2087.86082	94.29822
32550.00000	94.55043	2087.76417	94.55043
32600.00000	94.90530	2087.07518	94.90530
32650.00000	95.02662	2087.06978	95.02662
32700.00000	94.97085	2086.08567	94.97085
32750.00000	95.38946	2083.70984	95.38946
32800.00000	95.74738	2081.95535	95.74738
32850.00000	95.84936	2081.68344	95.84936
32900.00000	95.89420	2080.55254	95.89420
32950.00000	96.08384	2075.77706	96.08384
33000.00000	96.44060	2077.37063	96.44060
33050.00000	96.32976	2075.24939	96.32976
33100.00000	96.50898	2074.20573	96.50898
33150.00000	96.60308	2074.60996	96.60308
33200.00000	97.09954	2075.25641	97.09954
33250.00000	96.97865	2071.67763	96.97865
33300.00000	96.95104	2068.58957	96.95104
33350.00000	97.38306	2069.59251	97.38306
33400.00000	97.56781	2066.26504	97.56781
33450.00000	97.55546	2063.31934	97.55546
33500.00000	97.70872	2064.83871	97.70872
33550.00000	97.25739	2062.49494	97.25739
33600.00000	97.80111	2060.18231	97.80111
33650.00000	98.08692	2058.06420	98.08692
33700.00000	98.12046	2057.97343	98.12046
33750.00000	98.00145	2057.08009	98.00145
33800.00000	98.03385	2056.34147	98.03385
33850.00000	98.18679	2054.79618	98.18679
33900.00000	98.50435	2053.56484	98.50435
33950.00000	98.56905	2050.77987	98.56905
34000.00000	98.47191	2048.93136	98.47191
34050.00000	98.53692	2046.86096	98.53692
34100.00000	98.53959	2048.04574	98.53959
34150.00000	98.58953	2045.28624	98.58953
34200.00000	98.70281	2045.63476	98.70281
34250.00000	98.86470	2043.30435	98.86470
34300.00000	98.68477	2043.31370	98.68477
34350.00000	98.85219	2042.22819	98.85219
34400.00000	98.83325	2041.89610	98.83325
34450.00000	99.02083	2038.40442	99.02083
34500.00000	98.66672	2038.32238	98.66672
34550.00000	99.19008	2038.17111	99.19008
34600.00000	98.75420	2034.33937	98.75420
34650.00000	99.04039	2038.04716	99.04039
34700.00000	98.85570	2038.92637	98.85570
34750.00000	99.11540	2031.82721	99.11540
34800.00000	99.17544	2035.63982	99.17544
34850.00000	99.74260	2035.90572	99.74260
34900.00000	99.86109	2032.69618	99.86109
34950.00000	99.75851	2032.92537	99.75851
35000.00000	99.84599	2033.45819	99.84599
35050.00000	99.92176	2033.08358	99.92176
35100.00000	100.08764	2029.89477	100.08764
35150.00000	100.01196	2032.12551	100.01196
35200.00000	100.37884	2030.89466	100.37884
35250.00000	100.41194	2029.62191	100.41194
35300.00000	100.58807	2029.27237	100.58807
35350.00000	100.51685	2030.47045	100.51685
35400.00000	100.98106	2030.31173	100.98106
35450.00000	101.27819	2030.03038	101.27819
35500.00000	101.23496	2029.19929	101.23496
35550.00000	101.48318	2029.70914	101.48318
35600.00000	101.58540	2028.51163	101.58540
35650.00000	102.13839	2028.44600	102.13839
35700.00000	102.37571	2026.62717	102.37571
35750.00000	102.15128	2028.34821	102.15128
35800.00000	102.46980	2028.62215	102.46980
35850.00000	103.10199	2027.61695	103.10199
35900.00000	103.54650	2026.48414	103.54650
35950.00000	103.60814	2025.68382	103.60814
36000.00000	104.20891	2024.50711	104.20891
36050.00000	104.38694	2023.47179	104.38694
36100.00000	104.79842	2021.90326	104.79842
36150.00000	104.75712	2021.59813	104.75712
36200.00000	105.49181	2020.61663	105.49181
36250.00000	105.97037	2021.40233	105.97037
36300.00000	105.80632	2018.57419	105.80632
36350.00000	106.23251	2016.40211	106.23251
36400.00000	106.64865	2014.74138	106.64865
36450.00000	106.91180	2013.69294	106.91180
36500.00000	107.38262	2011.62185	107.38262
36550.00000	107.44721	2009.14529	107.44721
36600.00000	107.75095	2007.32443	107.75095
36650.00000	108.14584	2005.76281	108.14584
36700.00000	108.59896	2002.72523	108.59896
36750.00000	108.73381	2000.26701	108.73381
36800.00000	109.00431	1998.43497	109.00431
36850.00000	109.15531	1995.62914	109.15531
36900.00000	109.72137	1992.55784	109.72137
36950.00000	109.65515	1989.54118	109.65515
37000.00000	109.75639	1988.36299	109.75639
37050.00000	109.98627	1986.30807	109.98627
37100.00000	110.56682	1981.34754	110.56682
37150.00000	110.94782	1978.59870	110.94782
37200.00000	111.17212	1975.90056	111.17212
37250.00000	111.14769	1972.24871	111.14769
37300.00000	111.41835	1969.49521	111.41835
37350.00000	111.90515	1965.88105	111.90515
37400.00000	111.99733	1963.20749	111.99733
37450.00000	112.10479	1959.92984	112.10479
37500.00000	112.74312	1955.33798	112.74312
37550.00000	112.78643	1952.73324	112.78643
37600.00000	113.22369	1948.42246	113.22369
37650.00000	113.44705	1944.12557	113.44705
37700.00000	113.85808	1938.86902	113.85808
37750.00000	114.14246	1934.99781	114.14246
37800.00000	114.37717	1929.64274	114.37717
37850.00000	114.64786	1923.84324	114.64786
37900.00000	114.98725	1919.22237	114.98725
37950.00000	115.34980	1915.29095	115.34980
38000.00000	115.58345	1909.73647	115.58345
38050.00000	116.00158	1903.62156	116.00158
38100.00000	116.39532	1896.99501	116.39532
38150.00000	116.58905	1890.50575	116.58905
38200.00000	117.03858	1883.88285	117.03858
38250.00000	117.28261	1877.57336	117.28261
38300.00000	117.60870	1870.06547	117.60870
38350.00000	117.77778	1864.01691	117.77778
38400.00000	117.96819	1856.79014	117.96819
38450.00000	118.18938	1849.32524	118.18938
38500.00000	118.35451	1841.71355	118.35451
38550.00000	118.51876	1835.48140	118.51876
38600.00000	118.62437	1828.49438	118.62437
38650.00000	118.76443	1821.03461	118.76443
38700.00000	118.75010	1813.74914	118.75010
38750.00000	118.81016	1806.82803	118.81016
38800.00000	118.83518	1799.66439	118.83518
38850.00000	118.83313	1791.96029	118.83313
38900.00000	118.78910	1784.47013	118.78910
38950.00000	118.66456	1777.40069	118.66456
39000.00000	118.55707	1770.19467	118.55707
39050.00000	118.40989	1763.31296	118.40989
39100.00000	118.10284	1756.52436	118.10284
39150.00000	117.85401	1749.93469	117.85401
39200.00000	117.61370	1743.60274	117.61370
39250.00000	117.32211	1736.89482	117.32211
39300.00000	117.02130	1730.34355	117.02130
39350.00000	116.61033	1724.72795	116.61033
39400.00000	116.22675	1718.39203	116.22675
39450.00000	115.76347	1713.04194	115.76347
39500.00000	115.38826	1707.01706	115.38826
39550.00000	114.88677	1701.13928	114.88677
39600.00000	114.32256	1696.21588	114.32256
39650.00000	113.81189	1691.85268	113.81189
39700.00000	113.16511	1686.76807	113.16511
39750.00000	112.65425	1682.33843	112.65425
39800.00000	112.07538	1678.08893	112.07538
39850.00000	111.41933	1674.07144	111.41933
39900.00000	110.86556	1671.23668	110.86556
39950.00000	110.24448	1667.45404	110.24448
40000.00000	109.38654	1665.07094	109.38654
40050.00000	108.93905	1661.00200	108.93905
40100.00000	108.37855	1658.20970	108.37855
40150.00000	107.74282	1656.05901	107.74282
40200.00000	106.93132	1653.54919	106.93132
40250.00000	106.34003	1651.33058	106.34003
40300.00000	105.87061	1650.02105	105.87061
40350.00000	104.96165	1649.35113	104.96165
40400.00000	104.35709	1648.04584	104.35709
40450.00000	103.55339	1647.72164	103.55339
40500.00000	103.06318	1647.11885	103.06318
40550.00000	102.34866	1645.81108	102.34866
40600.00000	101.74574	1645.93103	101.74574
40650.00000	101.08340	1646.42402	101.08340
40700.00000	100.40992	1646.45256	100.40992
40750.00000	100.11093	1646.78272	100.11093
40800.00000	99.41440	1646.56612	99.41440
40850.00000	98.62551	1649.90132	98.62551
40900.00000	98.05428	1649.89486	98.05428
40950.00000	97.50360	1654.69062	97.50360
41000.00000	96.55793	1656.55721	96.55793
41050.00000	96.50521	1656.47902	96.50521
41100.00000	95.82370	1658.65068	95.82370
41150.00000	95.81099	1665.07871	95.81099
41200.00000	95.79877	1664.83049	95.79877
41250.00000	94.67494	1666.86531	94.67494
41300.00000	94.61615	1668.19939	94.61615
41350.00000	93.94717	1674.79304	93.94717
41400.00000	93.36937	1672.12656	93.36937
41450.00000	93.24468	1676.35844	93.24468
41500.00000	92.86447	1679.82545	92.86447
41550.00000	92.57059	1688.57430	92.57059
41600.00000	91.32121	1691.37186	91.32121
41650.00000	92.86308	1694.08341	92.86308
41700.00000	92.16109	1706.46246	92.16109
41750.00000	91.97430	1700.88917	91.97430
41800.00000	89.52053	1701.06486	89.52053
41850.00000	89.85224	1712.07963	89.85224
41900.00000	87.42103	1705.78185	87.42103
41950.00000	89.89088	1729.96581	89.89088
42000.00000	88.54367	1739.54586	88.54367
42050.00000	87.35506	1730.62984	87.35506
42100.00000	88.23390	1742.59471	88.23390
42150.00000	84.03807	1745.04557	84.03807
42200.00000	86.64236	1774.49572	86.64236
42250.00000	83.55682	1761.54564	83.55682
42300.00000	85.45189	1776.59716	85.45189
42350.00000	86.58296	1775.87566	86.58296
42400.00000	84.35070	1799.68314	84.35070
42450.00000	84.71791	1798.74577	84.71791
42500.00000	85.65359	1784.31069	85.65359
42550.00000	87.34143	1821.32504	87.34143
42600.00000	86.49717	1821.79232	86.49717
42650.00000	86.61697	1822.67514	86.61697
42700.00000	86.02988	1845.53059	86.02988
42750.00000	87.22965	1845.51752	87.22965
42800.00000	89.36919	1855.70118	89.36919
42850.00000	88.21607	1867.15491	88.21607
42900.00000	91.11107	1883.33566	91.11107
42950.00000	89.59859	1863.46326	89.59859
43000.00000	91.32387	1880.53471	91.32387
43050.00000	89.20328	1883.45428	89.20328
43100.00000	90.72832	1891.27489	90.72832
43150.00000	86.07359	1872.06750	86.07359
43200.00000	92.13549	1895.84742	92.13549
43250.00000	92.18018	1897.67952	92.18018
43300.00000	93.40758	1886.17412	93.40758
43350.00000	94.63384	1902.12519	94.63384
43400.00000	94.61556	1900.38836	94.61556
43450.00000	95.20695	1901.81053	95.20695
43500.00000	95.14056	1893.57366	95.14056
43550.00000	97.75219	1898.27834	97.75219
43600.00000	96.63404	1891.05516	96.63404
43650.00000	98.06317	1885.56754	98.06317
43700.00000	98.04798	1892.85976	98.04798
43750.00000	98.03458	1900.35750	98.03458
43800.00000	98.30256	1890.28136	98.30256
43850.00000	98.68560	1885.42947	98.68560
43900.00000	99.44717	1888.84142	99.44717
43950.00000	99.35017	1883.87403	99.35017
44000.00000	100.17907	1885.37049	100.17907
44050.00000	100.69511	1884.41123	100.69511
44100.00000	100.71216	1875.32371	100.71216
44150.00000	101.19364	1873.36899	101.19364
44200.00000	100.63309	1871.75923	100.63309
44250.00000	102.22557	1870.71307	102.22557
44300.00000	102.02522	1865.42704	102.02522
44350.00000	101.42917	1863.33684	101.42917
44400.00000	102.20019	1857.80655	102.20019
44450.00000	103.21110	1860.05238	103.21110
44500.00000	102.99831	1860.29339	102.99831
44550.00000	104.27362	1846.92000	104.27362
44600.00000	103.31800	1850.11967	103.31800
44650.00000	102.76514	1845.36303	102.76514
44700.00000	103.30251	1843.47484	103.30251
44750.00000	103.25373	1844.70233	103.25373
44800.00000	103.68421	1840.35881	103.68421
44850.00000	103.41703	1833.99359	103.41703
44900.00000	103.58763	1831.04966	103.58763
44950.00000	103.90490	1828.66617	103.90490
45000.00000	104.08714	1818.80495	104.08714
45050.00000	102.81508	1826.99112	102.81508
45100.00000	103.87521	1816.86069	103.87521
45150.00000	103.59712	1807.10893	103.59712
45200.00000	103.81486	1810.44346	103.81486
45250.00000	103.74500	1807.50211	103.74500
45300.00000	103.63717	1802.74765	103.63717
45350.00000	103.04594	1796.40998	103.04594
45400.00000	103.50017	1796.28504	103.50017
45450.00000	103.68972	1790.87140	103.68972
45500.00000	101.97705	1785.48465	101.97705
45550.00000	102.46603	1789.88210	102.46603
45600.00000	103.47331	1780.69443	103.47331
45650.00000	101.82237	1776.98723	101.82237
45700.00000	101.97452	1773.96570	101.97452
45750.00000	102.80415	1779.89884	102.80415
45800.00000	101.72165	1768.57133	101.72165
45850.00000	101.75629	1767.58916	101.75629
45900.00000	101.42540	1766.56167	101.42540
45950.00000	101.32286	1766.03784	101.32286
46000.00000	99.66530	1748.72468	99.66530
46050.00000	100.19863	1751.34398	100.19863
46100.00000	98.99002	1754.85482	98.99002
46150.00000	99.06819	1758.25688	99.06819
46200.00000	97.28432	1746.46807	97.28432
46250.00000	98.63323	1744.07223	98.63323
46300.00000	97.35296	1743.33945	97.35296
46350.00000	98.73578	1737.63379	98.73578
46400.00000	96.62674	1736.26590	96.62674
46450.00000	95.69935	1737.00220	95.69935
46500.00000	95.49838	1738.66753	95.49838
46550.00000	95.77475	1742.64645	95.77475
46600.00000	96.15024	1746.48269	96.15024
46650.00000	94.11019	1737.56156	94.11019
46700.00000	93.71879	1746.51475	93.71879
46750.00000	94.44546	1758.12751	94.44546
46800.00000	92.63177	1751.18641	92.63177
46850.00000	94.71734	1398.41721	94.71734
46900.00000	93.45468	1391.35445	93.45468
46950.00000	94.86922	1399.32265	94.86922
47000.00000	94.25193	1399.22391	94.25193
47050.00000	95.87667	1388.08840	95.87667
47100.00000	94.70733	1388.57558	94.70733
47150.00000	95.43210	1385.15462	95.43210
47200.00000	94.81394	1389.60334	94.81394
47250.00000	96.58500	1386.50439	96.58500
47300.00000	95.71035	1374.27937	95.71035
47350.00000	94.81228	1035.47295	94.81228
47400.00000	94.17308	1028.46708	94.17308
47450.00000	95.71765	1024.07092	95.71765
47500.00000	93.81767	1015.55600	93.81767
47550.00000	93.87052	661.79065	93.87052
47600.00000	94.93853	659.03257	94.93853
47650.00000	96.55833	660.52445	96.55833
47700.00000	94.17493	653.25845	94.17493
47750.00000	93.74300	657.22261	93.74300
47800.00000	94.07777	642.88431	94.07777
47850.00000	95.04154	296.53333	95.04154
47900.00000	95.16524	-54.82074	95.16524
47950.00000	94.21412	-60.04114	94.21412
48000.00000	94.13987	-58.13705	94.13987
48050.00000	94.93963	-65.54354	94.93963
48100.00000	93.89025	-69.18793	93.89025
48150.00000	94.04689	-424.65131	94.04689
48200.00000	94.52732	-417.41161	94.52732
48250.00000	94.17200	-429.43720	94.17200
48300.00000	94.40744	-430.05374	94.40744
48350.00000	94.96544	-432.43629	94.96544
48400.00000	95.78702	-779.15713	95.78702
48450.00000	96.42017	-785.53401	96.42017
48500.00000	95.74858	-792.77857	95.74858
48550.00000	94.95981	-796.67850	94.95981
48600.00000	96.53780	-1150.67582	96.53780
48650.00000	96.53788	-1152.64333	96.53788
48700.00000	97.17673	-1160.69421	97.17673
48750.00000	95.66967	-1508.25665	95.66967
48800.00000	95.59885	-1523.20010	95.59885
48850.00000	96.53863	-1528.69483	96.53863
48900.00000	95.23289	-1877.48052	95.23289
48950.00000	96.54280	-1902.69971	96.54280
49000.00000	96.56209	-1898.43028	96.56209
49050.00000	97.05485	-1900.59912	97.05485
49100.00000	95.50787	-2268.78944	95.50787
49150.00000	96.85455	-2619.21163	96.85455
49200.00000	95.89345	-2635.83884	95.89345
49250.00000	95.15307	-2984.24288	95.15307
49300.00000	95.56694	-2639.19091	95.56694
49350.00000	92.75773	-2627.05402	92.75773
49400.00000	94.53443	-2280.33948	94.53443
49450.00000	93.46312	-1930.92085	93.46312
49500.00000	93.31695	-1575.85972	93.31695
49550.00000	93.25840	-1222.17588	93.25840
49600.00000	92.15900	-1213.21601	92.15900
49650.00000	91.34403	-1200.08848	91.34403
49700.00000	92.94917	-866.21766	92.94917
49750.00000	92.28367	-854.98660	92.28367
49800.00000	91.39111	-866.98983	91.39111
49850.00000	87.56383	-819.82929	87.56383
49900.00000	88.82304	-484.59720	88.82304
49950.00000	85.15156	-150.45910	85.15156
