---ACOUSTIC CALIBRATION---
Filename: C:\Data\AZH DATA\AZH52\RightSecondary.calib
Date: 8/27/2019 11:39:55 AM
Format: 4
Probe Tube Correction File: C:\Data\Probe Tube Calibrations\50_ProbeTube.calib
Experiment VIs: 850
EPL_CFTS.exe V12.0.1 (2012)
DAQmx V9.6

Attenuation (dB): 40.000000
Min Freq (Hz): 50.000000
Max Freq (Hz): 49950.000000
Freq Step (Hz): 50.000000
Sample Rate (Hz): 100000.000000
[Smoothing]
Method=None
MA.Iterations=0
MA.Length=0
Loess.Length=0
Loess.Type=Linear
Loess.Robust=FALSE


Freq(Hz)	Mag(dB)	Phase(deg)	Unsmoothed(dB)

50.00000	104.76148	647.20765	104.76148
100.00000	84.26567	556.16009	84.26567
150.00000	84.27441	481.95069	84.27441
200.00000	82.70005	427.74102	82.70005
250.00000	97.24803	404.49042	97.24803
300.00000	95.32668	303.30154	95.32668
350.00000	92.37798	327.91231	92.37798
400.00000	90.06576	301.40708	90.06576
450.00000	88.16338	292.33370	88.16338
500.00000	87.93572	302.15310	87.93572
550.00000	88.50942	331.73169	88.50942
600.00000	93.05282	336.49530	93.05282
650.00000	95.32134	332.69226	95.32134
700.00000	98.82587	320.97840	98.82587
750.00000	101.22588	316.37677	101.22588
800.00000	103.83037	304.53089	103.83037
850.00000	106.01799	293.76148	106.01799
900.00000	107.59515	275.55215	107.59515
950.00000	108.72727	260.31030	108.72727
1000.00000	108.71471	242.77402	108.71471
1050.00000	108.26842	233.44647	108.26842
1100.00000	108.38050	221.57641	108.38050
1150.00000	107.44387	211.76161	107.44387
1200.00000	107.27803	210.18112	107.27803
1250.00000	107.32751	200.66583	107.32751
1300.00000	106.57662	195.28269	106.57662
1350.00000	105.98217	190.15312	105.98217
1400.00000	105.30608	190.37788	105.30608
1450.00000	105.52895	190.17664	105.52895
1500.00000	105.48238	186.04263	105.48238
1550.00000	105.74159	185.81760	105.74159
1600.00000	106.44588	183.62839	106.44588
1650.00000	107.22155	174.05049	107.22155
1700.00000	105.83355	169.51376	105.83355
1750.00000	105.75709	169.88411	105.75709
1800.00000	105.49797	166.99390	105.49797
1850.00000	105.51471	170.33376	105.51471
1900.00000	106.74812	169.87662	106.74812
1950.00000	107.52864	160.07300	107.52864
2000.00000	107.15863	150.75351	107.15863
2050.00000	106.14188	148.09728	106.14188
2100.00000	105.89564	143.27583	105.89564
2150.00000	105.60152	142.12293	105.60152
2200.00000	105.16838	139.53779	105.16838
2250.00000	104.02114	138.32192	104.02114
2300.00000	103.91542	142.67912	103.91542
2350.00000	103.75041	145.65332	103.75041
2400.00000	104.24681	148.24482	104.24681
2450.00000	104.16878	147.16472	104.16878
2500.00000	104.25125	150.82968	104.25125
2550.00000	104.75615	154.81036	104.75615
2600.00000	106.07248	157.75461	106.07248
2650.00000	107.69334	153.81301	107.69334
2700.00000	108.56269	144.73558	108.56269
2750.00000	108.93676	135.59207	108.93676
2800.00000	108.76900	128.26093	108.76900
2850.00000	108.46295	122.93507	108.46295
2900.00000	108.14825	118.90564	108.14825
2950.00000	107.82064	116.01479	107.82064
3000.00000	107.58092	113.18895	107.58092
3050.00000	107.27589	111.10877	107.27589
3100.00000	107.17116	109.33738	107.17116
3150.00000	106.94259	105.44613	106.94259
3200.00000	106.36084	102.59125	106.36084
3250.00000	105.73125	100.76481	105.73125
3300.00000	105.06115	99.65698	105.06115
3350.00000	103.96098	99.87075	103.96098
3400.00000	103.14353	106.11588	103.14353
3450.00000	102.97547	113.45001	102.97547
3500.00000	103.43466	119.10740	103.43466
3550.00000	103.59285	121.44031	103.59285
3600.00000	103.79383	123.82280	103.79383
3650.00000	103.33794	126.88258	103.33794
3700.00000	103.04030	137.55720	103.04030
3750.00000	104.08712	151.16873	104.08712
3800.00000	106.11334	159.23155	106.11334
3850.00000	108.26764	161.44152	108.26764
3900.00000	110.13676	160.83734	110.13676
3950.00000	111.85853	156.78406	111.85853
4000.00000	113.10298	151.95703	113.10298
4050.00000	114.15439	146.76338	114.15439
4100.00000	114.96501	142.61324	114.96501
4150.00000	115.83627	139.23836	115.83627
4200.00000	116.57747	136.10721	116.57747
4250.00000	117.43255	133.74346	117.43255
4300.00000	118.44895	131.53026	118.44895
4350.00000	119.55429	128.53579	119.55429
4400.00000	120.76481	124.93271	120.76481
4450.00000	122.01460	120.60414	122.01460
4500.00000	123.37558	115.08560	123.37558
4550.00000	124.72531	108.02073	124.72531
4600.00000	126.02704	99.75124	126.02704
4650.00000	127.31623	90.00137	127.31623
4700.00000	128.46140	78.29226	128.46140
4750.00000	129.36335	64.84526	129.36335
4800.00000	129.93006	50.07337	129.93006
4850.00000	130.04428	34.90649	130.04428
4900.00000	129.73356	20.28765	129.73356
4950.00000	129.02496	 6.93207	129.02496
5000.00000	127.93573	-4.10913	127.93573
5050.00000	126.81184	-11.88607	126.81184
5100.00000	125.38338	-20.12095	125.38338
5150.00000	122.81467	-19.19669	122.81467
5200.00000	122.49070	 1.99155	122.49070
5250.00000	125.87826	 3.92881	125.87826
5300.00000	127.51469	-10.55289	127.51469
5350.00000	127.75902	-24.49601	127.75902
5400.00000	127.47506	-35.61415	127.47506
5450.00000	127.04455	-44.45365	127.04455
5500.00000	126.57649	-52.02994	126.57649
5550.00000	126.11118	-58.68371	126.11118
5600.00000	125.64303	-64.73427	125.64303
5650.00000	125.20247	-70.21866	125.20247
5700.00000	124.75661	-75.56838	124.75661
5750.00000	124.34147	-80.47833	124.34147
5800.00000	123.91501	-85.07667	123.91501
5850.00000	123.51876	-89.49114	123.51876
5900.00000	123.16107	-93.81884	123.16107
5950.00000	122.79920	-97.97218	122.79920
6000.00000	122.46180	-101.98353	122.46180
6050.00000	122.09087	-106.01494	122.09087
6100.00000	121.75587	-109.85856	121.75587
6150.00000	121.41811	-113.72161	121.41811
6200.00000	121.09340	-117.52445	121.09340
6250.00000	120.76413	-121.26863	120.76413
6300.00000	120.46048	-124.96742	120.46048
6350.00000	120.11638	-128.63055	120.11638
6400.00000	119.78634	-131.96633	119.78634
6450.00000	119.48970	-135.57786	119.48970
6500.00000	119.12587	-139.14855	119.12587
6550.00000	118.77358	-142.36640	118.77358
6600.00000	118.42715	-145.62892	118.42715
6650.00000	118.08512	-148.73352	118.08512
6700.00000	117.73534	-151.98280	117.73534
6750.00000	117.38582	-155.07654	117.38582
6800.00000	117.04048	-157.92905	117.04048
6850.00000	116.69148	-160.77175	116.69148
6900.00000	116.38420	-163.40346	116.38420
6950.00000	116.05182	-165.99994	116.05182
7000.00000	115.77134	-168.87742	115.77134
7050.00000	115.43975	-171.77282	115.43975
7100.00000	115.11394	-174.66900	115.11394
7150.00000	114.75350	-177.16474	114.75350
7200.00000	114.37105	-179.47101	114.37105
7250.00000	114.01216	-181.63154	114.01216
7300.00000	113.73854	-183.72628	113.73854
7350.00000	113.41061	-185.31818	113.41061
7400.00000	113.14855	-187.47506	113.14855
7450.00000	112.80372	-189.31279	112.80372
7500.00000	112.51664	-190.97565	112.51664
7550.00000	112.25272	-192.40944	112.25272
7600.00000	112.02525	-194.09858	112.02525
7650.00000	111.85018	-195.70548	111.85018
7700.00000	111.69982	-197.57457	111.69982
7750.00000	111.41502	-199.85888	111.41502
7800.00000	111.19169	-202.01784	111.19169
7850.00000	110.87764	-203.92767	110.87764
7900.00000	110.66688	-205.48253	110.66688
7950.00000	110.40708	-207.64616	110.40708
8000.00000	110.15498	-209.39129	110.15498
8050.00000	109.88999	-211.23570	109.88999
8100.00000	109.60894	-212.58324	109.60894
8150.00000	109.37928	-213.85039	109.37928
8200.00000	109.14552	-215.09147	109.14552
8250.00000	108.88513	-216.87646	108.88513
8300.00000	108.66236	-218.21118	108.66236
8350.00000	108.44820	-219.11557	108.44820
8400.00000	108.21988	-221.01828	108.21988
8450.00000	107.94342	-222.15558	107.94342
8500.00000	107.73648	-223.46321	107.73648
8550.00000	107.52807	-223.97988	107.52807
8600.00000	107.37076	-225.18957	107.37076
8650.00000	107.16938	-226.19607	107.16938
8700.00000	107.00668	-227.61028	107.00668
8750.00000	106.79248	-227.50490	106.79248
8800.00000	106.68298	-229.01044	106.68298
8850.00000	106.53416	-230.27617	106.53416
8900.00000	106.42112	-231.37315	106.42112
8950.00000	106.33677	-232.99156	106.33677
9000.00000	106.20487	-234.48364	106.20487
9050.00000	106.21883	-236.30544	106.21883
9100.00000	106.19787	-237.56514	106.19787
9150.00000	106.20940	-238.65769	106.20940
9200.00000	106.32729	-239.90826	106.32729
9250.00000	106.31878	-240.88837	106.31878
9300.00000	106.38393	-241.96809	106.38393
9350.00000	106.38793	-242.65232	106.38793
9400.00000	106.27375	-243.25613	106.27375
9450.00000	106.23559	-244.40590	106.23559
9500.00000	106.16481	-245.85168	106.16481
9550.00000	106.04203	-247.57378	106.04203
9600.00000	106.05481	-249.92078	106.05481
9650.00000	106.05086	-252.69260	106.05086
9700.00000	106.11912	-254.59311	106.11912
9750.00000	106.28831	-257.79874	106.28831
9800.00000	106.43317	-259.15685	106.43317
9850.00000	106.63723	-260.49845	106.63723
9900.00000	106.62051	-261.94955	106.62051
9950.00000	106.71450	-262.86404	106.71450
10000.00000	106.61240	-264.52300	106.61240
10050.00000	106.42352	-265.61706	106.42352
10100.00000	106.28222	-267.25403	106.28222
10150.00000	106.02078	-270.35361	106.02078
10200.00000	105.89279	-273.53483	105.89279
10250.00000	105.81044	-277.29573	105.81044
10300.00000	105.92975	-280.84647	105.92975
10350.00000	106.04078	-283.83667	106.04078
10400.00000	106.12404	-286.58300	106.12404
10450.00000	106.32975	-289.08421	106.32975
10500.00000	106.40872	-291.21447	106.40872
10550.00000	106.36469	-292.99327	106.36469
10600.00000	106.18463	-294.79375	106.18463
10650.00000	105.96656	-296.72533	105.96656
10700.00000	105.74822	-300.63676	105.74822
10750.00000	105.58233	-304.35845	105.58233
10800.00000	105.41522	-307.85490	105.41522
10850.00000	105.32397	-312.46521	105.32397
10900.00000	105.28504	-315.38567	105.28504
10950.00000	105.21439	-317.44075	105.21439
11000.00000	105.11414	-319.29806	105.11414
11050.00000	104.76194	-321.09106	104.76194
11100.00000	104.38651	-323.65262	104.38651
11150.00000	103.81497	-325.78265	103.81497
11200.00000	103.40408	-328.18611	103.40408
11250.00000	102.95116	-331.27856	102.95116
11300.00000	102.63232	-334.80131	102.63232
11350.00000	102.42100	-337.21237	102.42100
11400.00000	102.10880	-339.24093	102.10880
11450.00000	101.88940	-341.03984	101.88940
11500.00000	101.68732	-340.74442	101.68732
11550.00000	101.28628	-340.73130	101.28628
11600.00000	100.99773	-342.11385	100.99773
11650.00000	100.54921	-342.30780	100.54921
11700.00000	100.29737	-344.06047	100.29737
11750.00000	100.07423	-346.28361	100.07423
11800.00000	99.96601	-348.20064	99.96601
11850.00000	99.98652	-348.28897	99.98652
11900.00000	99.81491	-349.48011	99.81491
11950.00000	99.68277	-349.25721	99.68277
12000.00000	99.42780	-348.91205	99.42780
12050.00000	99.05089	-349.02864	99.05089
12100.00000	98.78904	-351.16727	98.78904
12150.00000	98.45006	-353.04818	98.45006
12200.00000	98.34059	-355.65178	98.34059
12250.00000	98.21451	-357.22935	98.21451
12300.00000	99.28236	-359.21466	99.28236
12350.00000	98.05121	-359.87229	98.05121
12400.00000	97.83961	-359.34945	97.83961
12450.00000	97.50563	-359.05677	97.50563
12500.00000	97.03835	-359.74698	97.03835
12550.00000	96.69100	-360.88760	96.69100
12600.00000	96.27689	-363.26724	96.27689
12650.00000	96.25647	-364.43254	96.25647
12700.00000	96.09209	-365.37925	96.09209
12750.00000	96.01531	-366.16045	96.01531
12800.00000	95.76552	-365.36039	95.76552
12850.00000	95.13555	-363.89729	95.13555
12900.00000	94.86925	-364.00323	94.86925
12950.00000	94.64197	-364.42438	94.64197
13000.00000	94.37357	-366.03081	94.37357
13050.00000	94.42464	-365.88146	94.42464
13100.00000	94.35302	-366.90047	94.35302
13150.00000	94.38374	-366.97322	94.38374
13200.00000	94.27601	-363.58804	94.27601
13250.00000	94.04745	-362.10807	94.04745
13300.00000	93.61859	-359.12598	93.61859
13350.00000	93.19994	-358.17508	93.19994
13400.00000	93.09136	-359.08370	93.09136
13450.00000	92.82663	-358.91777	92.82663
13500.00000	93.08743	-358.25960	93.08743
13550.00000	93.00365	-357.41424	93.00365
13600.00000	93.09493	-354.33662	93.09493
13650.00000	93.24598	-352.31141	93.24598
13700.00000	93.03304	-350.35531	93.03304
13750.00000	92.81548	-348.22482	92.81548
13800.00000	92.61997	-348.33573	92.61997
13850.00000	92.80044	-349.58099	92.80044
13900.00000	92.93132	-348.44716	92.93132
13950.00000	93.16983	-347.74134	93.16983
14000.00000	93.64949	-344.97378	93.64949
14050.00000	93.90405	-343.20292	93.90405
14100.00000	93.86440	-340.99545	93.86440
14150.00000	94.03117	-340.11710	94.03117
14200.00000	94.39300	-339.10117	94.39300
14250.00000	95.08642	-337.51957	95.08642
14300.00000	95.52952	-336.74493	95.52952
14350.00000	95.92106	-334.57704	95.92106
14400.00000	95.78663	-334.01740	95.78663
14450.00000	95.99595	-332.61626	95.99595
14500.00000	96.30342	-333.45584	96.30342
14550.00000	96.88371	-333.17729	96.88371
14600.00000	97.44439	-334.25669	97.44439
14650.00000	98.31133	-331.24567	98.31133
14700.00000	98.72758	-334.43173	98.72758
14750.00000	99.24643	-333.17695	99.24643
14800.00000	99.56160	-332.85522	99.56160
14850.00000	100.05596	-333.67942	100.05596
14900.00000	100.60097	-335.33232	100.60097
14950.00000	101.09870	-337.21885	101.09870
15000.00000	101.56611	-339.35523	101.56611
15050.00000	101.91600	-340.19284	101.91600
15100.00000	102.52127	-341.65481	102.52127
15150.00000	103.28650	-344.21084	103.28650
15200.00000	103.75406	-343.94546	103.75406
15250.00000	104.05239	-345.68863	104.05239
15300.00000	104.58297	-347.93125	104.58297
15350.00000	104.89049	-351.49292	104.89049
15400.00000	105.28886	-353.34025	105.28886
15450.00000	105.79259	-356.82755	105.79259
15500.00000	106.39057	-359.48670	106.39057
15550.00000	106.86879	-362.90965	106.86879
15600.00000	107.23647	-366.18032	107.23647
15650.00000	107.80143	-368.02442	107.80143
15700.00000	108.08089	-372.14868	108.08089
15750.00000	108.48985	-374.63966	108.48985
15800.00000	108.74689	-377.22792	108.74689
15850.00000	108.93525	-380.86568	108.93525
15900.00000	109.17908	-385.48380	109.17908
15950.00000	109.53196	-389.19147	109.53196
16000.00000	109.80537	-392.31339	109.80537
16050.00000	110.08008	-395.35704	110.08008
16100.00000	110.08411	-399.37495	110.08411
16150.00000	110.23995	-403.09815	110.23995
16200.00000	110.44688	-407.02810	110.44688
16250.00000	110.62654	-409.71585	110.62654
16300.00000	110.88456	-412.93498	110.88456
16350.00000	110.93739	-416.24952	110.93739
16400.00000	111.05510	-419.36620	111.05510
16450.00000	111.19558	-422.18314	111.19558
16500.00000	111.23819	-425.04451	111.23819
16550.00000	111.38387	-428.62274	111.38387
16600.00000	111.47796	-431.60468	111.47796
16650.00000	111.56210	-434.66951	111.56210
16700.00000	111.73968	-437.13263	111.73968
16750.00000	111.76351	-439.91825	111.76351
16800.00000	111.86468	-442.88246	111.86468
16850.00000	112.02038	-445.66669	112.02038
16900.00000	112.13358	-448.58995	112.13358
16950.00000	112.29144	-451.28504	112.29144
17000.00000	112.24085	-453.94521	112.24085
17050.00000	112.41185	-456.14259	112.41185
17100.00000	112.48212	-457.86730	112.48212
17150.00000	112.74483	-461.47334	112.74483
17200.00000	112.87541	-463.79778	112.87541
17250.00000	112.92510	-466.89713	112.92510
17300.00000	113.10346	-469.64493	113.10346
17350.00000	113.12961	-472.30478	113.12961
17400.00000	113.36481	-475.21686	113.36481
17450.00000	113.43004	-478.41533	113.43004
17500.00000	113.57590	-481.15556	113.57590
17550.00000	113.69550	-484.32574	113.69550
17600.00000	113.93770	-487.01044	113.93770
17650.00000	114.05055	-490.76707	114.05055
17700.00000	114.11612	-494.18798	114.11612
17750.00000	114.34986	-496.51230	114.34986
17800.00000	114.33403	-500.46633	114.33403
17850.00000	114.46684	-503.31087	114.46684
17900.00000	114.52719	-506.69763	114.52719
17950.00000	114.66786	-510.30541	114.66786
18000.00000	114.73057	-514.19707	114.73057
18050.00000	114.93405	-517.11565	114.93405
18100.00000	114.90632	-521.10467	114.90632
18150.00000	114.92588	-523.94153	114.92588
18200.00000	114.88882	-527.95832	114.88882
18250.00000	115.00673	-530.74358	115.00673
18300.00000	115.05795	-534.23905	115.05795
18350.00000	115.06780	-537.40834	115.06780
18400.00000	115.02126	-541.17456	115.02126
18450.00000	114.97936	-545.70291	114.97936
18500.00000	114.99694	-548.90970	114.99694
18550.00000	114.97198	-551.64925	114.97198
18600.00000	115.02211	-555.47585	115.02211
18650.00000	114.86568	-558.47021	114.86568
18700.00000	114.82242	-562.23343	114.82242
18750.00000	114.83558	-565.53785	114.83558
18800.00000	114.91291	-568.27270	114.91291
18850.00000	114.74727	-571.73807	114.74727
18900.00000	114.65338	-575.01863	114.65338
18950.00000	114.64696	-578.72027	114.64696
19000.00000	114.46196	-581.67177	114.46196
19050.00000	114.53851	-585.01805	114.53851
19100.00000	114.40172	-588.03695	114.40172
19150.00000	114.45678	-591.08474	114.45678
19200.00000	114.32949	-594.04920	114.32949
19250.00000	114.23998	-598.40165	114.23998
19300.00000	114.08419	-600.95688	114.08419
19350.00000	114.00706	-604.18556	114.00706
19400.00000	113.85655	-607.14973	113.85655
19450.00000	113.83675	-609.88084	113.83675
19500.00000	113.64391	-613.91585	113.64391
19550.00000	113.54763	-616.75551	113.54763
19600.00000	113.49462	-620.34202	113.49462
19650.00000	113.29575	-622.88049	113.29575
19700.00000	113.04930	-626.07716	113.04930
19750.00000	112.90005	-628.55591	112.90005
19800.00000	112.84395	-632.38506	112.84395
19850.00000	112.72163	-634.83696	112.72163
19900.00000	112.48935	-638.49806	112.48935
19950.00000	112.29919	-641.24996	112.29919
20000.00000	112.13134	-644.12547	112.13134
20050.00000	111.97143	-646.91806	111.97143
20100.00000	111.71487	-649.58885	111.71487
20150.00000	111.55738	-651.55953	111.55738
20200.00000	111.31357	-654.91488	111.31357
20250.00000	111.05646	-657.37256	111.05646
20300.00000	110.77326	-659.82923	110.77326
20350.00000	110.61381	-662.34389	110.61381
20400.00000	110.32306	-663.81123	110.32306
20450.00000	109.99568	-666.05915	109.99568
20500.00000	109.82772	-668.42123	109.82772
20550.00000	109.35784	-669.56436	109.35784
20600.00000	109.20339	-671.06531	109.20339
20650.00000	108.96714	-672.56929	108.96714
20700.00000	108.65339	-673.87923	108.65339
20750.00000	108.49840	-674.93796	108.49840
20800.00000	108.24945	-675.46739	108.24945
20850.00000	108.11384	-676.36903	108.11384
20900.00000	107.86887	-676.99229	107.86887
20950.00000	107.70851	-677.11466	107.70851
21000.00000	107.60547	-677.37358	107.60547
21050.00000	107.66888	-677.27264	107.66888
21100.00000	107.61200	-677.29776	107.61200
21150.00000	107.69049	-677.80090	107.69049
21200.00000	107.77765	-678.01775	107.77765
21250.00000	107.86390	-679.75997	107.86390
21300.00000	108.02293	-679.91086	108.02293
21350.00000	108.12421	-680.76621	108.12421
21400.00000	108.21468	-682.42964	108.21468
21450.00000	108.35648	-684.03567	108.35648
21500.00000	108.51526	-685.98826	108.51526
21550.00000	108.52667	-687.27695	108.52667
21600.00000	108.68756	-689.29071	108.68756
21650.00000	108.71467	-691.57727	108.71467
21700.00000	108.81479	-693.18691	108.81479
21750.00000	108.89075	-695.11020	108.89075
21800.00000	108.93547	-697.09676	108.93547
21850.00000	108.89570	-699.14589	108.89570
21900.00000	108.98774	-701.34936	108.98774
21950.00000	108.99685	-703.10147	108.99685
22000.00000	109.08355	-704.95574	109.08355
22050.00000	109.03300	-706.55738	109.03300
22100.00000	109.03242	-708.91893	109.03242
22150.00000	109.04510	-710.68630	109.04510
22200.00000	109.12769	-712.48379	109.12769
22250.00000	109.05780	-713.88784	109.05780
22300.00000	108.93011	-715.82687	108.93011
22350.00000	109.05172	-717.90303	109.05172
22400.00000	109.07226	-719.81572	109.07226
22450.00000	109.01077	-721.19895	109.01077
22500.00000	108.95274	-721.62320	108.95274
22550.00000	108.91305	-723.90028	108.91305
22600.00000	108.91908	-726.30898	108.91908
22650.00000	108.95918	-727.66286	108.95918
22700.00000	108.95078	-728.64104	108.95078
22750.00000	108.88218	-728.45596	108.88218
22800.00000	108.91630	-731.85928	108.91630
22850.00000	109.01841	-734.29410	109.01841
22900.00000	109.06049	-734.01658	109.06049
22950.00000	109.07531	-735.11953	109.07531
23000.00000	109.03975	-736.13557	109.03975
23050.00000	109.06482	-738.71993	109.06482
23100.00000	109.30336	-738.98517	109.30336
23150.00000	109.16388	-739.05389	109.16388
23200.00000	109.34411	-741.77947	109.34411
23250.00000	109.22281	-744.12467	109.22281
23300.00000	109.58386	-745.78360	109.58386
23350.00000	109.39702	-746.86072	109.39702
23400.00000	109.46082	-748.24520	109.46082
23450.00000	109.64074	-749.95939	109.64074
23500.00000	109.56028	-750.90281	109.56028
23550.00000	109.66732	-750.92786	109.66732
23600.00000	109.69595	-754.27147	109.69595
23650.00000	109.82632	-755.32267	109.82632
23700.00000	110.06192	-758.80804	110.06192
23750.00000	110.13176	-759.39825	110.13176
23800.00000	109.94041	-759.59059	109.94041
23850.00000	110.21029	-760.70741	110.21029
23900.00000	110.59813	-762.90701	110.59813
23950.00000	110.40924	-765.57015	110.40924
24000.00000	110.37543	-768.11525	110.37543
24050.00000	110.65506	-768.18709	110.65506
24100.00000	110.98247	-771.71472	110.98247
24150.00000	111.09815	-773.27558	111.09815
24200.00000	111.16519	-776.81371	111.16519
24250.00000	110.96973	-776.83952	110.96973
24300.00000	111.45968	-779.27219	111.45968
24350.00000	111.45322	-781.96073	111.45322
24400.00000	111.47252	-785.03342	111.47252
24450.00000	111.38217	-786.72968	111.38217
24500.00000	111.92086	-788.26209	111.92086
24550.00000	111.85409	-793.40691	111.85409
24600.00000	112.45035	-434.57906	112.45035
24650.00000	112.22432	-78.83896	112.22432
24700.00000	112.21679	280.83018	112.21679
24750.00000	112.38674	635.57972	112.38674
24800.00000	112.44900	992.56991	112.44900
24850.00000	112.24187	1350.93226	112.24187
24900.00000	112.42915	1708.72499	112.42915
24950.00000	112.62282	2064.14184	112.62282
25000.00000	112.67242	2056.09551	112.67242
25050.00000	112.74718	2055.20524	112.74718
25100.00000	112.38145	2051.48666	112.38145
25150.00000	112.74873	2049.93923	112.74873
25200.00000	112.49758	2045.16491	112.49758
25250.00000	112.64056	2043.08609	112.64056
25300.00000	112.60117	2040.44025	112.60117
25350.00000	112.48897	2032.65556	112.48897
25400.00000	112.39607	2028.48745	112.39607
25450.00000	112.38376	2026.28560	112.38376
25500.00000	112.10572	2023.02587	112.10572
25550.00000	112.04239	2018.64872	112.04239
25600.00000	111.96626	2015.60914	111.96626
25650.00000	111.69578	2013.36866	111.69578
25700.00000	111.61257	2009.22301	111.61257
25750.00000	111.30755	2005.64174	111.30755
25800.00000	111.11228	2001.62330	111.11228
25850.00000	110.90449	1998.62015	110.90449
25900.00000	110.71948	1994.00160	110.71948
25950.00000	110.34364	1994.92610	110.34364
26000.00000	110.19547	1989.51109	110.19547
26050.00000	109.98998	1986.78659	109.98998
26100.00000	109.75740	1983.58010	109.75740
26150.00000	109.53624	1981.68436	109.53624
26200.00000	109.40438	1978.95263	109.40438
26250.00000	109.14587	1975.99323	109.14587
26300.00000	109.04697	1972.35996	109.04697
26350.00000	108.42584	1971.77024	108.42584
26400.00000	108.26105	1969.12488	108.26105
26450.00000	108.34503	1965.50916	108.34503
26500.00000	107.93131	1963.79665	107.93131
26550.00000	107.65682	1958.43188	107.65682
26600.00000	107.36380	1956.76997	107.36380
26650.00000	107.32592	1957.32526	107.32592
26700.00000	107.19890	1954.43498	107.19890
26750.00000	106.69699	1952.31783	106.69699
26800.00000	106.48432	1947.84185	106.48432
26850.00000	106.59129	1947.76071	106.59129
26900.00000	106.44286	1946.88849	106.44286
26950.00000	106.37937	1943.59993	106.37937
27000.00000	105.82665	1942.98966	105.82665
27050.00000	105.96598	1940.86521	105.96598
27100.00000	105.55024	1940.14024	105.55024
27150.00000	105.51954	1936.87912	105.51954
27200.00000	105.55962	1936.21979	105.55962
27250.00000	105.09279	1935.39721	105.09279
27300.00000	104.75016	1931.93554	104.75016
27350.00000	104.92991	1932.73788	104.92991
27400.00000	104.60267	1930.95979	104.60267
27450.00000	104.47981	1929.89484	104.47981
27500.00000	104.50142	1928.75448	104.50142
27550.00000	104.50038	1926.63514	104.50038
27600.00000	104.76354	1924.68631	104.76354
27650.00000	104.23166	1925.25147	104.23166
27700.00000	104.36060	1920.52469	104.36060
27750.00000	104.36516	1919.38151	104.36516
27800.00000	104.49668	1916.40704	104.49668
27850.00000	104.74894	1919.07030	104.74894
27900.00000	104.26983	1917.69066	104.26983
27950.00000	103.85160	1915.57252	103.85160
28000.00000	104.08430	1914.78563	104.08430
28050.00000	104.78473	1912.35488	104.78473
28100.00000	104.23914	1910.76562	104.23914
28150.00000	104.42528	1910.44820	104.42528
28200.00000	104.73255	1905.53622	104.73255
28250.00000	104.46428	1903.62531	104.46428
28300.00000	104.38971	1903.76377	104.38971
28350.00000	104.73287	1903.08397	104.73287
28400.00000	104.76496	1902.37161	104.76496
28450.00000	105.39051	1898.87968	105.39051
28500.00000	104.94715	1898.75248	104.94715
28550.00000	105.16438	1898.43842	105.16438
28600.00000	105.28925	1895.48023	105.28925
28650.00000	105.66117	1890.45191	105.66117
28700.00000	105.65457	1891.08928	105.65457
28750.00000	106.38669	1889.63579	106.38669
28800.00000	106.29616	1887.15526	106.29616
28850.00000	105.76866	1881.85130	105.76866
28900.00000	106.10938	1880.09277	106.10938
28950.00000	106.08771	1879.16729	106.08771
29000.00000	106.39143	1876.13318	106.39143
29050.00000	106.16752	1875.58696	106.16752
29100.00000	106.12361	1873.62435	106.12361
29150.00000	106.18671	1871.84870	106.18671
29200.00000	106.14152	1867.38148	106.14152
29250.00000	106.54237	1866.32530	106.54237
29300.00000	106.26609	1863.11454	106.26609
29350.00000	106.66934	1859.50803	106.66934
29400.00000	106.51631	1858.21657	106.51631
29450.00000	106.44192	1856.16126	106.44192
29500.00000	106.78744	1854.82805	106.78744
29550.00000	106.48029	1849.52551	106.48029
29600.00000	106.28212	1849.02960	106.28212
29650.00000	106.42016	1845.87739	106.42016
29700.00000	106.10295	1846.51287	106.10295
29750.00000	106.14938	1845.33150	106.14938
29800.00000	105.88736	1842.09746	105.88736
29850.00000	105.88317	1839.52840	105.88317
29900.00000	106.10774	1839.69625	106.10774
29950.00000	105.25504	1838.59180	105.25504
30000.00000	105.58782	1838.67227	105.58782
30050.00000	105.51724	1836.06875	105.51724
30100.00000	105.18376	1836.70410	105.18376
30150.00000	105.26222	1833.23843	105.26222
30200.00000	105.15461	1831.95556	105.15461
30250.00000	104.88816	1832.29667	104.88816
30300.00000	104.66768	1832.83369	104.66768
30350.00000	104.61507	1834.32838	104.61507
30400.00000	104.53917	1832.44529	104.53917
30450.00000	104.09907	1832.70850	104.09907
30500.00000	104.14284	1832.44910	104.14284
30550.00000	104.04705	1834.15219	104.04705
30600.00000	103.95508	1835.31401	103.95508
30650.00000	104.01999	1835.81617	104.01999
30700.00000	104.03101	1835.84800	104.03101
30750.00000	103.82372	1838.09341	103.82372
30800.00000	103.94471	1839.03223	103.94471
30850.00000	104.11929	1841.26323	104.11929
30900.00000	104.04857	1843.57231	104.04857
30950.00000	104.43088	1843.27112	104.43088
31000.00000	104.61926	1843.58848	104.61926
31050.00000	104.95603	1845.45199	104.95603
31100.00000	105.40775	1846.43178	105.40775
31150.00000	105.36130	1846.65214	105.36130
31200.00000	106.10619	1846.84265	106.10619
31250.00000	106.32803	1846.53470	106.32803
31300.00000	106.65461	1846.15587	106.65461
31350.00000	107.19788	1845.52706	107.19788
31400.00000	107.33091	1843.57810	107.33091
31450.00000	107.78066	1842.69741	107.78066
31500.00000	108.14516	1840.15189	108.14516
31550.00000	108.38210	1839.08678	108.38210
31600.00000	108.81392	1836.03409	108.81392
31650.00000	109.01422	1833.78941	109.01422
31700.00000	109.23863	1832.13421	109.23863
31750.00000	109.51503	1830.85274	109.51503
31800.00000	109.69704	1827.67483	109.69704
31850.00000	109.88263	1824.35043	109.88263
31900.00000	109.86594	1822.39553	109.86594
31950.00000	110.07826	1819.69104	110.07826
32000.00000	110.21356	1816.86353	110.21356
32050.00000	110.31542	1814.66073	110.31542
32100.00000	110.38199	1810.85833	110.38199
32150.00000	110.44671	1809.44109	110.44671
32200.00000	110.62181	1805.83395	110.62181
32250.00000	110.60501	1802.70085	110.60501
32300.00000	110.57042	1800.66812	110.57042
32350.00000	110.52726	1798.56313	110.52726
32400.00000	110.64343	1795.87239	110.64343
32450.00000	110.54789	1793.11531	110.54789
32500.00000	110.55154	1791.27835	110.55154
32550.00000	110.66741	1787.85148	110.66741
32600.00000	110.57942	1786.26234	110.57942
32650.00000	110.64968	1783.82650	110.64968
32700.00000	110.43250	1780.91060	110.43250
32750.00000	110.48179	1778.37456	110.48179
32800.00000	110.70163	1777.05240	110.70163
32850.00000	110.69998	1774.76764	110.69998
32900.00000	110.56127	1771.86302	110.56127
32950.00000	110.49512	1768.93260	110.49512
33000.00000	110.47852	1768.49050	110.47852
33050.00000	110.56292	1766.00556	110.56292
33100.00000	110.60825	1763.85283	110.60825
33150.00000	110.66450	1762.12367	110.66450
33200.00000	110.87454	1761.13766	110.87454
33250.00000	110.80682	1759.32157	110.80682
33300.00000	110.88397	1756.97796	110.88397
33350.00000	110.90673	1754.46770	110.90673
33400.00000	111.07106	1753.78767	111.07106
33450.00000	111.28744	1750.63006	111.28744
33500.00000	111.59894	1750.44607	111.59894
33550.00000	111.46526	1746.69400	111.46526
33600.00000	111.95850	1744.88059	111.95850
33650.00000	112.07441	1742.27687	112.07441
33700.00000	112.27152	1740.68288	112.27152
33750.00000	112.44359	1737.67051	112.44359
33800.00000	112.78586	1735.10533	112.78586
33850.00000	112.69099	1732.39216	112.69099
33900.00000	113.03589	1728.57207	113.03589
33950.00000	113.33885	1726.34271	113.33885
34000.00000	113.61366	1722.49114	113.61366
34050.00000	113.77337	1719.48398	113.77337
34100.00000	113.78906	1717.02264	113.78906
34150.00000	114.19425	1712.50680	114.19425
34200.00000	114.25024	1710.87860	114.25024
34250.00000	114.53069	1706.05350	114.53069
34300.00000	114.58106	1702.32625	114.58106
34350.00000	114.88641	1698.82868	114.88641
34400.00000	114.70690	1696.82929	114.70690
34450.00000	115.01826	1690.48141	115.01826
34500.00000	115.10563	1688.02963	115.10563
34550.00000	115.21984	1684.73854	115.21984
34600.00000	114.95176	1680.31730	114.95176
34650.00000	115.36514	1678.88069	115.36514
34700.00000	115.05644	1676.65606	115.05644
34750.00000	115.25081	1668.90072	115.25081
34800.00000	115.46924	1669.74317	115.46924
34850.00000	115.65686	1668.24561	115.65686
34900.00000	115.83381	1662.41516	115.83381
34950.00000	115.75320	1660.85451	115.75320
35000.00000	115.74814	1657.07193	115.74814
35050.00000	115.94468	1655.08159	115.94468
35100.00000	116.07601	1651.18400	116.07601
35150.00000	115.89395	1649.80771	115.89395
35200.00000	115.98348	1645.54157	115.98348
35250.00000	116.11669	1642.45607	116.11669
35300.00000	116.24139	1639.71167	116.24139
35350.00000	116.43441	1637.05094	116.43441
35400.00000	116.44637	1633.92170	116.44637
35450.00000	116.42314	1632.18507	116.42314
35500.00000	116.28143	1629.70614	116.28143
35550.00000	116.71382	1628.68994	116.71382
35600.00000	116.65813	1624.77146	116.65813
35650.00000	116.90560	1622.42562	116.90560
35700.00000	116.92673	1620.13149	116.92673
35750.00000	116.84174	1618.92761	116.84174
35800.00000	117.13861	1617.98815	117.13861
35850.00000	117.35297	1614.23578	117.35297
35900.00000	117.57360	1611.71395	117.57360
35950.00000	117.78460	1609.68791	117.78460
36000.00000	117.77512	1607.86817	117.77512
36050.00000	118.04925	1605.12761	118.04925
36100.00000	118.32302	1603.37111	118.32302
36150.00000	118.34536	1600.58506	118.34536
36200.00000	118.51610	1598.70389	118.51610
36250.00000	118.48836	1598.39539	118.48836
36300.00000	118.71538	1594.23960	118.71538
36350.00000	119.14332	1592.31804	119.14332
36400.00000	119.36531	1590.35976	119.36531
36450.00000	119.29427	1587.24606	119.29427
36500.00000	119.74297	1585.58279	119.74297
36550.00000	119.74308	1582.02640	119.74308
36600.00000	120.08983	1580.12657	120.08983
36650.00000	120.27432	1578.18945	120.27432
36700.00000	120.49255	1574.74938	120.49255
36750.00000	120.64491	1571.63587	120.64491
36800.00000	120.75863	1569.87723	120.75863
36850.00000	120.78764	1567.09683	120.78764
36900.00000	121.11796	1564.08228	121.11796
36950.00000	121.13291	1561.20332	121.13291
37000.00000	121.01862	1559.62603	121.01862
37050.00000	121.18982	1557.40846	121.18982
37100.00000	121.42724	1553.94565	121.42724
37150.00000	121.57476	1550.66635	121.57476
37200.00000	121.91198	1549.33866	121.91198
37250.00000	121.61329	1546.05555	121.61329
37300.00000	121.67367	1543.25128	121.67367
37350.00000	122.01722	1541.24739	122.01722
37400.00000	121.83285	1539.32188	121.83285
37450.00000	121.81445	1537.11966	121.81445
37500.00000	122.21171	1533.96106	122.21171
37550.00000	121.94391	1531.96868	121.94391
37600.00000	122.20646	1529.29176	122.20646
37650.00000	122.16656	1527.25693	122.16656
37700.00000	122.35552	1524.27165	122.35552
37750.00000	122.36914	1522.46758	122.36914
37800.00000	122.29155	1519.10442	122.29155
37850.00000	122.32597	1515.16490	122.32597
37900.00000	122.31851	1513.64602	122.31851
37950.00000	122.45372	1511.50883	122.45372
38000.00000	122.32766	1509.36625	122.32766
38050.00000	122.41506	1506.22172	122.41506
38100.00000	122.57064	1503.16162	122.57064
38150.00000	122.50902	1500.03422	122.50902
38200.00000	122.60320	1496.78645	122.60320
38250.00000	122.63604	1494.43878	122.63604
38300.00000	122.72683	1490.64865	122.72683
38350.00000	122.67514	1488.20846	122.67514
38400.00000	122.69787	1485.07887	122.69787
38450.00000	122.69962	1481.18662	122.69962
38500.00000	122.80559	1477.63779	122.80559
38550.00000	122.88268	1475.09032	122.88268
38600.00000	122.91268	1471.22511	122.91268
38650.00000	122.97771	1467.52683	122.97771
38700.00000	122.93298	1463.82076	122.93298
38750.00000	123.02448	1459.85251	123.02448
38800.00000	123.06485	1456.16840	123.06485
38850.00000	123.06961	1451.62359	123.06961
38900.00000	123.13078	1447.79944	123.13078
38950.00000	123.08955	1443.22877	123.08955
39000.00000	123.10407	1438.76541	123.10407
39050.00000	123.13181	1434.35932	123.13181
39100.00000	122.97965	1429.54265	122.97965
39150.00000	122.87415	1424.76165	122.87415
39200.00000	122.82632	1420.32617	122.82632
39250.00000	122.71555	1415.35107	122.71555
39300.00000	122.59674	1410.35443	122.59674
39350.00000	122.42501	1406.25932	122.42501
39400.00000	122.22727	1401.11645	122.22727
39450.00000	122.00061	1397.02200	122.00061
39500.00000	121.85977	1392.19737	121.85977
39550.00000	121.60854	1387.54239	121.60854
39600.00000	121.25400	1383.10123	121.25400
39650.00000	121.07124	1379.34232	121.07124
39700.00000	120.75855	1375.22307	120.75855
39750.00000	120.52390	1370.83531	120.52390
39800.00000	120.26300	1367.01794	120.26300
39850.00000	119.90161	1363.04084	119.90161
39900.00000	119.61895	1359.65091	119.61895
39950.00000	119.34200	1356.13516	119.34200
40000.00000	118.88217	1353.81732	118.88217
40050.00000	118.74558	1349.60653	118.74558
40100.00000	118.49576	1345.85562	118.49576
40150.00000	118.13124	1342.85765	118.13124
40200.00000	117.87533	1339.49018	117.87533
40250.00000	117.59386	1336.68912	117.59386
40300.00000	117.39211	1334.62942	117.39211
40350.00000	116.88325	1331.67246	116.88325
40400.00000	116.60010	1328.97850	116.60010
40450.00000	116.34496	1327.23311	116.34496
40500.00000	116.19079	1325.01118	116.19079
40550.00000	115.94110	1322.49793	115.94110
40600.00000	115.67140	1320.38857	115.67140
40650.00000	115.45000	1319.03921	115.45000
40700.00000	115.04359	1317.62265	115.04359
40750.00000	115.04293	1315.99160	115.04293
40800.00000	114.78946	1314.17022	114.78946
40850.00000	114.61284	1313.05277	114.61284
40900.00000	114.38695	1311.40807	114.38695
40950.00000	114.04478	1311.69629	114.04478
41000.00000	113.85441	1310.35469	113.85441
41050.00000	113.88082	1309.74884	113.88082
41100.00000	113.78622	1308.40974	113.78622
41150.00000	113.85612	1309.39458	113.85612
41200.00000	113.79118	1308.05877	113.79118
41250.00000	113.69877	1305.55329	113.69877
41300.00000	113.41834	1306.73727	113.41834
41350.00000	113.58387	1307.10704	113.58387
41400.00000	113.61200	1302.33595	113.61200
41450.00000	113.72501	1304.65510	113.72501
41500.00000	113.58826	1303.40756	113.58826
41550.00000	113.53624	1307.36794	113.53624
41600.00000	113.31339	1304.84970	113.31339
41650.00000	113.83766	1303.45845	113.83766
41700.00000	113.92550	1303.92654	113.92550
41750.00000	113.79081	1307.45772	113.79081
41800.00000	113.07433	1302.27966	113.07433
41850.00000	113.03007	1303.08291	113.03007
41900.00000	112.98812	1303.69507	112.98812
41950.00000	114.28895	1308.12390	114.28895
42000.00000	113.29219	1302.56807	113.29219
42050.00000	112.23015	1302.13963	112.23015
42100.00000	112.89610	1302.95394	112.89610
42150.00000	112.43596	1298.65225	112.43596
42200.00000	112.50058	1306.50471	112.50058
42250.00000	112.48835	1305.78786	112.48835
42300.00000	111.47662	1302.75470	111.47662
42350.00000	112.20245	1304.36059	112.20245
42400.00000	111.74298	1306.63647	111.74298
42450.00000	112.43090	1301.62166	112.43090
42500.00000	111.72548	1303.91892	111.72548
42550.00000	111.99797	1316.08317	111.99797
42600.00000	111.63730	1307.81856	111.63730
42650.00000	111.16106	1310.52051	111.16106
42700.00000	111.03263	1309.05819	111.03263
42750.00000	111.89520	1308.66303	111.89520
42800.00000	111.32116	1304.25706	111.32116
42850.00000	110.95276	1304.17315	110.95276
42900.00000	112.12536	1309.24106	112.12536
42950.00000	111.39340	1307.37558	111.39340
43000.00000	111.82890	1298.78424	111.82890
43050.00000	111.32312	1298.65350	111.32312
43100.00000	111.60846	1303.11675	111.60846
43150.00000	110.68165	1299.74979	110.68165
43200.00000	111.33179	1298.15653	111.33179
43250.00000	111.27421	1296.41145	111.27421
43300.00000	111.39502	1294.82345	111.39502
43350.00000	112.06552	1291.20801	112.06552
43400.00000	111.49909	1289.48147	111.49909
43450.00000	112.53773	1290.77572	112.53773
43500.00000	111.21499	1283.09776	111.21499
43550.00000	111.75704	1281.00275	111.75704
43600.00000	111.57198	1276.76734	111.57198
43650.00000	112.09529	1268.23980	112.09529
43700.00000	111.75975	1267.27886	111.75975
43750.00000	111.23128	1265.21408	111.23128
43800.00000	111.42006	1257.21709	111.42006
43850.00000	111.80903	1252.49868	111.80903
43900.00000	111.73098	1250.38236	111.73098
43950.00000	111.59144	1245.07704	111.59144
44000.00000	111.04851	1241.10328	111.04851
44050.00000	111.20422	1235.59207	111.20422
44100.00000	110.97566	1224.17601	110.97566
44150.00000	110.81225	1226.75684	110.81225
44200.00000	110.41740	1223.57041	110.41740
44250.00000	110.69737	1217.40909	110.69737
44300.00000	110.79572	1211.95724	110.79572
44350.00000	109.31642	1205.46781	109.31642
44400.00000	109.89016	1201.84032	109.89016
44450.00000	110.11786	1200.49920	110.11786
44500.00000	109.32905	1197.64117	109.32905
44550.00000	110.61819	1186.18229	110.61819
44600.00000	109.16785	1188.05393	109.16785
44650.00000	108.68068	1178.38199	108.68068
44700.00000	108.69733	1175.62657	108.69733
44750.00000	108.45632	1176.03623	108.45632
44800.00000	108.93240	1169.18595	108.93240
44850.00000	108.15714	1162.82730	108.15714
44900.00000	107.96850	1161.66976	107.96850
44950.00000	108.02190	1155.10411	108.02190
45000.00000	107.58368	1146.79507	107.58368
45050.00000	106.49952	1152.36621	106.49952
45100.00000	107.02848	1142.72378	107.02848
45150.00000	106.96597	1132.33280	106.96597
45200.00000	106.17420	1134.36393	106.17420
45250.00000	106.72001	1127.74754	106.72001
45300.00000	106.54009	1121.99757	106.54009
45350.00000	105.97448	1116.00601	105.97448
45400.00000	105.92616	1113.57069	105.92616
45450.00000	105.61741	1107.13749	105.61741
45500.00000	104.05254	1098.69982	104.05254
45550.00000	104.55090	1099.17327	104.55090
45600.00000	105.34571	1092.80837	105.34571
45650.00000	103.67198	1081.72527	103.67198
45700.00000	103.18640	1079.83193	103.18640
45750.00000	103.95606	1082.07870	103.95606
45800.00000	102.96048	1071.71357	102.96048
45850.00000	102.92551	1066.46518	102.92551
45900.00000	102.74326	1066.56848	102.74326
45950.00000	102.18374	1064.55908	102.18374
46000.00000	100.60182	1046.18871	100.60182
46050.00000	100.48455	1045.40695	100.48455
46100.00000	99.66446	1044.43662	99.66446
46150.00000	99.43729	1042.55495	99.43729
46200.00000	96.78547	1029.51102	96.78547
46250.00000	97.92314	1030.25862	97.92314
46300.00000	96.70375	1028.50190	96.70375
46350.00000	97.81044	1023.21873	97.81044
46400.00000	96.71258	1020.41246	96.71258
46450.00000	93.89406	1016.14808	93.89406
46500.00000	95.60709	1010.93581	95.60709
46550.00000	95.00938	1017.84731	95.00938
46600.00000	95.30690	1015.43438	95.30690
46650.00000	92.70922	1012.82961	92.70922
46700.00000	91.33980	1014.57157	91.33980
46750.00000	92.53027	1027.10594	92.53027
46800.00000	90.02529	1012.89704	90.02529
46850.00000	91.78547	662.37332	91.78547
46900.00000	91.18645	656.74998	91.18645
46950.00000	91.29747	661.40107	91.29747
47000.00000	90.86587	656.28280	90.86587
47050.00000	92.11637	648.45051	92.11637
47100.00000	91.20935	642.93589	91.20935
47150.00000	92.46228	645.47008	92.46228
47200.00000	90.72025	645.11772	90.72025
47250.00000	92.97042	647.70544	92.97042
47300.00000	90.30683	629.63090	90.30683
47350.00000	90.78009	284.37024	90.78009
47400.00000	88.73139	289.87449	88.73139
47450.00000	90.95278	287.70243	90.95278
47500.00000	89.21830	273.57130	89.21830
47550.00000	88.84275	-74.70194	88.84275
47600.00000	90.17420	-86.91997	90.17420
47650.00000	90.53203	-84.35628	90.53203
47700.00000	89.70565	-82.60045	89.70565
47750.00000	88.42979	-81.52583	88.42979
47800.00000	89.24407	-102.62839	89.24407
47850.00000	91.57478	-448.95110	91.57478
47900.00000	90.56468	-806.14309	90.56468
47950.00000	90.30729	-803.96272	90.30729
48000.00000	90.23296	-804.13150	90.23296
48050.00000	92.47046	-815.46818	92.47046
48100.00000	91.40968	-819.22756	91.40968
48150.00000	91.47021	-1172.49055	91.47021
48200.00000	92.84668	-1175.91469	92.84668
48250.00000	91.35048	-1194.97839	91.35048
48300.00000	93.17616	-1189.45301	93.17616
48350.00000	91.74146	-1202.81429	91.74146
48400.00000	93.49611	-1550.47893	93.49611
48450.00000	93.15632	-1556.02187	93.15632
48500.00000	92.98793	-1563.53544	92.98793
48550.00000	90.39356	-1571.53878	90.39356
48600.00000	94.12366	-1930.14149	94.12366
48650.00000	93.44128	-1932.18808	93.44128
48700.00000	93.89188	-1947.42753	93.89188
48750.00000	92.41644	-2297.12658	92.41644
48800.00000	92.98525	-2303.67468	92.98525
48850.00000	92.61290	-2306.96620	92.61290
48900.00000	92.53747	-2661.48945	92.53747
48950.00000	92.43878	-2683.83501	92.43878
49000.00000	92.81748	-2679.67561	92.81748
49050.00000	93.39896	-2698.49024	93.39896
49100.00000	92.83912	-3055.80569	92.83912
49150.00000	94.42862	-3418.62349	94.42862
49200.00000	94.27273	-3416.26332	94.27273
49250.00000	93.39988	-3780.53651	93.39988
49300.00000	94.74375	-3434.06201	94.74375
49350.00000	93.49998	-3415.91260	93.49998
49400.00000	94.49128	-3081.98059	94.49128
49450.00000	93.46232	-2733.65639	93.46232
49500.00000	93.54283	-2384.65594	93.54283
49550.00000	93.63333	-2029.62999	93.63333
49600.00000	93.30771	-2033.35956	93.30771
49650.00000	94.88380	-2020.35677	94.88380
49700.00000	94.26736	-1698.36437	94.26736
49750.00000	94.98686	-1691.69095	94.98686
49800.00000	94.40599	-1703.70632	94.40599
49850.00000	93.29618	-1692.93240	93.29618
49900.00000	95.23783	-1354.90229	95.23783
49950.00000	97.33252	-1018.55198	97.33252
