---ACOUSTIC CALIBRATION---
Filename: C:\Data\AZH DATA\AZH51\RightSecondary.calib
Date: 8/27/2019 6:15:30 PM
Format: 4
Probe Tube Correction File: C:\Data\Probe Tube Calibrations\50_ProbeTube.calib
Experiment VIs: 850
EPL_CFTS.exe V12.0.1 (2012)
DAQmx V9.6

Attenuation (dB): 40.000000
Min Freq (Hz): 50.000000
Max Freq (Hz): 49950.000000
Freq Step (Hz): 50.000000
Sample Rate (Hz): 100000.000000
[Smoothing]
Method=None
MA.Iterations=0
MA.Length=0
Loess.Length=0
Loess.Type=Linear
Loess.Robust=FALSE


Freq(Hz)	Mag(dB)	Phase(deg)	Unsmoothed(dB)

50.00000	107.46493	494.96900	107.46493
100.00000	90.05838	363.47836	90.05838
150.00000	85.95919	302.06704	85.95919
200.00000	72.78523	295.95149	72.78523
250.00000	86.86202	377.71391	86.86202
300.00000	87.87072	331.37758	87.87072
350.00000	64.88180	432.09101	64.88180
400.00000	80.99866	344.01521	80.99866
450.00000	86.87411	325.06404	86.87411
500.00000	86.48903	319.27167	86.48903
550.00000	90.05437	306.05266	90.05437
600.00000	91.73925	297.02076	91.73925
650.00000	90.43923	301.40884	90.43923
700.00000	94.72288	298.82188	94.72288
750.00000	95.87682	279.02890	95.87682
800.00000	98.05555	278.93594	98.05555
850.00000	100.40259	273.16720	100.40259
900.00000	101.89387	254.32813	101.89387
950.00000	102.89799	238.14743	102.89799
1000.00000	102.84581	220.62163	102.84581
1050.00000	102.26368	209.42945	102.26368
1100.00000	102.19544	199.13272	102.19544
1150.00000	101.32330	189.10645	101.32330
1200.00000	100.95581	185.12283	100.95581
1250.00000	100.82500	175.01094	100.82500
1300.00000	99.68898	169.47754	99.68898
1350.00000	99.10879	165.62647	99.10879
1400.00000	98.16497	165.40342	98.16497
1450.00000	98.06140	167.43345	98.06140
1500.00000	98.25792	165.60459	98.25792
1550.00000	98.14479	162.27144	98.14479
1600.00000	98.55575	164.74835	98.55575
1650.00000	99.79746	149.26268	99.79746
1700.00000	98.41715	148.98629	98.41715
1750.00000	97.94742	138.88333	97.94742
1800.00000	97.77543	142.97354	97.77543
1850.00000	97.29666	142.58844	97.29666
1900.00000	98.77809	151.46834	98.77809
1950.00000	99.23756	140.53724	99.23756
2000.00000	99.26613	130.04285	99.26613
2050.00000	97.52107	125.38641	97.52107
2100.00000	98.11543	125.83372	98.11543
2150.00000	97.66121	122.60181	97.66121
2200.00000	97.32935	117.59159	97.32935
2250.00000	95.99818	112.26334	95.99818
2300.00000	96.29618	119.01111	96.29618
2350.00000	95.33044	114.08386	95.33044
2400.00000	94.59139	120.33748	94.59139
2450.00000	95.39652	114.29577	95.39652
2500.00000	95.05607	116.76960	95.05607
2550.00000	94.68852	120.32255	94.68852
2600.00000	93.48041	118.70578	93.48041
2650.00000	94.49732	132.68824	94.49732
2700.00000	96.77435	135.60545	96.77435
2750.00000	98.63508	130.66996	98.63508
2800.00000	99.27749	118.67952	99.27749
2850.00000	98.62723	110.83857	98.62723
2900.00000	98.45946	106.05022	98.45946
2950.00000	98.14666	99.11703	98.14666
3000.00000	97.57468	99.00825	97.57468
3050.00000	97.10907	93.13937	97.10907
3100.00000	97.40333	94.36057	97.40333
3150.00000	96.84430	86.48209	96.84430
3200.00000	95.86787	86.67471	95.86787
3250.00000	95.09063	86.21728	95.09063
3300.00000	94.19045	83.10146	94.19045
3350.00000	93.57930	87.62851	93.57930
3400.00000	91.49626	92.98608	91.49626
3450.00000	91.63398	107.30484	91.63398
3500.00000	92.84118	117.38112	92.84118
3550.00000	92.71006	112.77493	92.71006
3600.00000	93.71857	125.36314	93.71857
3650.00000	93.61169	121.85424	93.61169
3700.00000	93.13932	131.61703	93.13932
3750.00000	94.58306	142.41956	94.58306
3800.00000	95.59471	147.15805	95.59471
3850.00000	97.63872	154.49906	97.63872
3900.00000	99.53944	156.24574	99.53944
3950.00000	101.69982	151.48322	101.69982
4000.00000	102.80737	145.38026	102.80737
4050.00000	103.96742	141.80014	103.96742
4100.00000	104.89422	139.06420	104.89422
4150.00000	105.95761	134.30067	105.95761
4200.00000	106.62671	130.56550	106.62671
4250.00000	107.35879	126.78355	107.35879
4300.00000	108.21822	124.44778	108.21822
4350.00000	108.91763	121.48800	108.91763
4400.00000	109.93334	119.15358	109.93334
4450.00000	111.17974	116.71049	111.17974
4500.00000	112.44123	112.51818	112.44123
4550.00000	113.90517	107.20417	113.90517
4600.00000	115.25759	100.55953	115.25759
4650.00000	116.65223	92.31328	116.65223
4700.00000	118.01277	81.81140	118.01277
4750.00000	119.16456	69.29404	119.16456
4800.00000	120.02283	54.96908	120.02283
4850.00000	120.41489	39.35528	120.41489
4900.00000	120.31599	23.70392	120.31599
4950.00000	119.69418	 8.98865	119.69418
5000.00000	118.66322	-2.72378	118.66322
5050.00000	117.53203	-10.56504	117.53203
5100.00000	116.26119	-20.53392	116.26119
5150.00000	113.72426	-21.96603	113.72426
5200.00000	112.90671	-3.42663	112.90671
5250.00000	115.93696	 0.66832	115.93696
5300.00000	117.46403	-12.71676	117.46403
5350.00000	117.69474	-25.60808	117.69474
5400.00000	117.42941	-36.38211	117.42941
5450.00000	116.98294	-44.79050	116.98294
5500.00000	116.48004	-51.98658	116.48004
5550.00000	116.01635	-58.14398	116.01635
5600.00000	115.51441	-64.11327	115.51441
5650.00000	115.07889	-68.93312	115.07889
5700.00000	114.59516	-74.03044	114.59516
5750.00000	114.18917	-78.60039	114.18917
5800.00000	113.76044	-83.07327	113.76044
5850.00000	113.35597	-87.46314	113.35597
5900.00000	112.96076	-90.74764	112.96076
5950.00000	112.54633	-94.54356	112.54633
6000.00000	112.21451	-98.12440	112.21451
6050.00000	111.93223	-102.29895	111.93223
6100.00000	111.56111	-105.15343	111.56111
6150.00000	111.18589	-108.62800	111.18589
6200.00000	110.76517	-112.01303	110.76517
6250.00000	110.50201	-114.98162	110.50201
6300.00000	110.23353	-118.55881	110.23353
6350.00000	109.92284	-121.46056	109.92284
6400.00000	109.53211	-123.92253	109.53211
6450.00000	109.12383	-126.65101	109.12383
6500.00000	108.80697	-130.34605	108.80697
6550.00000	108.53622	-132.92930	108.53622
6600.00000	108.19334	-135.36035	108.19334
6650.00000	107.89892	-137.43652	107.89892
6700.00000	107.60896	-139.61720	107.60896
6750.00000	107.24787	-142.13428	107.24787
6800.00000	106.92553	-143.71431	106.92553
6850.00000	106.67694	-146.07190	106.67694
6900.00000	106.37219	-148.20670	106.37219
6950.00000	106.08907	-149.60770	106.08907
7000.00000	105.88130	-150.74287	105.88130
7050.00000	105.55590	-152.60239	105.55590
7100.00000	105.38521	-153.98458	105.38521
7150.00000	105.20913	-155.49726	105.20913
7200.00000	104.99223	-156.31030	104.99223
7250.00000	104.73317	-157.82248	104.73317
7300.00000	104.57129	-159.26728	104.57129
7350.00000	104.52580	-159.28961	104.52580
7400.00000	104.29086	-160.99962	104.29086
7450.00000	104.39448	-161.17734	104.39448
7500.00000	104.46314	-162.67803	104.46314
7550.00000	104.53984	-163.75430	104.53984
7600.00000	104.53503	-164.97759	104.53503
7650.00000	104.43317	-166.13443	104.43317
7700.00000	104.68548	-168.30200	104.68548
7750.00000	104.94252	-169.18518	104.94252
7800.00000	104.89422	-172.14876	104.89422
7850.00000	105.10949	-174.66278	105.10949
7900.00000	105.18389	-177.07288	105.18389
7950.00000	105.33356	-179.99648	105.33356
8000.00000	105.47298	-183.09812	105.47298
8050.00000	105.54536	-186.33256	105.54536
8100.00000	105.66672	-189.26446	105.66672
8150.00000	105.68000	-192.84624	105.68000
8200.00000	105.60763	-196.16216	105.60763
8250.00000	105.62322	-199.53359	105.62322
8300.00000	105.64605	-203.71604	105.64605
8350.00000	105.61681	-206.79408	105.61681
8400.00000	105.51139	-210.85639	105.51139
8450.00000	105.28727	-215.29012	105.28727
8500.00000	105.11565	-219.11192	105.11565
8550.00000	104.98286	-221.91534	104.98286
8600.00000	104.84102	-225.60829	104.84102
8650.00000	104.52409	-229.33780	104.52409
8700.00000	104.27743	-233.13469	104.27743
8750.00000	103.97262	-235.80576	103.97262
8800.00000	103.83684	-239.02154	103.83684
8850.00000	103.51286	-242.29417	103.51286
8900.00000	103.30877	-244.73405	103.30877
8950.00000	103.02078	-248.62410	103.02078
9000.00000	102.73291	-251.67131	102.73291
9050.00000	102.48513	-254.20717	102.48513
9100.00000	102.30030	-256.27418	102.30030
9150.00000	102.01020	-259.51436	102.01020
9200.00000	101.92887	-261.64668	101.92887
9250.00000	101.57316	-263.85629	101.57316
9300.00000	101.36466	-266.13386	101.36466
9350.00000	101.28527	-268.50152	101.28527
9400.00000	101.01076	-269.80185	101.01076
9450.00000	100.83288	-271.84738	100.83288
9500.00000	100.55422	-273.99421	100.55422
9550.00000	100.49692	-275.76022	100.49692
9600.00000	100.35440	-277.34770	100.35440
9650.00000	100.19907	-279.89623	100.19907
9700.00000	100.08506	-281.03553	100.08506
9750.00000	99.98157	-283.97943	99.98157
9800.00000	99.67683	-285.52946	99.67683
9850.00000	99.56432	-286.41580	99.56432
9900.00000	99.26907	-288.57631	99.26907
9950.00000	99.11516	-290.17218	99.11516
10000.00000	98.85867	-292.22799	98.85867
10050.00000	98.60143	-294.26800	98.60143
10100.00000	98.42898	-296.61113	98.42898
10150.00000	98.07641	-298.63096	98.07641
10200.00000	97.84346	-300.37134	97.84346
10250.00000	97.69194	-303.20231	97.69194
10300.00000	97.63169	-305.63551	97.63169
10350.00000	97.45112	-307.34973	97.45112
10400.00000	97.15837	-308.96895	97.15837
10450.00000	97.18560	-310.73849	97.18560
10500.00000	97.15307	-312.50427	97.15307
10550.00000	97.00020	-314.57426	97.00020
10600.00000	96.88469	-316.40855	96.88469
10650.00000	96.70576	-317.80589	96.70576
10700.00000	96.53429	-320.43239	96.53429
10750.00000	96.48879	-322.48730	96.48879
10800.00000	96.29427	-325.31494	96.29427
10850.00000	96.18177	-327.97856	96.18177
10900.00000	96.03425	-330.16886	96.03425
10950.00000	95.92119	-331.61349	95.92119
11000.00000	95.76926	-333.72567	95.76926
11050.00000	95.38963	-335.32235	95.38963
11100.00000	95.25601	-338.61622	95.25601
11150.00000	94.84729	-340.37963	94.84729
11200.00000	94.73295	-342.31461	94.73295
11250.00000	94.36206	-345.25834	94.36206
11300.00000	93.98999	-347.09333	93.98999
11350.00000	93.70966	-348.91471	93.70966
11400.00000	93.29861	-349.63256	93.29861
11450.00000	93.09550	-353.33665	93.09550
11500.00000	92.77619	-353.07103	92.77619
11550.00000	92.48753	-353.08279	92.48753
11600.00000	92.29289	-355.79413	92.29289
11650.00000	91.95970	-355.79720	91.95970
11700.00000	91.77699	-356.55238	91.77699
11750.00000	91.60942	-357.62538	91.60942
11800.00000	91.49660	-358.87428	91.49660
11850.00000	91.42477	-359.31486	91.42477
11900.00000	91.08455	-360.49313	91.08455
11950.00000	90.92573	-361.25911	90.92573
12000.00000	90.72994	-361.03238	90.72994
12050.00000	90.59805	-362.72758	90.59805
12100.00000	90.40410	-364.27013	90.40410
12150.00000	90.43597	-366.67356	90.43597
12200.00000	90.16420	-367.66982	90.16420
12250.00000	90.08467	-368.73596	90.08467
12300.00000	91.09322	-369.14041	91.09322
12350.00000	89.79294	-372.59795	89.79294
12400.00000	89.48581	-372.21667	89.48581
12450.00000	89.53262	-373.50642	89.53262
12500.00000	89.06958	-372.84719	89.06958
12550.00000	88.79083	-374.30373	88.79083
12600.00000	88.68594	-375.24855	88.68594
12650.00000	88.03145	-375.45202	88.03145
12700.00000	88.35352	-378.05912	88.35352
12750.00000	88.36302	-377.21966	88.36302
12800.00000	87.89258	-379.28782	87.89258
12850.00000	87.50136	-377.24213	87.50136
12900.00000	87.41211	-377.99081	87.41211
12950.00000	87.07685	-379.68845	87.07685
13000.00000	87.04322	-379.10556	87.04322
13050.00000	86.84832	-381.78312	86.84832
13100.00000	86.89899	-381.76712	86.89899
13150.00000	86.72958	-381.61971	86.72958
13200.00000	86.63182	-378.75303	86.63182
13250.00000	87.03319	-383.16630	87.03319
13300.00000	86.31674	-377.02902	86.31674
13350.00000	86.40947	-380.72816	86.40947
13400.00000	86.07818	-383.25881	86.07818
13450.00000	86.32820	-382.97787	86.32820
13500.00000	86.11684	-385.26488	86.11684
13550.00000	85.85804	-382.46589	85.85804
13600.00000	85.45417	-380.40240	85.45417
13650.00000	85.49030	-382.58079	85.49030
13700.00000	85.58029	-379.05909	85.58029
13750.00000	85.01058	-381.09767	85.01058
13800.00000	85.15592	-381.74006	85.15592
13850.00000	84.85874	-383.51761	84.85874
13900.00000	84.45741	-381.79602	84.45741
13950.00000	84.85365	-382.08788	84.85365
14000.00000	85.57889	-380.36209	85.57889
14050.00000	85.15228	-379.84042	85.15228
14100.00000	84.70438	-375.18934	84.70438
14150.00000	85.43331	-378.21410	85.43331
14200.00000	85.69057	-377.16121	85.69057
14250.00000	85.86828	-373.18624	85.86828
14300.00000	85.94965	-375.06951	85.94965
14350.00000	86.20547	-374.98598	86.20547
14400.00000	85.74604	-373.62038	85.74604
14450.00000	86.05450	-372.39300	86.05450
14500.00000	85.96522	-374.92286	85.96522
14550.00000	86.57698	-375.74847	86.57698
14600.00000	86.52539	-373.84115	86.52539
14650.00000	86.74687	-372.11080	86.74687
14700.00000	86.97368	-376.77368	86.97368
14750.00000	87.51243	-378.57835	87.51243
14800.00000	87.45285	-376.39230	87.45285
14850.00000	87.93262	-376.25594	87.93262
14900.00000	88.36562	-377.03250	88.36562
14950.00000	88.55575	-377.53340	88.55575
15000.00000	88.99594	-380.13615	88.99594
15050.00000	89.06083	-378.05524	89.06083
15100.00000	89.13139	-377.81765	89.13139
15150.00000	89.41379	-380.41756	89.41379
15200.00000	89.56488	-380.58569	89.56488
15250.00000	89.51203	-380.23739	89.51203
15300.00000	90.13803	-382.47660	90.13803
15350.00000	90.15017	-381.78596	90.15017
15400.00000	90.45055	-382.43312	90.45055
15450.00000	90.88642	-383.68976	90.88642
15500.00000	91.26252	-385.46248	91.26252
15550.00000	91.41846	-385.67739	91.41846
15600.00000	91.81309	-388.30571	91.81309
15650.00000	92.28789	-387.36247	92.28789
15700.00000	92.32512	-389.15794	92.32512
15750.00000	92.83475	-390.22466	92.83475
15800.00000	93.09079	-391.53464	93.09079
15850.00000	93.43544	-392.88260	93.43544
15900.00000	93.59992	-395.52295	93.59992
15950.00000	94.05323	-397.10346	94.05323
16000.00000	94.38751	-398.59752	94.38751
16050.00000	94.67010	-400.11254	94.67010
16100.00000	94.86497	-402.84412	94.86497
16150.00000	95.15149	-405.07453	95.15149
16200.00000	95.38072	-407.51521	95.38072
16250.00000	95.62775	-408.89234	95.62775
16300.00000	95.94948	-410.74447	95.94948
16350.00000	96.18440	-413.27857	96.18440
16400.00000	96.46137	-415.01557	96.46137
16450.00000	96.61710	-417.96659	96.61710
16500.00000	96.88340	-419.64019	96.88340
16550.00000	97.18855	-422.74166	97.18855
16600.00000	97.36986	-424.07715	97.36986
16650.00000	97.62982	-426.84278	97.62982
16700.00000	97.93178	-428.38103	97.93178
16750.00000	98.02586	-431.29257	98.02586
16800.00000	98.29255	-433.60734	98.29255
16850.00000	98.51783	-435.50267	98.51783
16900.00000	98.82053	-437.95040	98.82053
16950.00000	99.00797	-440.02025	99.00797
17000.00000	99.14918	-442.70749	99.14918
17050.00000	99.32442	-444.31305	99.32442
17100.00000	99.57032	-445.82021	99.57032
17150.00000	99.88941	-448.95607	99.88941
17200.00000	100.11839	-451.38505	100.11839
17250.00000	100.31730	-454.42602	100.31730
17300.00000	100.59498	-456.68188	100.59498
17350.00000	100.70657	-459.10923	100.70657
17400.00000	101.00718	-461.91371	101.00718
17450.00000	101.19631	-465.10791	101.19631
17500.00000	101.43322	-467.74426	101.43322
17550.00000	101.63413	-470.51261	101.63413
17600.00000	101.91337	-473.03213	101.91337
17650.00000	102.03818	-476.75148	102.03818
17700.00000	102.17214	-479.64707	102.17214
17750.00000	102.48728	-482.08829	102.48728
17800.00000	102.58414	-485.84300	102.58414
17850.00000	102.73943	-488.34844	102.73943
17900.00000	102.88740	-491.63272	102.88740
17950.00000	103.10955	-495.21300	103.10955
18000.00000	103.23700	-498.38315	103.23700
18050.00000	103.51524	-501.24403	103.51524
18100.00000	103.59834	-504.82440	103.59834
18150.00000	103.69715	-507.73187	103.69715
18200.00000	103.75493	-511.38502	103.75493
18250.00000	103.97514	-514.11472	103.97514
18300.00000	104.12680	-517.58235	104.12680
18350.00000	104.27431	-520.72652	104.27431
18400.00000	104.30869	-524.68781	104.30869
18450.00000	104.35584	-529.32046	104.35584
18500.00000	104.49301	-532.84124	104.49301
18550.00000	104.52026	-535.62196	104.52026
18600.00000	104.67130	-539.90101	104.67130
18650.00000	104.57150	-543.08852	104.57150
18700.00000	104.58949	-546.91242	104.58949
18750.00000	104.63564	-550.55058	104.63564
18800.00000	104.74870	-553.69333	104.74870
18850.00000	104.59535	-557.52515	104.59535
18900.00000	104.56870	-560.77552	104.56870
18950.00000	104.54657	-564.75723	104.54657
19000.00000	104.35839	-567.66850	104.35839
19050.00000	104.43632	-571.26602	104.43632
19100.00000	104.31847	-574.26185	104.31847
19150.00000	104.43959	-577.30662	104.43959
19200.00000	104.32900	-580.00504	104.32900
19250.00000	104.22371	-584.42122	104.22371
19300.00000	104.11041	-586.65454	104.11041
19350.00000	104.06931	-589.87247	104.06931
19400.00000	103.97815	-592.73947	103.97815
19450.00000	103.99710	-594.97471	103.99710
19500.00000	103.86257	-598.95185	103.86257
19550.00000	103.82925	-601.80689	103.82925
19600.00000	103.82327	-605.33591	103.82327
19650.00000	103.71167	-607.93365	103.71167
19700.00000	103.55601	-611.06326	103.55601
19750.00000	103.47670	-613.46410	103.47670
19800.00000	103.47081	-617.32354	103.47081
19850.00000	103.40660	-620.15002	103.40660
19900.00000	103.27359	-623.87795	103.27359
19950.00000	103.16393	-626.67834	103.16393
20000.00000	103.06444	-629.68146	103.06444
20050.00000	102.94262	-632.56379	102.94262
20100.00000	102.75609	-635.67316	102.75609
20150.00000	102.70289	-637.84227	102.70289
20200.00000	102.49418	-641.41518	102.49418
20250.00000	102.28644	-644.16677	102.28644
20300.00000	102.04743	-646.99175	102.04743
20350.00000	101.98586	-649.98776	101.98586
20400.00000	101.69635	-651.85545	101.69635
20450.00000	101.45972	-654.22898	101.45972
20500.00000	101.29808	-656.97284	101.29808
20550.00000	100.85037	-658.35994	100.85037
20600.00000	100.72276	-660.19107	100.72276
20650.00000	100.52009	-662.08833	100.52009
20700.00000	100.23840	-663.64009	100.23840
20750.00000	100.09765	-665.04491	100.09765
20800.00000	99.84801	-666.12848	99.84801
20850.00000	99.74568	-667.29810	99.74568
20900.00000	99.53180	-668.19470	99.53180
20950.00000	99.40259	-668.22980	99.40259
21000.00000	99.27074	-668.98170	99.27074
21050.00000	99.33957	-669.31059	99.33957
21100.00000	99.30571	-669.73397	99.30571
21150.00000	99.39334	-670.42573	99.39334
21200.00000	99.47723	-670.88654	99.47723
21250.00000	99.56656	-672.78025	99.56656
21300.00000	99.71154	-673.26392	99.71154
21350.00000	99.84307	-674.37258	99.84307
21400.00000	99.95637	-676.24976	99.95637
21450.00000	100.11886	-677.90329	100.11886
21500.00000	100.22678	-680.12749	100.22678
21550.00000	100.26067	-681.82470	100.26067
21600.00000	100.43554	-683.87447	100.43554
21650.00000	100.47966	-686.23140	100.47966
21700.00000	100.56087	-688.08116	100.56087
21750.00000	100.63534	-690.23374	100.63534
21800.00000	100.67534	-692.48229	100.67534
21850.00000	100.68744	-694.71517	100.68744
21900.00000	100.74367	-697.04074	100.74367
21950.00000	100.72717	-699.18927	100.72717
22000.00000	100.80665	-700.98706	100.80665
22050.00000	100.78757	-703.03193	100.78757
22100.00000	100.79912	-705.20574	100.79912
22150.00000	100.80598	-707.26616	100.80598
22200.00000	100.84083	-709.00271	100.84083
22250.00000	100.80598	-710.97933	100.80598
22300.00000	100.72477	-713.05703	100.72477
22350.00000	100.81793	-714.92293	100.81793
22400.00000	100.83389	-717.35370	100.83389
22450.00000	100.74223	-719.08295	100.74223
22500.00000	100.70323	-719.42094	100.70323
22550.00000	100.69584	-722.02229	100.69584
22600.00000	100.65135	-724.18876	100.65135
22650.00000	100.66472	-725.84421	100.66472
22700.00000	100.63770	-727.13857	100.63770
22750.00000	100.55856	-727.63848	100.55856
22800.00000	100.63749	-731.22190	100.63749
22850.00000	100.74138	-732.83108	100.74138
22900.00000	100.69825	-733.48108	100.69825
22950.00000	100.78944	-734.88758	100.78944
23000.00000	100.82377	-735.89716	100.82377
23050.00000	100.78158	-737.85356	100.78158
23100.00000	100.90973	-738.47171	100.90973
23150.00000	100.80305	-739.33277	100.80305
23200.00000	100.96313	-742.00633	100.96313
23250.00000	100.87382	-744.55721	100.87382
23300.00000	101.13394	-745.82117	101.13394
23350.00000	100.85833	-747.92258	100.85833
23400.00000	101.08424	-748.62754	101.08424
23450.00000	101.19060	-750.67525	101.19060
23500.00000	101.15230	-751.81791	101.15230
23550.00000	101.12750	-751.80633	101.12750
23600.00000	101.13852	-755.62471	101.13852
23650.00000	101.32788	-756.10461	101.32788
23700.00000	101.63419	-760.14816	101.63419
23750.00000	101.50933	-760.02513	101.50933
23800.00000	101.38573	-760.88186	101.38573
23850.00000	101.64019	-761.09198	101.64019
23900.00000	101.98293	-764.34057	101.98293
23950.00000	101.88115	-766.62723	101.88115
24000.00000	101.87076	-769.62978	101.87076
24050.00000	102.08214	-769.39541	102.08214
24100.00000	102.39711	-773.41738	102.39711
24150.00000	102.48496	-774.78662	102.48496
24200.00000	102.51865	-778.11481	102.51865
24250.00000	102.32306	-778.07170	102.32306
24300.00000	102.76023	-781.09469	102.76023
24350.00000	102.71274	-783.55595	102.71274
24400.00000	102.74504	-786.17737	102.74504
24450.00000	102.56822	-788.16077	102.56822
24500.00000	103.13854	-789.57792	103.13854
24550.00000	103.10526	-794.33053	103.10526
24600.00000	103.61963	-436.02153	103.61963
24650.00000	103.39995	-80.25751	103.39995
24700.00000	103.34516	279.28327	103.34516
24750.00000	103.55457	634.35682	103.55457
24800.00000	103.64202	991.53664	103.64202
24850.00000	103.31753	1350.48527	103.31753
24900.00000	103.52902	1708.14355	103.52902
24950.00000	103.72410	2061.50380	103.72410
25000.00000	103.86284	2055.35560	103.86284
25050.00000	104.12482	2055.91024	104.12482
25100.00000	103.41372	2051.83288	103.41372
25150.00000	103.74959	2050.46337	103.74959
25200.00000	103.57349	2045.25727	103.57349
25250.00000	103.73912	2043.84851	103.73912
25300.00000	103.73979	2040.96691	103.73979
25350.00000	103.76608	2034.05347	103.76608
25400.00000	103.48336	2030.25393	103.48336
25450.00000	103.67800	2027.49065	103.67800
25500.00000	103.29612	2025.64027	103.29612
25550.00000	103.33212	2020.33663	103.33212
25600.00000	103.22056	2017.27925	103.22056
25650.00000	103.10274	2015.05181	103.10274
25700.00000	103.11944	2011.50427	103.11944
25750.00000	102.74451	2007.71685	102.74451
25800.00000	102.66626	2003.37908	102.66626
25850.00000	102.49434	2000.73366	102.49434
25900.00000	102.26071	1997.06156	102.26071
25950.00000	101.97130	1997.41346	101.97130
26000.00000	101.99122	1991.83845	101.99122
26050.00000	101.77568	1989.02848	101.77568
26100.00000	101.57755	1986.22440	101.57755
26150.00000	101.44485	1982.57426	101.44485
26200.00000	101.39855	1980.05575	101.39855
26250.00000	101.15720	1976.83319	101.15720
26300.00000	101.14851	1973.83779	101.14851
26350.00000	100.42753	1972.44170	100.42753
26400.00000	100.57672	1969.06556	100.57672
26450.00000	100.50519	1967.24036	100.50519
26500.00000	100.11283	1962.31019	100.11283
26550.00000	100.00300	1958.20799	100.00300
26600.00000	99.87910	1956.10549	99.87910
26650.00000	99.76492	1956.56859	99.76492
26700.00000	99.65386	1953.02085	99.65386
26750.00000	99.26447	1950.36952	99.26447
26800.00000	99.08620	1945.41502	99.08620
26850.00000	99.28994	1944.74639	99.28994
26900.00000	99.14832	1943.24422	99.14832
26950.00000	99.14329	1939.28222	99.14329
27000.00000	98.71078	1938.17896	98.71078
27050.00000	98.83548	1934.90934	98.83548
27100.00000	98.46254	1934.05240	98.46254
27150.00000	98.29594	1930.14575	98.29594
27200.00000	98.30320	1927.55825	98.30320
27250.00000	97.97715	1926.91065	97.97715
27300.00000	97.62945	1922.73515	97.62945
27350.00000	97.75398	1923.38376	97.75398
27400.00000	97.44767	1919.82865	97.44767
27450.00000	97.31526	1918.43003	97.31526
27500.00000	97.11668	1916.22299	97.11668
27550.00000	97.10697	1913.73111	97.10697
27600.00000	97.41212	1910.42522	97.41212
27650.00000	96.78720	1910.56183	96.78720
27700.00000	96.99052	1905.34471	96.99052
27750.00000	96.77031	1903.13220	96.77031
27800.00000	96.95939	1899.12270	96.95939
27850.00000	97.06942	1901.98816	97.06942
27900.00000	96.56223	1898.56398	96.56223
27950.00000	95.93948	1896.10330	95.93948
28000.00000	96.11110	1895.44754	96.11110
28050.00000	96.63891	1891.60208	96.63891
28100.00000	95.99715	1888.85105	95.99715
28150.00000	96.04804	1887.60348	96.04804
28200.00000	96.28633	1882.60351	96.28633
28250.00000	95.93854	1880.24191	95.93854
28300.00000	95.45838	1880.61293	95.45838
28350.00000	95.84250	1878.33461	95.84250
28400.00000	95.61114	1877.98095	95.61114
28450.00000	96.20569	1874.12682	96.20569
28500.00000	95.55550	1872.64981	95.55550
28550.00000	95.71327	1873.70777	95.71327
28600.00000	95.34395	1870.94813	95.34395
28650.00000	95.72253	1865.35268	95.72253
28700.00000	95.48861	1866.14171	95.48861
28750.00000	96.09079	1866.20795	96.09079
28800.00000	95.62139	1862.99121	95.62139
28850.00000	95.01281	1858.70136	95.01281
28900.00000	95.13408	1857.35828	95.13408
28950.00000	94.85623	1856.92687	94.85623
29000.00000	95.22414	1854.78032	95.22414
29050.00000	94.73191	1854.65442	94.73191
29100.00000	94.67892	1852.56966	94.67892
29150.00000	94.51885	1850.76020	94.51885
29200.00000	94.09139	1848.85287	94.09139
29250.00000	94.50582	1847.91082	94.50582
29300.00000	94.03972	1845.60452	94.03972
29350.00000	94.50676	1843.08161	94.50676
29400.00000	94.24922	1843.04500	94.24922
29450.00000	93.98203	1841.06894	93.98203
29500.00000	94.19867	1841.63884	94.19867
29550.00000	93.95631	1837.22432	93.95631
29600.00000	93.77285	1838.77402	93.77285
29650.00000	93.78389	1836.51254	93.78389
29700.00000	93.64025	1838.32782	93.64025
29750.00000	93.37838	1838.34666	93.37838
29800.00000	93.04581	1835.84686	93.04581
29850.00000	93.16284	1833.25352	93.16284
29900.00000	93.45131	1835.69142	93.45131
29950.00000	92.45436	1835.46096	92.45436
30000.00000	92.86137	1837.39850	92.86137
30050.00000	92.87747	1835.46981	92.87747
30100.00000	92.37321	1837.46428	92.37321
30150.00000	92.59677	1834.91731	92.59677
30200.00000	92.53552	1834.93887	92.53552
30250.00000	92.32097	1836.25511	92.32097
30300.00000	91.96356	1837.84724	91.96356
30350.00000	92.17315	1840.26350	92.17315
30400.00000	92.16897	1840.26542	92.16897
30450.00000	91.80107	1839.93724	91.80107
30500.00000	92.06587	1841.43269	92.06587
30550.00000	92.02032	1844.79936	92.02032
30600.00000	92.03333	1846.25758	92.03333
30650.00000	92.17140	1848.21344	92.17140
30700.00000	92.31143	1849.02692	92.31143
30750.00000	92.45458	1851.29083	92.45458
30800.00000	92.58851	1852.60682	92.58851
30850.00000	93.04714	1854.83552	93.04714
30900.00000	93.07590	1858.25539	93.07590
30950.00000	93.58022	1858.51188	93.58022
31000.00000	93.99065	1858.49007	93.99065
31050.00000	94.45997	1860.73482	94.45997
31100.00000	95.05600	1862.43000	95.05600
31150.00000	95.23508	1861.87659	95.23508
31200.00000	96.12841	1862.72767	96.12841
31250.00000	96.49749	1862.55281	96.49749
31300.00000	97.11243	1860.95262	97.11243
31350.00000	97.58724	1859.71721	97.58724
31400.00000	97.91428	1858.59870	97.91428
31450.00000	98.51477	1857.76917	98.51477
31500.00000	98.88568	1854.52760	98.88568
31550.00000	99.32828	1852.19174	99.32828
31600.00000	99.88371	1849.45238	99.88371
31650.00000	100.25853	1846.62472	100.25853
31700.00000	100.56518	1844.68909	100.56518
31750.00000	100.98731	1842.73836	100.98731
31800.00000	101.23649	1839.07373	101.23649
31850.00000	101.47319	1834.21155	101.47319
31900.00000	101.69452	1832.06537	101.69452
31950.00000	101.83015	1828.51742	101.83015
32000.00000	102.08686	1824.57575	102.08686
32050.00000	102.25225	1822.50079	102.25225
32100.00000	102.24168	1818.20589	102.24168
32150.00000	102.28377	1815.00891	102.28377
32200.00000	102.56806	1811.67217	102.56806
32250.00000	102.54994	1807.90308	102.54994
32300.00000	102.56888	1805.56628	102.56888
32350.00000	102.57355	1802.61379	102.57355
32400.00000	102.81346	1799.30297	102.81346
32450.00000	102.53506	1795.73789	102.53506
32500.00000	102.65591	1793.82786	102.65591
32550.00000	102.94045	1788.37059	102.94045
32600.00000	102.73292	1787.54086	102.73292
32650.00000	102.68207	1783.41126	102.68207
32700.00000	102.61206	1780.69118	102.61206
32750.00000	102.49128	1778.43532	102.49128
32800.00000	102.57085	1776.08540	102.57085
32850.00000	102.72118	1773.61415	102.72118
32900.00000	102.60570	1770.02187	102.60570
32950.00000	102.44565	1766.72525	102.44565
33000.00000	102.38136	1766.41770	102.38136
33050.00000	102.46977	1762.23547	102.46977
33100.00000	102.42501	1759.88822	102.42501
33150.00000	102.50517	1757.64867	102.50517
33200.00000	102.74259	1756.75121	102.74259
33250.00000	102.63508	1753.72232	102.63508
33300.00000	102.63106	1751.70245	102.63106
33350.00000	102.61751	1748.71292	102.61751
33400.00000	102.76787	1746.96862	102.76787
33450.00000	102.82558	1744.61641	102.82558
33500.00000	103.13860	1743.41244	103.13860
33550.00000	103.05444	1739.62013	103.05444
33600.00000	103.48525	1737.50372	103.48525
33650.00000	103.58521	1734.74293	103.58521
33700.00000	103.59879	1731.54687	103.59879
33750.00000	103.62887	1728.56926	103.62887
33800.00000	103.94992	1725.67547	103.94992
33850.00000	103.88405	1723.15677	103.88405
33900.00000	104.19182	1719.32158	104.19182
33950.00000	104.42855	1716.96321	104.42855
34000.00000	104.57642	1713.38574	104.57642
34050.00000	104.55814	1709.29290	104.55814
34100.00000	104.54039	1706.58651	104.54039
34150.00000	104.66874	1702.67010	104.66874
34200.00000	104.86773	1701.46615	104.86773
34250.00000	104.98989	1695.88749	104.98989
34300.00000	104.98294	1693.35471	104.98294
34350.00000	105.31749	1688.88725	105.31749
34400.00000	104.84356	1688.10917	104.84356
34450.00000	105.17405	1681.50221	105.17405
34500.00000	104.93519	1679.45101	104.93519
34550.00000	105.15040	1676.57873	105.15040
34600.00000	104.83927	1672.99648	104.83927
34650.00000	105.34186	1673.08867	105.34186
34700.00000	104.94931	1670.25128	104.94931
34750.00000	105.20840	1663.29529	105.20840
34800.00000	105.26827	1663.70687	105.26827
34850.00000	105.59226	1662.43902	105.59226
34900.00000	105.73709	1658.32683	105.73709
34950.00000	105.50073	1657.58064	105.50073
35000.00000	105.67337	1654.24462	105.67337
35050.00000	105.83154	1652.14197	105.83154
35100.00000	106.07586	1648.77079	106.07586
35150.00000	105.93828	1646.54780	105.93828
35200.00000	106.02929	1643.54859	106.02929
35250.00000	106.13966	1640.86925	106.13966
35300.00000	106.44717	1637.84708	106.44717
35350.00000	106.51668	1635.50983	106.51668
35400.00000	106.69289	1633.42882	106.69289
35450.00000	106.88098	1631.06398	106.88098
35500.00000	106.69675	1628.63119	106.69675
35550.00000	107.15295	1627.09217	107.15295
35600.00000	107.16742	1623.63654	107.16742
35650.00000	107.40298	1621.51903	107.40298
35700.00000	107.48888	1619.41594	107.48888
35750.00000	107.53010	1618.37410	107.53010
35800.00000	107.80841	1616.66173	107.80841
35850.00000	108.15685	1612.73211	108.15685
35900.00000	108.36132	1609.88793	108.36132
35950.00000	108.62609	1607.11645	108.62609
36000.00000	108.76015	1605.50139	108.76015
36050.00000	108.97154	1600.81833	108.97154
36100.00000	109.30972	1599.25012	109.30972
36150.00000	109.40431	1596.36955	109.40431
36200.00000	109.66391	1594.96899	109.66391
36250.00000	109.71357	1590.98086	109.71357
36300.00000	109.75113	1588.95752	109.75113
36350.00000	110.14977	1586.48011	110.14977
36400.00000	110.52037	1583.23852	110.52037
36450.00000	110.33106	1580.32975	110.33106
36500.00000	110.72017	1578.43136	110.72017
36550.00000	110.72018	1574.43114	110.72018
36600.00000	110.90601	1571.33178	110.90601
36650.00000	111.01989	1568.93121	111.01989
36700.00000	111.30048	1565.82332	111.30048
36750.00000	111.34990	1562.40451	111.34990
36800.00000	111.37257	1559.97540	111.37257
36850.00000	111.38957	1556.63366	111.38957
36900.00000	111.64069	1553.63895	111.64069
36950.00000	111.46828	1551.11312	111.46828
37000.00000	111.34447	1548.98080	111.34447
37050.00000	111.37801	1546.68354	111.37801
37100.00000	111.63467	1543.39745	111.63467
37150.00000	111.72402	1539.99687	111.72402
37200.00000	111.90317	1538.40235	111.90317
37250.00000	111.48061	1535.57772	111.48061
37300.00000	111.55300	1533.53817	111.55300
37350.00000	111.81677	1531.21921	111.81677
37400.00000	111.61091	1529.46900	111.61091
37450.00000	111.42603	1527.65641	111.42603
37500.00000	111.97554	1524.77812	111.97554
37550.00000	111.66837	1523.26506	111.66837
37600.00000	111.66672	1521.28362	111.66672
37650.00000	111.72699	1519.06436	111.72699
37700.00000	111.80767	1515.80896	111.80767
37750.00000	111.79620	1515.20477	111.79620
37800.00000	111.85172	1514.85811	111.85172
37850.00000	111.83694	1507.82638	111.83694
37900.00000	111.79314	1506.93648	111.79314
37950.00000	111.91872	1504.96841	111.91872
38000.00000	111.75403	1502.97729	111.75403
38050.00000	111.97013	1500.40130	111.97013
38100.00000	112.06827	1497.65924	112.06827
38150.00000	112.01986	1494.90726	112.01986
38200.00000	112.15901	1491.30123	112.15901
38250.00000	112.19207	1488.81653	112.19207
38300.00000	112.27121	1485.01676	112.27121
38350.00000	112.29763	1482.85449	112.29763
38400.00000	112.40411	1479.46141	112.40411
38450.00000	112.45265	1475.64193	112.45265
38500.00000	112.54665	1471.17791	112.54665
38550.00000	112.60185	1468.16037	112.60185
38600.00000	112.63764	1464.55532	112.63764
38650.00000	112.61779	1459.72336	112.61779
38700.00000	112.59885	1455.30161	112.59885
38750.00000	112.59107	1451.68037	112.59107
38800.00000	112.58298	1446.95710	112.58298
38850.00000	112.55969	1442.26926	112.55969
38900.00000	112.47013	1437.63718	112.47013
38950.00000	112.33613	1432.55527	112.33613
39000.00000	112.20011	1428.35023	112.20011
39050.00000	112.09958	1423.67478	112.09958
39100.00000	111.75355	1418.32925	111.75355
39150.00000	111.46017	1414.61864	111.46017
39200.00000	111.35069	1410.47705	111.35069
39250.00000	111.05109	1405.39716	111.05109
39300.00000	110.80187	1400.60026	110.80187
39350.00000	110.55625	1397.37680	110.55625
39400.00000	110.26013	1392.53218	110.26013
39450.00000	109.85556	1389.50739	109.85556
39500.00000	109.60383	1385.14979	109.60383
39550.00000	109.15505	1382.56814	109.15505
39600.00000	108.86392	1378.44279	108.86392
39650.00000	108.66860	1375.48370	108.66860
39700.00000	108.13443	1372.39899	108.13443
39750.00000	107.89583	1368.84579	107.89583
39800.00000	107.56043	1366.77526	107.56043
39850.00000	107.23919	1363.69493	107.23919
39900.00000	106.87246	1361.76010	106.87246
39950.00000	106.69910	1358.15385	106.69910
40000.00000	106.13958	1357.72382	106.13958
40050.00000	106.07845	1353.38129	106.07845
40100.00000	105.87109	1351.13624	105.87109
40150.00000	105.56799	1349.87923	105.56799
40200.00000	105.39412	1346.93572	105.39412
40250.00000	105.21838	1346.34984	105.21838
40300.00000	105.00102	1343.77501	105.00102
40350.00000	104.71389	1342.88089	104.71389
40400.00000	104.48647	1339.80887	104.48647
40450.00000	104.40329	1339.77375	104.40329
40500.00000	104.39180	1338.92846	104.39180
40550.00000	104.19607	1334.86084	104.19607
40600.00000	104.09200	1334.11580	104.09200
40650.00000	103.93152	1333.47234	103.93152
40700.00000	103.40993	1332.45372	103.40993
40750.00000	103.79028	1331.24385	103.79028
40800.00000	103.60208	1330.02436	103.60208
40850.00000	103.53168	1330.70915	103.53168
40900.00000	103.57249	1328.90486	103.57249
40950.00000	103.43105	1327.72418	103.43105
41000.00000	103.54065	1326.64103	103.54065
41050.00000	103.61109	1325.69413	103.61109
41100.00000	103.70155	1325.38425	103.70155
41150.00000	103.76408	1326.53428	103.76408
41200.00000	103.86672	1324.83350	103.86672
41250.00000	104.04746	1321.81563	104.04746
41300.00000	103.90270	1322.87993	103.90270
41350.00000	104.20379	1323.27856	104.20379
41400.00000	104.23199	1317.85504	104.23199
41450.00000	104.78326	1321.61642	104.78326
41500.00000	104.59678	1316.29149	104.59678
41550.00000	104.47193	1321.43698	104.47193
41600.00000	104.39313	1318.14105	104.39313
41650.00000	105.16622	1315.80382	105.16622
41700.00000	105.46866	1315.32849	105.46866
41750.00000	105.39720	1318.29370	105.39720
41800.00000	104.87237	1312.96437	104.87237
41850.00000	105.23672	1310.84570	105.23672
41900.00000	104.53179	1311.78501	104.53179
41950.00000	106.34843	1316.25360	106.34843
42000.00000	104.99937	1311.96258	104.99937
42050.00000	104.56922	1309.40110	104.56922
42100.00000	105.17719	1310.21356	105.17719
42150.00000	104.66594	1304.98516	104.66594
42200.00000	104.56390	1308.78880	104.56390
42250.00000	104.71854	1308.73158	104.71854
42300.00000	103.57189	1304.99384	103.57189
42350.00000	104.25100	1304.36012	104.25100
42400.00000	104.21065	1302.83272	104.21065
42450.00000	104.81699	1300.98679	104.81699
42500.00000	103.68074	1303.07597	103.68074
42550.00000	104.16343	1313.41795	104.16343
42600.00000	103.86174	1307.44341	103.86174
42650.00000	103.48404	1305.64739	103.48404
42700.00000	103.39345	1303.21072	103.39345
42750.00000	104.10964	1301.00828	104.10964
42800.00000	102.92806	1300.18708	102.92806
42850.00000	102.67019	1298.00917	102.67019
42900.00000	103.93861	1301.63420	103.93861
42950.00000	103.05249	1297.97881	103.05249
43000.00000	103.35223	1286.52780	103.35223
43050.00000	102.89031	1290.50032	102.89031
43100.00000	102.62359	1291.97314	102.62359
43150.00000	102.01423	1288.99735	102.01423
43200.00000	101.90331	1284.27046	101.90331
43250.00000	101.85826	1282.33044	101.85826
43300.00000	102.15407	1281.13415	102.15407
43350.00000	102.98490	1281.55109	102.98490
43400.00000	101.74884	1280.56641	101.74884
43450.00000	102.74736	1277.19242	102.74736
43500.00000	101.61839	1269.39200	101.61839
43550.00000	102.55984	1268.81909	102.55984
43600.00000	101.64483	1266.03635	101.64483
43650.00000	102.07732	1258.45361	102.07732
43700.00000	101.91742	1256.54814	101.91742
43750.00000	101.25257	1253.77462	101.25257
43800.00000	101.47588	1246.46666	101.47588
43850.00000	101.84026	1240.75642	101.84026
43900.00000	101.82624	1239.11012	101.82624
43950.00000	101.12767	1232.86262	101.12767
44000.00000	100.47500	1231.70060	100.47500
44050.00000	100.82827	1222.85806	100.82827
44100.00000	100.81061	1211.71990	100.81061
44150.00000	100.62023	1217.27527	100.62023
44200.00000	99.93429	1211.98819	99.93429
44250.00000	99.97642	1209.44083	99.97642
44300.00000	100.07938	1200.06869	100.07938
44350.00000	99.47174	1196.67155	99.47174
44400.00000	99.24294	1193.01476	99.24294
44450.00000	99.69527	1190.81285	99.69527
44500.00000	98.53487	1187.76225	98.53487
44550.00000	100.02578	1180.39495	100.02578
44600.00000	98.62022	1179.42519	98.62022
44650.00000	97.80036	1171.72174	97.80036
44700.00000	97.59285	1169.27438	97.59285
44750.00000	97.05776	1169.99958	97.05776
44800.00000	97.42651	1156.01991	97.42651
44850.00000	96.87096	1159.77173	96.87096
44900.00000	96.08135	1149.35378	96.08135
44950.00000	96.66098	1146.93898	96.66098
45000.00000	96.52026	1137.54101	96.52026
45050.00000	95.74643	1142.24482	95.74643
45100.00000	95.72389	1133.14279	95.72389
45150.00000	94.67947	1121.71523	94.67947
45200.00000	94.29082	1125.11733	94.29082
45250.00000	95.86790	1123.38284	95.86790
45300.00000	93.89714	1115.58293	93.89714
45350.00000	93.91004	1107.99173	93.91004
45400.00000	94.36557	1105.10646	94.36557
45450.00000	93.74718	1097.25439	93.74718
45500.00000	92.60608	1086.65199	92.60608
45550.00000	92.66108	1088.85448	92.66108
45600.00000	93.82196	1084.71537	93.82196
45650.00000	92.01000	1080.29927	92.01000
45700.00000	91.48576	1076.33545	91.48576
45750.00000	91.67261	1071.51708	91.67261
45800.00000	90.08182	1067.67111	90.08182
45850.00000	90.57875	1072.62971	90.57875
45900.00000	90.03106	1055.94391	90.03106
45950.00000	89.85269	1069.73513	89.85269
46000.00000	88.03520	1047.92458	88.03520
46050.00000	87.97887	1042.47536	87.97887
46100.00000	86.66698	1050.20116	86.66698
46150.00000	87.87368	1045.06590	87.87368
46200.00000	84.61351	1034.60783	84.61351
46250.00000	86.06119	1030.53229	86.06119
46300.00000	86.02694	1033.64653	86.02694
46350.00000	84.69927	1016.53355	84.69927
46400.00000	83.96099	1017.95761	83.96099
46450.00000	84.36205	1022.74419	84.36205
46500.00000	82.68759	1023.10617	82.68759
46550.00000	81.94754	1021.39697	81.94754
46600.00000	80.89959	1040.44429	80.89959
46650.00000	79.04362	1008.08235	79.04362
46700.00000	77.84414	996.14097	77.84414
46750.00000	79.79897	1029.60259	79.79897
46800.00000	77.31866	1014.09887	77.31866
46850.00000	80.63573	670.97088	80.63573
46900.00000	77.88892	647.31309	77.88892
46950.00000	80.68979	649.91360	80.68979
47000.00000	78.11170	658.33184	78.11170
47050.00000	79.46089	662.84410	79.46089
47100.00000	80.06993	645.63016	80.06993
47150.00000	78.73369	646.91347	78.73369
47200.00000	79.17200	651.95748	79.17200
47250.00000	79.65074	642.72206	79.65074
47300.00000	77.98743	617.43680	77.98743
47350.00000	80.86058	289.06112	80.86058
47400.00000	76.98166	302.26606	76.98166
47450.00000	80.04083	289.53824	80.04083
47500.00000	75.55279	258.13041	75.55279
47550.00000	77.10233	-68.46474	77.10233
47600.00000	76.52381	-90.65478	76.52381
47650.00000	80.17819	-70.92353	80.17819
47700.00000	77.24216	-83.68923	77.24216
47750.00000	76.84676	-78.08282	76.84676
47800.00000	80.21437	-93.09077	80.21437
47850.00000	80.53871	-454.46176	80.53871
47900.00000	77.80539	-791.55451	77.80539
47950.00000	77.13078	-803.19847	77.13078
48000.00000	81.32898	-795.12723	81.32898
48050.00000	81.44911	-798.48011	81.44911
48100.00000	79.39108	-821.35391	79.39108
48150.00000	76.45897	-1182.67851	76.45897
48200.00000	81.44939	-1175.03096	81.44939
48250.00000	80.37202	-1186.86430	80.37202
48300.00000	79.44209	-1193.84191	79.44209
48350.00000	76.92678	-1200.00756	76.92678
48400.00000	82.13802	-1560.08850	82.13802
48450.00000	82.42422	-1558.58503	82.42422
48500.00000	81.55037	-1555.36359	81.55037
48550.00000	80.40318	-1576.15340	80.40318
48600.00000	81.43684	-1940.43486	81.43684
48650.00000	81.70926	-1920.70557	81.70926
48700.00000	83.75231	-1941.41824	83.75231
48750.00000	79.75084	-2292.40961	79.75084
48800.00000	79.46397	-2293.74266	79.46397
48850.00000	79.72064	-2309.73150	79.72064
48900.00000	77.61898	-2658.53301	77.61898
48950.00000	77.47358	-2680.66038	77.47358
49000.00000	80.50639	-2663.53947	80.50639
49050.00000	81.25743	-2709.24104	81.25743
49100.00000	82.95653	-3040.80776	82.95653
49150.00000	82.02325	-3419.17336	82.02325
49200.00000	82.56966	-3418.47231	82.56966
49250.00000	76.04992	-3775.94627	76.04992
49300.00000	79.76169	-3421.20731	79.76169
49350.00000	77.30215	-3409.78924	77.30215
49400.00000	78.89765	-3057.01713	78.89765
49450.00000	79.24790	-2713.46685	79.24790
49500.00000	77.85123	-2375.11710	77.85123
49550.00000	80.51154	-2032.30573	80.51154
49600.00000	78.57558	-2026.16123	78.57558
49650.00000	77.32055	-2028.61658	77.32055
49700.00000	83.84871	-1710.38625	83.84871
49750.00000	75.20907	-1664.72511	75.20907
49800.00000	74.39009	-1696.96130	74.39009
49850.00000	80.73714	-1682.41565	80.73714
49900.00000	80.17487	-1353.85821	80.17487
49950.00000	84.65705	-1014.29227	84.65705
