---ACOUSTIC CALIBRATION---
Filename: C:\Data\AZH DATA\AZH72\RightSecondary.calib
Date: 8/27/2019 5:52:44 PM
Format: 4
Probe Tube Correction File: C:\Data\Probe Tube Calibrations\50_ProbeTube.calib
Experiment VIs: 850
EPL_CFTS.exe V12.0.1 (2012)
DAQmx V9.6

Attenuation (dB): 40.000000
Min Freq (Hz): 50.000000
Max Freq (Hz): 49950.000000
Freq Step (Hz): 50.000000
Sample Rate (Hz): 100000.000000
[Smoothing]
Method=None
MA.Iterations=0
MA.Length=0
Loess.Length=0
Loess.Type=Linear
Loess.Robust=FALSE


Freq(Hz)	Mag(dB)	Phase(deg)	Unsmoothed(dB)

50.00000	103.90553	310.03887	103.90553
100.00000	87.59289	208.74846	87.59289
150.00000	80.07569	111.63245	80.07569
200.00000	78.72035	100.41425	78.72035
250.00000	82.94207	54.31555	82.94207
300.00000	87.08717	-46.19482	87.08717
350.00000	83.73377	-26.16641	83.73377
400.00000	85.87196	-36.77310	85.87196
450.00000	85.51210	-64.72689	85.51210
500.00000	84.33247	-6.68467	84.33247
550.00000	88.40538	-29.70282	88.40538
600.00000	90.43009	-33.44045	90.43009
650.00000	93.55647	-31.65702	93.55647
700.00000	96.30477	-34.67931	96.30477
750.00000	97.38487	-42.13263	97.38487
800.00000	99.75159	-50.79158	99.75159
850.00000	102.73247	-62.97572	102.73247
900.00000	104.42630	-80.33440	104.42630
950.00000	105.58012	-96.99844	105.58012
1000.00000	105.53641	-114.36991	105.53641
1050.00000	105.06104	-123.19431	105.06104
1100.00000	105.22709	-134.34243	105.22709
1150.00000	104.46316	-144.36257	104.46316
1200.00000	104.21409	-146.24598	104.21409
1250.00000	104.40765	-157.01075	104.40765
1300.00000	103.41612	-164.36192	103.41612
1350.00000	102.75829	-168.57051	102.75829
1400.00000	102.33007	-169.80562	102.33007
1450.00000	102.12264	-168.53556	102.12264
1500.00000	101.77592	-169.84700	101.77592
1550.00000	102.38547	-171.70121	102.38547
1600.00000	103.41399	-172.43515	103.41399
1650.00000	104.00895	-182.64897	104.00895
1700.00000	102.82863	-185.51086	102.82863
1750.00000	102.84692	-188.65010	102.84692
1800.00000	102.44555	-190.55910	102.44555
1850.00000	102.45803	-189.27617	102.45803
1900.00000	103.50469	-187.78005	103.50469
1950.00000	104.27030	-195.72157	104.27030
2000.00000	104.08450	-204.51961	104.08450
2050.00000	103.19911	-207.89668	103.19911
2100.00000	103.53256	-209.30183	103.53256
2150.00000	102.98707	-213.71436	102.98707
2200.00000	102.43262	-216.98441	102.43262
2250.00000	101.64195	-218.68966	101.64195
2300.00000	101.68625	-216.88741	101.68625
2350.00000	101.47092	-216.44654	101.47092
2400.00000	101.51756	-217.59245	101.51756
2450.00000	101.41055	-219.09046	101.41055
2500.00000	101.03221	-219.50160	101.03221
2550.00000	100.61480	-216.29049	100.61480
2600.00000	100.58487	-209.99798	100.58487
2650.00000	101.51455	-203.36103	101.51455
2700.00000	103.16493	-201.55808	103.16493
2750.00000	104.84696	-208.80683	104.84696
2800.00000	105.46456	-218.68264	105.46456
2850.00000	105.54325	-227.24023	105.54325
2900.00000	105.12077	-233.61187	105.12077
2950.00000	104.88482	-237.62805	104.88482
3000.00000	104.56334	-241.42306	104.56334
3050.00000	104.15896	-244.96818	104.15896
3100.00000	103.99818	-247.84057	103.99818
3150.00000	103.52018	-252.53904	103.52018
3200.00000	102.74328	-254.90223	102.74328
3250.00000	102.06802	-256.90571	102.06802
3300.00000	101.18823	-258.16446	101.18823
3350.00000	99.85653	-256.46120	99.85653
3400.00000	98.99601	-247.08291	98.99601
3450.00000	98.85771	-236.73720	98.85771
3500.00000	99.21327	-230.59438	99.21327
3550.00000	100.06605	-225.99841	100.06605
3600.00000	100.68302	-223.33289	100.68302
3650.00000	100.77203	-222.84525	100.77203
3700.00000	100.38010	-217.27970	100.38010
3750.00000	100.75034	-205.50172	100.75034
3800.00000	102.16489	-195.42123	102.16489
3850.00000	104.11709	-189.91057	104.11709
3900.00000	106.16478	-188.25301	106.16478
3950.00000	107.96944	-190.98918	107.96944
4000.00000	109.49377	-194.91290	109.49377
4050.00000	110.72400	-199.54699	110.72400
4100.00000	111.75316	-203.63636	111.75316
4150.00000	112.88095	-207.34835	112.88095
4200.00000	113.71961	-211.50712	113.71961
4250.00000	114.63481	-215.40752	114.63481
4300.00000	115.49183	-219.01705	115.49183
4350.00000	116.35076	-222.36089	116.35076
4400.00000	117.31706	-225.09856	117.31706
4450.00000	118.44826	-228.14812	118.44826
4500.00000	119.73351	-232.13417	119.73351
4550.00000	121.10527	-237.48911	121.10527
4600.00000	122.49044	-244.28174	122.49044
4650.00000	123.92444	-252.41047	123.92444
4700.00000	125.27399	-262.66960	125.27399
4750.00000	126.46716	-275.00335	126.46716
4800.00000	127.37500	-289.35409	127.37500
4850.00000	127.85606	-304.98620	127.85606
4900.00000	127.82649	-320.87471	127.82649
4950.00000	127.28407	-335.81810	127.28407
5000.00000	126.26510	-348.13402	126.26510
5050.00000	125.18901	-356.87479	125.18901
5100.00000	123.96283	-366.60692	123.96283
5150.00000	121.46109	-369.66294	121.46109
5200.00000	120.16857	-351.71511	120.16857
5250.00000	123.22370	-344.53063	123.22370
5300.00000	125.03354	-357.63138	125.03354
5350.00000	125.40125	-370.98169	125.40125
5400.00000	125.20849	-381.98649	125.20849
5450.00000	124.82627	-391.00082	124.82627
5500.00000	124.36381	-398.69696	124.36381
5550.00000	123.89862	-405.35052	123.89862
5600.00000	123.44804	-411.42703	123.44804
5650.00000	123.00599	-416.88106	123.00599
5700.00000	122.56259	-422.19363	122.56259
5750.00000	122.16166	-426.98156	122.16166
5800.00000	121.73312	-431.62552	121.73312
5850.00000	121.33115	-436.01549	121.33115
5900.00000	120.95547	-440.22159	120.95547
5950.00000	120.60716	-444.24331	120.60716
6000.00000	120.24629	-448.13533	120.24629
6050.00000	119.88383	-452.01782	119.88383
6100.00000	119.55448	-455.71472	119.55448
6150.00000	119.20064	-459.31275	119.20064
6200.00000	118.84374	-462.71967	118.84374
6250.00000	118.51872	-466.20137	118.51872
6300.00000	118.21765	-469.56398	118.21765
6350.00000	117.86224	-472.90725	117.86224
6400.00000	117.54577	-476.15990	117.54577
6450.00000	117.22940	-479.24549	117.22940
6500.00000	116.92024	-482.37391	116.92024
6550.00000	116.58403	-485.35228	116.58403
6600.00000	116.25444	-488.15051	116.25444
6650.00000	115.93391	-490.89864	115.93391
6700.00000	115.59645	-493.67825	115.59645
6750.00000	115.26033	-496.22086	115.26033
6800.00000	114.93885	-498.56238	114.93885
6850.00000	114.63181	-500.85278	114.63181
6900.00000	114.32537	-503.03385	114.32537
6950.00000	114.01443	-505.00799	114.01443
7000.00000	113.75676	-506.94916	113.75676
7050.00000	113.49618	-509.05345	113.49618
7100.00000	113.25325	-511.02750	113.25325
7150.00000	112.99118	-512.67143	112.99118
7200.00000	112.74746	-514.48069	112.74746
7250.00000	112.45652	-516.22145	112.45652
7300.00000	112.26210	-517.61939	112.26210
7350.00000	112.01518	-518.73214	112.01518
7400.00000	111.85090	-519.88545	111.85090
7450.00000	111.68233	-521.05101	111.68233
7500.00000	111.55870	-522.20897	111.55870
7550.00000	111.45397	-523.11684	111.45397
7600.00000	111.39799	-524.15104	111.39799
7650.00000	111.36450	-525.29005	111.36450
7700.00000	111.41111	-526.50644	111.41111
7750.00000	111.37554	-528.04076	111.37554
7800.00000	111.41649	-529.68419	111.41649
7850.00000	111.46491	-531.16887	111.46491
7900.00000	111.56136	-532.92992	111.56136
7950.00000	111.63338	-535.27189	111.63338
8000.00000	111.67735	-537.62635	111.67735
8050.00000	111.73916	-540.28724	111.73916
8100.00000	111.81431	-542.34987	111.81431
8150.00000	111.79934	-544.98115	111.79934
8200.00000	111.83385	-547.29208	111.83385
8250.00000	111.85978	-550.25850	111.85978
8300.00000	111.88982	-553.10335	111.88982
8350.00000	111.89073	-555.86217	111.89073
8400.00000	111.88350	-559.14675	111.88350
8450.00000	111.80555	-562.20839	111.80555
8500.00000	111.74306	-565.40965	111.74306
8550.00000	111.70417	-568.48903	111.70417
8600.00000	111.62576	-572.01625	111.62576
8650.00000	111.48499	-575.25491	111.48499
8700.00000	111.38545	-579.27336	111.38545
8750.00000	111.20372	-581.81129	111.20372
8800.00000	111.03292	-585.74001	111.03292
8850.00000	110.78612	-589.13581	110.78612
8900.00000	110.59882	-592.08105	110.59882
8950.00000	110.37674	-595.30628	110.37674
9000.00000	110.09979	-598.16914	110.09979
9050.00000	109.93024	-601.30309	109.93024
9100.00000	109.68179	-603.85749	109.68179
9150.00000	109.46461	-606.40264	109.46461
9200.00000	109.25342	-608.75709	109.25342
9250.00000	108.97459	-610.81310	108.97459
9300.00000	108.77452	-612.76959	108.77452
9350.00000	108.59749	-614.67791	108.59749
9400.00000	108.32041	-616.23634	108.32041
9450.00000	108.15573	-617.89451	108.15573
9500.00000	108.02726	-619.21620	108.02726
9550.00000	107.87409	-620.47316	107.87409
9600.00000	107.85790	-622.17791	107.85790
9650.00000	107.82575	-623.92676	107.82575
9700.00000	107.80753	-624.79445	107.80753
9750.00000	107.85615	-626.76947	107.85615
9800.00000	107.84042	-627.73297	107.84042
9850.00000	107.84778	-628.78337	107.84778
9900.00000	107.67588	-630.51964	107.67588
9950.00000	107.64805	-631.76051	107.64805
10000.00000	107.62176	-633.98146	107.62176
10050.00000	107.54980	-636.32135	107.54980
10100.00000	107.46467	-638.94826	107.46467
10150.00000	107.33936	-642.34658	107.33936
10200.00000	107.34360	-645.42460	107.34360
10250.00000	107.28578	-648.76542	107.28578
10300.00000	107.37134	-651.73816	107.37134
10350.00000	107.32229	-654.50964	107.32229
10400.00000	107.20169	-657.45631	107.20169
10450.00000	107.19026	-660.55370	107.19026
10500.00000	107.10277	-663.38517	107.10277
10550.00000	106.95109	-666.63328	106.95109
10600.00000	106.76336	-669.60832	106.76336
10650.00000	106.57974	-672.43898	106.57974
10700.00000	106.43390	-676.52205	106.43390
10750.00000	106.35930	-679.78807	106.35930
10800.00000	106.20912	-682.65122	106.20912
10850.00000	106.06048	-686.38307	106.06048
10900.00000	105.89561	-688.71728	105.89561
10950.00000	105.69641	-690.87345	105.69641
11000.00000	105.42449	-693.48334	105.42449
11050.00000	104.97417	-696.05038	104.97417
11100.00000	104.63065	-699.18653	104.63065
11150.00000	104.19761	-701.94126	104.19761
11200.00000	103.94012	-704.68039	103.94012
11250.00000	103.59219	-707.74780	103.59219
11300.00000	103.25988	-710.42520	103.25988
11350.00000	102.97802	-712.09580	102.97802
11400.00000	102.56795	-713.80218	102.56795
11450.00000	102.22252	-715.86813	102.22252
11500.00000	101.95707	-716.58693	101.95707
11550.00000	101.47909	-717.90717	101.47909
11600.00000	101.22659	-720.19289	101.22659
11650.00000	100.88054	-721.16949	100.88054
11700.00000	100.70057	-722.85165	100.70057
11750.00000	100.56382	-724.58663	100.56382
11800.00000	100.36512	-726.49619	100.36512
11850.00000	100.22582	-726.85991	100.22582
11900.00000	99.85132	-728.64376	99.85132
11950.00000	99.61456	-729.38908	99.61456
12000.00000	99.21453	-730.51758	99.21453
12050.00000	98.87663	-731.84255	98.87663
12100.00000	98.61437	-734.10192	98.61437
12150.00000	98.34593	-736.42140	98.34593
12200.00000	98.16555	-738.75240	98.16555
12250.00000	97.91677	-739.90892	97.91677
12300.00000	98.74955	-741.58756	98.74955
12350.00000	97.32772	-742.37129	97.32772
12400.00000	96.90277	-742.44675	96.90277
12450.00000	96.50394	-742.89857	96.50394
12500.00000	96.06808	-744.34041	96.06808
12550.00000	95.65799	-744.81000	95.65799
12600.00000	95.15725	-746.07045	95.15725
12650.00000	95.04617	-745.74117	95.04617
12700.00000	94.67140	-745.56704	94.67140
12750.00000	94.31381	-745.83490	94.31381
12800.00000	94.06613	-744.21914	94.06613
12850.00000	93.45150	-743.69716	93.45150
12900.00000	93.23272	-743.69873	93.23272
12950.00000	93.03967	-743.94676	93.03967
13000.00000	93.03677	-743.59887	93.03677
13050.00000	92.93307	-742.59339	92.93307
13100.00000	92.91068	-741.01295	92.91068
13150.00000	92.82275	-739.98143	92.82275
13200.00000	92.71446	-737.31918	92.71446
13250.00000	92.64213	-737.53388	92.64213
13300.00000	92.41988	-735.39314	92.41988
13350.00000	92.35753	-736.14294	92.35753
13400.00000	92.55019	-736.83583	92.55019
13450.00000	92.61176	-735.45079	92.61176
13500.00000	92.89221	-734.16702	92.89221
13550.00000	92.77117	-734.49932	92.77117
13600.00000	92.89679	-733.32256	92.89679
13650.00000	92.88935	-732.64071	92.88935
13700.00000	92.70467	-733.13355	92.70467
13750.00000	92.81520	-733.51026	92.81520
13800.00000	92.71439	-735.67556	92.71439
13850.00000	92.80356	-737.77248	92.80356
13900.00000	92.69460	-738.36882	92.69460
13950.00000	92.90735	-739.19949	92.90735
14000.00000	93.32058	-738.10925	93.32058
14050.00000	93.33253	-739.10371	93.33253
14100.00000	93.28902	-738.06343	93.28902
14150.00000	93.30336	-737.23799	93.30336
14200.00000	93.34203	-737.50959	93.34203
14250.00000	93.60880	-735.53286	93.60880
14300.00000	93.54426	-736.69255	93.54426
14350.00000	93.51122	-734.53384	93.51122
14400.00000	93.37761	-736.12810	93.37761
14450.00000	93.43068	-735.38199	93.43068
14500.00000	93.59650	-736.54061	93.59650
14550.00000	93.90635	-735.62958	93.90635
14600.00000	93.85469	-736.70534	93.85469
14650.00000	94.40453	-734.65821	94.40453
14700.00000	94.52281	-738.44657	94.52281
14750.00000	94.68577	-737.81138	94.68577
14800.00000	94.76431	-738.12262	94.76431
14850.00000	95.10320	-738.18575	95.10320
14900.00000	95.30952	-738.56415	95.30952
14950.00000	95.49385	-740.15182	95.49385
15000.00000	95.73743	-741.43384	95.73743
15050.00000	95.78068	-740.53469	95.78068
15100.00000	95.95040	-740.81585	95.95040
15150.00000	96.34768	-742.36812	96.34768
15200.00000	96.39639	-740.82999	96.39639
15250.00000	96.40874	-742.26165	96.40874
15300.00000	96.79278	-742.22450	96.79278
15350.00000	96.95908	-743.48753	96.95908
15400.00000	97.00228	-742.78135	97.00228
15450.00000	97.21414	-744.09298	97.21414
15500.00000	97.58105	-745.32661	97.58105
15550.00000	97.98695	-747.02115	97.98695
15600.00000	98.38786	-747.46022	98.38786
15650.00000	98.80110	-745.65227	98.80110
15700.00000	98.81189	-746.64602	98.81189
15750.00000	99.08341	-747.90391	99.08341
15800.00000	99.38752	-748.93479	99.38752
15850.00000	99.79179	-750.69529	99.79179
15900.00000	100.14449	-751.93947	100.14449
15950.00000	100.50664	-752.61762	100.50664
16000.00000	100.71912	-753.48633	100.71912
16050.00000	100.99741	-755.43834	100.99741
16100.00000	101.28461	-758.35063	101.28461
16150.00000	101.69438	-759.62575	101.69438
16200.00000	102.02457	-761.45489	102.02457
16250.00000	102.30750	-762.36036	102.30750
16300.00000	102.66075	-764.23729	102.66075
16350.00000	102.90240	-767.03397	102.90240
16400.00000	103.27676	-768.92795	103.27676
16450.00000	103.55577	-770.53507	103.55577
16500.00000	103.78091	-772.39547	103.78091
16550.00000	104.04202	-775.40262	104.04202
16600.00000	104.35163	-777.73507	104.35163
16650.00000	104.61178	-780.03714	104.61178
16700.00000	104.93522	-781.27249	104.93522
16750.00000	105.03293	-783.56403	105.03293
16800.00000	105.25683	-786.29110	105.25683
16850.00000	105.58174	-788.86032	105.58174
16900.00000	105.90029	-791.13581	105.90029
16950.00000	106.15538	-793.09201	106.15538
17000.00000	106.26046	-795.31346	106.26046
17050.00000	106.49279	-797.18517	106.49279
17100.00000	106.70165	-799.02633	106.70165
17150.00000	107.10827	-801.95662	107.10827
17200.00000	107.37194	-803.94835	107.37194
17250.00000	107.52600	-806.90226	107.52600
17300.00000	107.82174	-809.23967	107.82174
17350.00000	107.96261	-811.96808	107.96261
17400.00000	108.30582	-814.65349	108.30582
17450.00000	108.51454	-817.48231	108.51454
17500.00000	108.75362	-820.08276	108.75362
17550.00000	108.96935	-823.06640	108.96935
17600.00000	109.26326	-825.63376	109.26326
17650.00000	109.47141	-829.52650	109.47141
17700.00000	109.66536	-832.52423	109.66536
17750.00000	109.96340	-834.84708	109.96340
17800.00000	110.00961	-838.54877	110.00961
17850.00000	110.20009	-841.18930	110.20009
17900.00000	110.34630	-844.44573	110.34630
17950.00000	110.59441	-847.78183	110.59441
18000.00000	110.73494	-851.23609	110.73494
18050.00000	111.01040	-853.88188	111.01040
18100.00000	111.07194	-857.55940	111.07194
18150.00000	111.19797	-860.19081	111.19797
18200.00000	111.27414	-863.91040	111.27414
18250.00000	111.51041	-866.39258	111.51041
18300.00000	111.70215	-869.64882	111.70215
18350.00000	111.84002	-872.80533	111.84002
18400.00000	111.90525	-876.26514	111.90525
18450.00000	111.98447	-880.84874	111.98447
18500.00000	112.13663	-884.08688	112.13663
18550.00000	112.24468	-886.98872	112.24468
18600.00000	112.45084	-890.90395	112.45084
18650.00000	112.40339	-893.84278	112.40339
18700.00000	112.46038	-898.01070	112.46038
18750.00000	112.60698	-901.57388	112.60698
18800.00000	112.81115	-904.53495	112.81115
18850.00000	112.75955	-908.45889	112.75955
18900.00000	112.79487	-911.80566	112.79487
18950.00000	112.84712	-915.99405	112.84712
19000.00000	112.74609	-919.39285	112.74609
19050.00000	112.91026	-923.20633	112.91026
19100.00000	112.87734	-926.70514	112.87734
19150.00000	112.99244	-930.09184	112.99244
19200.00000	112.94404	-933.44308	112.94404
19250.00000	112.89881	-938.20871	112.89881
19300.00000	112.81753	-941.18260	112.81753
19350.00000	112.79896	-944.81906	112.79896
19400.00000	112.70425	-948.11081	112.70425
19450.00000	112.74263	-951.22859	112.74263
19500.00000	112.60893	-955.57187	112.60893
19550.00000	112.56431	-958.93979	112.56431
19600.00000	112.54997	-962.97945	112.54997
19650.00000	112.41267	-965.92395	112.41267
19700.00000	112.22024	-969.51669	112.22024
19750.00000	112.10154	-972.32927	112.10154
19800.00000	112.07810	-976.60755	112.07810
19850.00000	111.97116	-979.67082	111.97116
19900.00000	111.79853	-983.69896	111.79853
19950.00000	111.62818	-986.77948	111.62818
20000.00000	111.46926	-990.11449	111.46926
20050.00000	111.32114	-993.33489	111.32114
20100.00000	111.07070	-996.52981	111.07070
20150.00000	110.93921	-998.72102	110.93921
20200.00000	110.69722	-1002.46548	110.69722
20250.00000	110.45682	-1005.25866	110.45682
20300.00000	110.15819	-1007.96404	110.15819
20350.00000	110.02239	-1010.88631	110.02239
20400.00000	109.72732	-1012.64739	109.72732
20450.00000	109.40673	-1015.13857	109.40673
20500.00000	109.23439	-1017.68393	109.23439
20550.00000	108.77164	-1019.04301	108.77164
20600.00000	108.62111	-1020.70757	108.62111
20650.00000	108.38281	-1022.30716	108.38281
20700.00000	108.08995	-1023.74810	108.08995
20750.00000	107.93665	-1024.99917	107.93665
20800.00000	107.70153	-1025.69006	107.70153
20850.00000	107.57660	-1026.70798	107.57660
20900.00000	107.36163	-1027.48625	107.36163
20950.00000	107.23185	-1027.64249	107.23185
21000.00000	107.14613	-1028.04906	107.14613
21050.00000	107.24772	-1028.19135	107.24772
21100.00000	107.20922	-1028.33628	107.20922
21150.00000	107.32974	-1029.06689	107.32974
21200.00000	107.44908	-1029.40521	107.44908
21250.00000	107.56387	-1031.51029	107.56387
21300.00000	107.77456	-1032.00097	107.77456
21350.00000	107.89849	-1033.11176	107.89849
21400.00000	108.03117	-1035.11703	108.03117
21450.00000	108.19868	-1037.13417	108.19868
21500.00000	108.36751	-1039.43842	108.36751
21550.00000	108.39781	-1041.13098	108.39781
21600.00000	108.57152	-1043.61691	108.57152
21650.00000	108.62623	-1046.18985	108.62623
21700.00000	108.68400	-1048.33812	108.68400
21750.00000	108.77917	-1050.71693	108.77917
21800.00000	108.82558	-1053.07853	108.82558
21850.00000	108.78033	-1055.33867	108.78033
21900.00000	108.82638	-1057.91990	108.82638
21950.00000	108.85180	-1060.08532	108.85180
22000.00000	108.91558	-1062.19140	108.91558
22050.00000	108.88162	-1064.14635	108.88162
22100.00000	108.86285	-1066.56711	108.86285
22150.00000	108.83683	-1068.68312	108.83683
22200.00000	108.91787	-1070.90138	108.91787
22250.00000	108.86071	-1072.52370	108.86071
22300.00000	108.71374	-1074.67739	108.71374
22350.00000	108.80788	-1076.91697	108.80788
22400.00000	108.80928	-1079.24600	108.80928
22450.00000	108.75679	-1080.84321	108.75679
22500.00000	108.68964	-1081.76060	108.68964
22550.00000	108.65450	-1083.91374	108.65450
22600.00000	108.62787	-1086.88298	108.62787
22650.00000	108.64745	-1088.36654	108.64745
22700.00000	108.61905	-1089.69053	108.61905
22750.00000	108.58037	-1089.56816	108.58037
22800.00000	108.57191	-1093.66081	108.57191
22850.00000	108.65362	-1096.00918	108.65362
22900.00000	108.67329	-1095.95839	108.67329
22950.00000	108.71783	-1097.71622	108.71783
23000.00000	108.66859	-1098.54746	108.66859
23050.00000	108.65300	-1101.22554	108.65300
23100.00000	108.79940	-1101.84352	108.79940
23150.00000	108.70296	-1102.68463	108.70296
23200.00000	108.83872	-1105.60322	108.83872
23250.00000	108.72886	-1108.04863	108.72886
23300.00000	109.01113	-1109.98387	109.01113
23350.00000	108.82024	-1111.78559	108.82024
23400.00000	108.84259	-1112.93587	108.84259
23450.00000	109.03578	-1115.33614	109.03578
23500.00000	108.92755	-1116.46215	108.92755
23550.00000	108.95854	-1116.90542	108.95854
23600.00000	108.92510	-1120.35803	108.92510
23650.00000	109.07264	-1121.68148	109.07264
23700.00000	109.26205	-1125.39954	109.26205
23750.00000	109.21647	-1126.46261	109.21647
23800.00000	109.00647	-1127.07903	109.00647
23850.00000	109.16573	-1128.19449	109.16573
23900.00000	109.52616	-1130.64287	109.52616
23950.00000	109.29004	-1133.61873	109.29004
24000.00000	109.18942	-1136.41673	109.18942
24050.00000	109.34284	-1136.66410	109.34284
24100.00000	109.67656	-1140.50914	109.67656
24150.00000	109.66369	-1142.30010	109.66369
24200.00000	109.65005	-1145.69275	109.65005
24250.00000	109.30964	-1146.01211	109.30964
24300.00000	109.76162	-1149.11401	109.76162
24350.00000	109.60856	-1150.90530	109.60856
24400.00000	109.54804	-1154.18504	109.54804
24450.00000	109.30586	-1155.90787	109.30586
24500.00000	109.81961	-1157.05645	109.81961
24550.00000	109.64069	-1161.93243	109.64069
24600.00000	110.09575	-1162.64285	110.09575
24650.00000	109.76364	-806.55566	109.76364
24700.00000	109.67657	-446.59827	109.67657
24750.00000	109.78191	-91.11221	109.78191
24800.00000	109.76995	266.43050	109.76995
24850.00000	109.43995	625.45447	109.43995
24900.00000	109.59081	984.47301	109.59081
24950.00000	109.75700	1339.46212	109.75700
25000.00000	109.82245	1332.38805	109.82245
25050.00000	109.98567	1332.96756	109.98567
25100.00000	109.39780	1329.29521	109.39780
25150.00000	109.76852	1328.69980	109.76852
25200.00000	109.57931	1324.28665	109.57931
25250.00000	109.67664	1322.82669	109.67664
25300.00000	109.67990	1320.69953	109.67990
25350.00000	109.58604	1313.71658	109.58604
25400.00000	109.53333	1310.16645	109.53333
25450.00000	109.55386	1308.06705	109.55386
25500.00000	109.39594	1306.01166	109.39594
25550.00000	109.33417	1301.59770	109.33417
25600.00000	109.29689	1299.18141	109.29689
25650.00000	109.15061	1296.98505	109.15061
25700.00000	109.11769	1293.17020	109.11769
25750.00000	108.82551	1289.77152	108.82551
25800.00000	108.66221	1285.96079	108.66221
25850.00000	108.55873	1283.05035	108.55873
25900.00000	108.44067	1278.94864	108.44067
25950.00000	108.09860	1279.90919	108.09860
26000.00000	108.01563	1274.30966	108.01563
26050.00000	107.87974	1271.84677	107.87974
26100.00000	107.63022	1269.07186	107.63022
26150.00000	107.52512	1266.41212	107.52512
26200.00000	107.41183	1263.77692	107.41183
26250.00000	107.16876	1260.68059	107.16876
26300.00000	107.09456	1257.05906	107.09456
26350.00000	106.54134	1256.44996	106.54134
26400.00000	106.35725	1253.72713	106.35725
26450.00000	106.54190	1250.19380	106.54190
26500.00000	106.11435	1247.55095	106.11435
26550.00000	105.86799	1242.74424	105.86799
26600.00000	105.61887	1240.79646	105.61887
26650.00000	105.58540	1241.58812	105.58540
26700.00000	105.36298	1238.00786	105.36298
26750.00000	105.04503	1236.05810	105.04503
26800.00000	104.86547	1231.19199	104.86547
26850.00000	104.96622	1230.98204	104.96622
26900.00000	104.85864	1230.00790	104.85864
26950.00000	104.71345	1226.85836	104.71345
27000.00000	104.22515	1226.09226	104.22515
27050.00000	104.35649	1223.24187	104.35649
27100.00000	103.89224	1223.02379	103.89224
27150.00000	103.81152	1219.39570	103.81152
27200.00000	103.85778	1218.63604	103.85778
27250.00000	103.44387	1218.05119	103.44387
27300.00000	103.14884	1215.42421	103.14884
27350.00000	103.29931	1215.84046	103.29931
27400.00000	102.85581	1213.51734	102.85581
27450.00000	102.91475	1212.37015	102.91475
27500.00000	102.84616	1211.01229	102.84616
27550.00000	102.88128	1209.97474	102.88128
27600.00000	103.18778	1206.97418	103.18778
27650.00000	102.64963	1207.92358	102.64963
27700.00000	102.79698	1203.06157	102.79698
27750.00000	102.76859	1201.39431	102.76859
27800.00000	102.95937	1198.56785	102.95937
27850.00000	103.20652	1200.18248	103.20652
27900.00000	102.83150	1200.21726	102.83150
27950.00000	102.34299	1196.46105	102.34299
28000.00000	102.61459	1196.06056	102.61459
28050.00000	103.16309	1193.13966	103.16309
28100.00000	102.61063	1191.48326	102.61063
28150.00000	102.76733	1190.35028	102.76733
28200.00000	103.04726	1185.80559	103.04726
28250.00000	102.77786	1183.41520	102.77786
28300.00000	102.63593	1183.43430	102.63593
28350.00000	102.88800	1182.79166	102.88800
28400.00000	102.89778	1181.74339	102.89778
28450.00000	103.52713	1178.22725	103.52713
28500.00000	103.01182	1176.49696	103.01182
28550.00000	103.06970	1177.44400	103.06970
28600.00000	103.18104	1175.20779	103.18104
28650.00000	103.49736	1170.06486	103.49736
28700.00000	103.39671	1171.02485	103.39671
28750.00000	104.04100	1169.48858	104.04100
28800.00000	103.92434	1168.01472	103.92434
28850.00000	103.34590	1162.47619	103.34590
28900.00000	103.60033	1161.03893	103.60033
28950.00000	103.54985	1160.74788	103.54985
29000.00000	103.80042	1158.56468	103.80042
29050.00000	103.51797	1157.95002	103.51797
29100.00000	103.59616	1157.33933	103.59616
29150.00000	103.49718	1154.81915	103.49718
29200.00000	103.39609	1151.88123	103.39609
29250.00000	103.82007	1150.49240	103.82007
29300.00000	103.48581	1148.16338	103.48581
29350.00000	103.95401	1145.44384	103.95401
29400.00000	103.74337	1144.36138	103.74337
29450.00000	103.69703	1143.07843	103.69703
29500.00000	104.05846	1142.33756	104.05846
29550.00000	103.73596	1138.08387	103.73596
29600.00000	103.65634	1137.73383	103.65634
29650.00000	103.71758	1135.08386	103.71758
29700.00000	103.67404	1136.67530	103.67404
29750.00000	103.58492	1135.60504	103.58492
29800.00000	103.41580	1132.88554	103.41580
29850.00000	103.51610	1131.39618	103.51610
29900.00000	103.73127	1131.72175	103.73127
29950.00000	102.96552	1130.90947	102.96552
30000.00000	103.34584	1131.41644	103.34584
30050.00000	103.44400	1129.63595	103.44400
30100.00000	103.12626	1130.57925	103.12626
30150.00000	103.36145	1126.93859	103.36145
30200.00000	103.34782	1126.31741	103.34782
30250.00000	103.11085	1126.97879	103.11085
30300.00000	102.94060	1127.66484	102.94060
30350.00000	103.08083	1129.27384	103.08083
30400.00000	103.07796	1127.29310	103.07796
30450.00000	102.76916	1127.91344	102.76916
30500.00000	102.87837	1127.34054	102.87837
30550.00000	102.89077	1129.19484	102.89077
30600.00000	102.86480	1130.50669	102.86480
30650.00000	102.98299	1130.67282	102.98299
30700.00000	103.07977	1130.72722	103.07977
30750.00000	102.98356	1132.75106	102.98356
30800.00000	103.19689	1133.56972	103.19689
30850.00000	103.42077	1135.75659	103.42077
30900.00000	103.44414	1137.62012	103.44414
30950.00000	103.87553	1137.65617	103.87553
31000.00000	104.18538	1137.54970	104.18538
31050.00000	104.54763	1139.34559	104.54763
31100.00000	105.03107	1140.48591	105.03107
31150.00000	105.08095	1140.18172	105.08095
31200.00000	105.82687	1139.96270	105.82687
31250.00000	106.16694	1139.94772	106.16694
31300.00000	106.62174	1139.10000	106.62174
31350.00000	107.13283	1138.48741	107.13283
31400.00000	107.41437	1136.47594	107.41437
31450.00000	107.92268	1135.16452	107.92268
31500.00000	108.24356	1132.27261	108.24356
31550.00000	108.68119	1130.90261	108.68119
31600.00000	109.18301	1127.13426	109.18301
31650.00000	109.40068	1124.86894	109.40068
31700.00000	109.74460	1122.75997	109.74460
31750.00000	110.08077	1120.77676	110.08077
31800.00000	110.27057	1116.94522	110.27057
31850.00000	110.55236	1113.45711	110.55236
31900.00000	110.55890	1110.95528	110.55890
31950.00000	110.82779	1107.78158	110.82779
32000.00000	111.00593	1104.17105	111.00593
32050.00000	111.13363	1101.39396	111.13363
32100.00000	111.16717	1097.66515	111.16717
32150.00000	111.32374	1095.28744	111.32374
32200.00000	111.38947	1091.46167	111.38947
32250.00000	111.40134	1087.97983	111.40134
32300.00000	111.42465	1085.38520	111.42465
32350.00000	111.39114	1082.69222	111.39114
32400.00000	111.51681	1080.24132	111.51681
32450.00000	111.41776	1076.70502	111.41776
32500.00000	111.47285	1074.55720	111.47285
32550.00000	111.54647	1070.84898	111.54647
32600.00000	111.46169	1069.30708	111.46169
32650.00000	111.58509	1065.85634	111.58509
32700.00000	111.40834	1063.23562	111.40834
32750.00000	111.49409	1060.22880	111.49409
32800.00000	111.60595	1058.66891	111.60595
32850.00000	111.68692	1055.88960	111.68692
32900.00000	111.59254	1052.37050	111.59254
32950.00000	111.54639	1049.69131	111.54639
33000.00000	111.59412	1048.98265	111.59412
33050.00000	111.62854	1044.89094	111.62854
33100.00000	111.71480	1043.19824	111.71480
33150.00000	111.78145	1041.51373	111.78145
33200.00000	112.04694	1039.57518	112.04694
33250.00000	112.01030	1037.20791	112.01030
33300.00000	112.06237	1033.85195	112.06237
33350.00000	112.13296	1030.82053	112.13296
33400.00000	112.23131	1029.51957	112.23131
33450.00000	112.42044	1026.09389	112.42044
33500.00000	112.77529	1024.87754	112.77529
33550.00000	112.64758	1020.50074	112.64758
33600.00000	113.00990	1018.53862	113.00990
33650.00000	113.23368	1015.11542	113.23368
33700.00000	113.31850	1011.93606	113.31850
33750.00000	113.37997	1008.75074	113.37997
33800.00000	113.69836	1005.47621	113.69836
33850.00000	113.57103	1002.12307	113.57103
33900.00000	113.94380	998.49406	113.94380
33950.00000	114.15873	995.70952	114.15873
34000.00000	114.32219	991.22944	114.32219
34050.00000	114.35458	987.75407	114.35458
34100.00000	114.33206	984.77548	114.33206
34150.00000	114.56847	980.17444	114.56847
34200.00000	114.64070	977.92442	114.64070
34250.00000	114.70379	972.99004	114.70379
34300.00000	114.75089	968.69314	114.75089
34350.00000	114.88492	964.86961	114.88492
34400.00000	114.63554	963.03479	114.63554
34450.00000	114.80361	956.59164	114.80361
34500.00000	114.68254	953.98190	114.68254
34550.00000	114.87529	951.46937	114.87529
34600.00000	114.58509	947.08552	114.58509
34650.00000	114.93819	946.01927	114.93819
34700.00000	114.55126	943.55088	114.55126
34750.00000	114.75003	936.41556	114.75003
34800.00000	114.94818	936.21071	114.94818
34850.00000	114.92166	934.40758	114.92166
34900.00000	115.05224	929.15548	115.05224
34950.00000	114.86861	928.22674	114.86861
35000.00000	114.84356	924.58183	114.84356
35050.00000	115.03926	922.78498	115.03926
35100.00000	115.17498	919.18965	115.17498
35150.00000	114.89166	917.57597	114.89166
35200.00000	115.02990	913.60157	115.02990
35250.00000	115.06984	911.14107	115.06984
35300.00000	115.26535	908.24643	115.26535
35350.00000	115.40471	905.12190	115.40471
35400.00000	115.29230	902.96606	115.29230
35450.00000	115.38667	901.00179	115.38667
35500.00000	115.18695	898.67655	115.18695
35550.00000	115.56191	897.44694	115.56191
35600.00000	115.55028	893.82889	115.55028
35650.00000	115.69935	891.89482	115.69935
35700.00000	115.75247	889.40906	115.75247
35750.00000	115.76070	887.71104	115.76070
35800.00000	115.90410	887.09263	115.90410
35850.00000	116.23722	882.95710	116.23722
35900.00000	116.36473	880.29018	116.36473
35950.00000	116.56096	878.14672	116.56096
36000.00000	116.61141	876.06321	116.61141
36050.00000	116.80473	873.81934	116.80473
36100.00000	116.96660	870.55468	116.96660
36150.00000	116.95159	868.17450	116.95159
36200.00000	117.12886	866.48153	117.12886
36250.00000	117.22677	863.65999	117.22677
36300.00000	117.21707	861.61772	117.21707
36350.00000	117.51011	859.35172	117.51011
36400.00000	117.74091	856.92558	117.74091
36450.00000	117.61560	853.58149	117.61560
36500.00000	117.96503	852.50550	117.96503
36550.00000	117.92737	848.59573	117.92737
36600.00000	118.05927	846.51292	118.05927
36650.00000	118.20882	844.33782	118.20882
36700.00000	118.32374	841.21961	118.32374
36750.00000	118.49720	838.95701	118.49720
36800.00000	118.50477	836.49935	118.50477
36850.00000	118.40263	833.70807	118.40263
36900.00000	118.68215	831.31636	118.68215
36950.00000	118.57669	828.53694	118.57669
37000.00000	118.40358	826.47132	118.40358
37050.00000	118.41946	824.81718	118.41946
37100.00000	118.57518	821.53608	118.57518
37150.00000	118.60970	818.97941	118.60970
37200.00000	118.81432	817.97539	118.81432
37250.00000	118.38978	815.51442	118.38978
37300.00000	118.43488	813.62400	118.43488
37350.00000	118.71561	812.51572	118.71561
37400.00000	118.51861	810.71359	118.51861
37450.00000	118.43747	809.19403	118.43747
37500.00000	118.75797	806.44485	118.75797
37550.00000	118.51103	805.56329	118.51103
37600.00000	118.64220	803.70347	118.64220
37650.00000	118.54835	801.93447	118.54835
37700.00000	118.71056	799.23313	118.71056
37750.00000	118.72877	798.60817	118.72877
37800.00000	118.63419	795.67026	118.63419
37850.00000	118.64405	793.79057	118.64405
37900.00000	118.71826	792.24356	118.71826
37950.00000	118.83011	790.82481	118.83011
38000.00000	118.75345	789.42510	118.75345
38050.00000	118.89718	786.48630	118.89718
38100.00000	119.04346	784.38846	119.04346
38150.00000	118.93243	781.74527	118.93243
38200.00000	119.10602	779.27655	119.10602
38250.00000	119.11537	777.31968	119.11537
38300.00000	119.29062	774.38329	119.29062
38350.00000	119.26689	772.59821	119.26689
38400.00000	119.32734	770.20120	119.32734
38450.00000	119.44614	766.54165	119.44614
38500.00000	119.54118	763.53054	119.54118
38550.00000	119.66149	761.46908	119.66149
38600.00000	119.78795	758.26063	119.78795
38650.00000	119.90858	754.78500	119.90858
38700.00000	119.91687	751.11328	119.91687
38750.00000	120.06591	747.73804	120.06591
38800.00000	120.16881	744.24102	120.16881
38850.00000	120.22792	740.14738	120.22792
38900.00000	120.35838	736.26880	120.35838
38950.00000	120.33949	731.60563	120.33949
39000.00000	120.38424	727.40488	120.38424
39050.00000	120.39764	723.67401	120.39764
39100.00000	120.29389	719.08982	120.29389
39150.00000	120.25552	714.51130	120.25552
39200.00000	120.20735	710.19465	120.20735
39250.00000	120.11190	705.68241	120.11190
39300.00000	120.00925	701.47687	120.00925
39350.00000	119.89430	697.53395	119.89430
39400.00000	119.73936	692.75018	119.73936
39450.00000	119.54564	689.03394	119.54564
39500.00000	119.41605	684.91299	119.41605
39550.00000	119.25021	680.56576	119.25021
39600.00000	118.95321	676.66681	118.95321
39650.00000	118.82722	673.40964	118.82722
39700.00000	118.57200	669.67922	118.57200
39750.00000	118.44199	665.59417	118.44199
39800.00000	118.22002	662.13230	118.22002
39850.00000	118.00129	658.79723	118.00129
39900.00000	117.78615	655.81100	117.78615
39950.00000	117.62863	652.44795	117.62863
40000.00000	117.26147	650.54201	117.26147
40050.00000	117.19844	646.19375	117.19844
40100.00000	116.99259	643.04687	116.99259
40150.00000	116.82349	640.26526	116.82349
40200.00000	116.64265	637.07091	116.64265
40250.00000	116.44397	634.38438	116.44397
40300.00000	116.37847	631.88806	116.37847
40350.00000	115.99565	629.24746	115.99565
40400.00000	115.78199	626.91269	115.78199
40450.00000	115.66882	624.69391	115.66882
40500.00000	115.61782	622.95093	115.61782
40550.00000	115.44066	619.91726	115.44066
40600.00000	115.25667	617.88497	115.25667
40650.00000	115.15162	616.15901	115.15162
40700.00000	114.86383	614.77939	114.86383
40750.00000	114.90382	612.84469	114.90382
40800.00000	114.83451	610.96548	114.83451
40850.00000	114.59844	610.15499	114.59844
40900.00000	114.51496	607.95108	114.51496
40950.00000	114.30239	607.89156	114.30239
41000.00000	114.19783	606.72594	114.19783
41050.00000	114.26363	605.54956	114.26363
41100.00000	114.31634	604.07282	114.31634
41150.00000	114.39841	604.60429	114.39841
41200.00000	114.46866	603.42656	114.46866
41250.00000	114.44138	601.00811	114.44138
41300.00000	114.30214	601.31339	114.30214
41350.00000	114.55245	601.80065	114.55245
41400.00000	114.62774	596.43932	114.62774
41450.00000	114.89057	598.54832	114.89057
41500.00000	114.85181	597.52824	114.85181
41550.00000	114.86274	600.26193	114.86274
41600.00000	114.66901	597.44508	114.66901
41650.00000	115.29724	595.87731	115.29724
41700.00000	115.60231	595.63737	115.60231
41750.00000	115.52293	599.49908	115.52293
41800.00000	114.86571	593.14120	114.86571
41850.00000	115.01303	593.48553	115.01303
41900.00000	114.98385	593.79602	114.98385
41950.00000	116.29510	597.20225	116.29510
42000.00000	115.50959	591.28737	115.50959
42050.00000	114.58689	590.43036	114.58689
42100.00000	115.41635	589.97942	115.41635
42150.00000	114.99116	585.02449	114.99116
42200.00000	114.89660	591.14489	114.89660
42250.00000	115.11793	588.97030	115.11793
42300.00000	114.19747	585.21141	114.19747
42350.00000	114.93368	586.52797	114.93368
42400.00000	114.66314	587.00576	114.66314
42450.00000	115.21741	582.58883	115.21741
42500.00000	114.54985	582.30446	114.54985
42550.00000	114.78391	592.68904	114.78391
42600.00000	114.33540	583.98048	114.33540
42650.00000	114.00725	586.67419	114.00725
42700.00000	113.80043	583.31521	113.80043
42750.00000	114.73675	581.27986	114.73675
42800.00000	114.04255	574.82947	114.04255
42850.00000	113.52914	574.14222	113.52914
42900.00000	114.57274	579.94265	114.57274
42950.00000	113.50277	575.24349	113.50277
43000.00000	114.07653	566.32933	114.07653
43050.00000	113.46086	565.13903	113.46086
43100.00000	113.64430	569.77409	113.64430
43150.00000	112.62885	565.69497	112.62885
43200.00000	113.00056	561.68394	113.00056
43250.00000	113.00296	560.28044	113.00296
43300.00000	112.82874	558.51880	112.82874
43350.00000	113.44826	554.30670	113.44826
43400.00000	112.85356	552.93420	112.85356
43450.00000	113.43421	552.64732	113.43421
43500.00000	112.22481	544.54483	112.22481
43550.00000	112.81885	542.08442	112.81885
43600.00000	112.26598	537.66455	112.26598
43650.00000	112.57107	528.62939	112.57107
43700.00000	111.93512	529.12343	111.93512
43750.00000	111.40540	526.92359	111.40540
43800.00000	111.68193	519.96640	111.68193
43850.00000	111.83213	515.00719	111.83213
43900.00000	111.66318	513.25273	111.66318
43950.00000	111.61522	506.37934	111.61522
44000.00000	110.82813	503.59213	110.82813
44050.00000	111.01694	497.54835	111.01694
44100.00000	110.85756	487.14310	110.85756
44150.00000	110.25857	489.02613	110.25857
44200.00000	109.79528	488.15483	109.79528
44250.00000	109.91455	481.65092	109.91455
44300.00000	109.78825	474.35211	109.78825
44350.00000	108.45819	471.67082	108.45819
44400.00000	109.24435	468.97720	109.24435
44450.00000	109.29314	467.38849	109.29314
44500.00000	108.44004	462.89099	108.44004
44550.00000	109.61675	451.25048	109.61675
44600.00000	108.36895	454.74356	108.36895
44650.00000	107.70005	445.64901	107.70005
44700.00000	107.63405	441.09220	107.63405
44750.00000	107.44046	442.64198	107.44046
44800.00000	108.05653	437.06018	108.05653
44850.00000	107.22625	430.45296	107.22625
44900.00000	106.97658	430.46434	106.97658
44950.00000	106.52348	423.64243	106.52348
45000.00000	106.86550	414.16900	106.86550
45050.00000	105.18906	421.49408	105.18906
45100.00000	105.61731	411.41528	105.61731
45150.00000	105.88079	398.13779	105.88079
45200.00000	105.23261	401.74939	105.23261
45250.00000	105.31193	397.02145	105.31193
45300.00000	105.33435	390.62404	105.33435
45350.00000	104.76358	384.50410	104.76358
45400.00000	104.52885	383.93633	104.52885
45450.00000	104.50830	373.17776	104.50830
45500.00000	103.14547	365.76580	103.14547
45550.00000	103.16153	365.71423	103.16153
45600.00000	103.80096	358.38113	103.80096
45650.00000	101.83550	348.85311	101.83550
45700.00000	101.73756	348.41177	101.73756
45750.00000	102.90273	352.08601	102.90273
45800.00000	101.20231	338.64729	101.20231
45850.00000	101.11203	339.16591	101.11203
45900.00000	100.86949	333.41293	100.86949
45950.00000	100.08859	333.44283	100.08859
46000.00000	98.60682	315.77006	98.60682
46050.00000	98.68945	317.26840	98.68945
46100.00000	97.50230	318.62228	97.50230
46150.00000	97.21976	312.91903	97.21976
46200.00000	95.79244	302.88720	95.79244
46250.00000	96.71652	299.80254	96.71652
46300.00000	95.60481	301.30504	95.60481
46350.00000	96.10221	296.55867	96.10221
46400.00000	94.52456	287.38648	94.52456
46450.00000	92.50777	288.78918	92.50777
46500.00000	92.93534	295.26634	92.93534
46550.00000	92.48345	291.38633	92.48345
46600.00000	92.27643	290.40938	92.27643
46650.00000	89.21004	287.55633	89.21004
46700.00000	89.27173	292.11883	89.27173
46750.00000	90.22481	312.35225	90.22481
46800.00000	87.54756	291.57754	87.54756
46850.00000	89.95998	-53.87976	89.95998
46900.00000	89.89438	-65.53397	89.89438
46950.00000	90.36258	-68.37561	90.36258
47000.00000	89.32144	-63.98462	89.32144
47050.00000	90.87469	-71.12964	90.87469
47100.00000	89.55819	-75.96332	89.55819
47150.00000	90.28640	-75.25651	90.28640
47200.00000	88.23430	-66.61132	88.23430
47250.00000	89.43340	-74.87513	89.43340
47300.00000	89.78919	-81.05671	89.78919
47350.00000	87.91268	-433.82403	87.91268
47400.00000	88.34951	-433.57385	88.34951
47450.00000	89.23159	-432.81998	89.23159
47500.00000	87.11676	-442.50463	87.11676
47550.00000	86.68152	-796.71129	86.68152
47600.00000	87.84138	-801.38819	87.84138
47650.00000	89.61765	-802.23364	89.61765
47700.00000	88.74982	-790.34769	88.74982
47750.00000	87.19376	-794.97199	87.19376
47800.00000	88.23938	-817.08928	88.23938
47850.00000	89.92975	-1165.94862	89.92975
47900.00000	90.14041	-1516.82516	90.14041
47950.00000	89.52744	-1510.21813	89.52744
48000.00000	89.46653	-1522.83154	89.46653
48050.00000	91.76912	-1530.19739	91.76912
48100.00000	90.35598	-1537.04550	90.35598
48150.00000	90.42461	-1893.09792	90.42461
48200.00000	90.83879	-1898.37027	90.83879
48250.00000	90.38631	-1909.43328	90.38631
48300.00000	91.15361	-1908.98647	91.15361
48350.00000	91.21453	-1921.75347	91.21453
48400.00000	91.91928	-2269.61618	91.91928
48450.00000	91.94835	-2272.76067	91.94835
48500.00000	91.21468	-2287.17122	91.21468
48550.00000	91.56585	-2287.41782	91.56585
48600.00000	92.39939	-2645.05827	92.39939
48650.00000	93.17127	-2648.76476	93.17127
48700.00000	92.66176	-2655.51797	92.66176
48750.00000	90.62135	-3009.53773	90.62135
48800.00000	91.61990	-3021.20956	91.61990
48850.00000	91.89561	-3023.13895	91.89561
48900.00000	91.66236	-3386.58326	91.66236
48950.00000	92.54279	-3400.56767	92.54279
49000.00000	92.48078	-3403.05777	92.48078
49050.00000	92.66333	-3408.22508	92.66333
49100.00000	91.39149	-3773.75541	91.39149
49150.00000	93.85123	-4130.96787	93.85123
49200.00000	92.89177	-4152.32337	92.89177
49250.00000	92.21594	-4493.19814	92.21594
49300.00000	92.69042	-4151.70388	92.69042
49350.00000	91.10991	-4150.58954	91.10991
49400.00000	91.82094	-3800.25038	91.82094
49450.00000	90.44168	-3449.42287	90.44168
49500.00000	90.37329	-3104.83636	90.37329
49550.00000	92.72695	-2753.82074	92.72695
49600.00000	90.84598	-2744.38996	90.84598
49650.00000	93.28537	-2749.20593	93.28537
49700.00000	92.84204	-2418.37895	92.84204
49750.00000	92.42668	-2410.05950	92.42668
49800.00000	92.03744	-2428.59339	92.03744
49850.00000	93.42641	-2413.85962	93.42641
49900.00000	92.14206	-2075.60183	92.14206
49950.00000	96.02058	-1746.75685	96.02058
