---ACOUSTIC CALIBRATION---
Filename: C:\Data\AZH DATA\AZH52\RightPrimary.calib
Date: 8/27/2019 6:36:22 PM
Format: 4
Probe Tube Correction File: C:\Data\Probe Tube Calibrations\50_ProbeTube.calib
Experiment VIs: 850
EPL_CFTS.exe V12.0.1 (2012)
DAQmx V9.6

Attenuation (dB): 40.000000
Min Freq (Hz): 50.000000
Max Freq (Hz): 49950.000000
Freq Step (Hz): 50.000000
Sample Rate (Hz): 100000.000000
[Smoothing]
Method=None
MA.Iterations=0
MA.Length=0
Loess.Length=0
Loess.Type=Linear
Loess.Robust=FALSE


Freq(Hz)	Mag(dB)	Phase(deg)	Unsmoothed(dB)

50.00000	107.34398	387.67683	107.34398
100.00000	81.67572	511.57820	81.67572
150.00000	75.41123	459.84201	75.41123
200.00000	70.44981	463.40124	70.44981
250.00000	85.33683	456.63609	85.33683
300.00000	89.03103	369.12355	89.03103
350.00000	87.13557	405.92633	87.13557
400.00000	87.15490	374.55574	87.15490
450.00000	86.56687	366.31935	86.56687
500.00000	87.63594	381.88702	87.63594
550.00000	90.77150	378.41424	90.77150
600.00000	95.31284	374.75123	95.31284
650.00000	96.86271	351.96878	96.86271
700.00000	97.83525	338.81302	97.83525
750.00000	100.25925	321.24148	100.25925
800.00000	100.36911	297.61997	100.36911
850.00000	100.43955	280.93271	100.43955
900.00000	98.48877	263.53647	98.48877
950.00000	96.87875	261.12173	96.87875
1000.00000	95.27718	261.20329	95.27718
1050.00000	93.11087	277.80879	93.11087
1100.00000	95.51211	300.49587	95.51211
1150.00000	98.34847	302.53184	98.34847
1200.00000	100.83193	301.28204	100.83193
1250.00000	102.67213	292.09228	102.67213
1300.00000	104.22869	286.93651	104.22869
1350.00000	105.48176	276.85735	105.48176
1400.00000	106.09782	268.58136	106.09782
1450.00000	107.24227	263.34692	107.24227
1500.00000	108.59234	256.46334	108.59234
1550.00000	109.22329	247.15011	109.22329
1600.00000	110.76304	237.16189	110.76304
1650.00000	111.50103	220.12092	111.50103
1700.00000	110.37925	210.27690	110.37925
1750.00000	109.94774	204.44510	109.94774
1800.00000	109.58626	200.35523	109.58626
1850.00000	109.75588	200.18516	109.75588
1900.00000	110.97961	196.61501	110.97961
1950.00000	111.70214	182.84896	111.70214
2000.00000	110.73636	171.65217	110.73636
2050.00000	109.57407	176.75959	109.57407
2100.00000	111.57744	174.82256	111.57744
2150.00000	112.02686	163.10835	112.02686
2200.00000	111.79548	153.43271	111.79548
2250.00000	111.29980	146.50805	111.29980
2300.00000	111.37746	140.98197	111.37746
2350.00000	111.18834	134.85648	111.18834
2400.00000	110.93728	128.61927	110.93728
2450.00000	110.59575	122.85276	110.59575
2500.00000	110.31560	117.16509	110.31560
2550.00000	109.75110	111.99043	109.75110
2600.00000	109.27465	107.84576	109.27465
2650.00000	108.74711	103.42581	108.74711
2700.00000	108.22885	100.31187	108.22885
2750.00000	107.68722	96.33557	107.68722
2800.00000	107.01536	93.57555	107.01536
2850.00000	106.46680	91.73509	106.46680
2900.00000	105.91936	89.42292	105.91936
2950.00000	105.20244	88.56386	105.20244
3000.00000	104.47683	87.01761	104.47683
3050.00000	103.53740	86.10395	103.53740
3100.00000	102.73589	87.29336	102.73589
3150.00000	101.65301	88.47937	101.65301
3200.00000	100.33087	95.57999	100.33087
3250.00000	99.44328	104.87764	99.44328
3300.00000	98.84383	117.53493	98.84383
3350.00000	99.28870	136.11425	99.28870
3400.00000	101.28753	151.83113	101.28753
3450.00000	103.94620	158.64238	103.94620
3500.00000	106.41406	159.10966	106.41406
3550.00000	108.41207	155.47087	108.41207
3600.00000	110.16252	152.08313	110.16252
3650.00000	111.54565	147.00113	111.54565
3700.00000	112.87112	142.36803	112.87112
3750.00000	114.17793	137.19257	114.17793
3800.00000	115.37801	130.79140	115.37801
3850.00000	116.44109	124.04130	116.44109
3900.00000	117.39697	117.30771	117.39697
3950.00000	118.33955	110.12879	118.33955
4000.00000	119.17044	102.67024	119.17044
4050.00000	119.95321	95.41493	119.95321
4100.00000	120.77713	87.94741	120.77713
4150.00000	121.79705	79.74555	121.79705
4200.00000	122.51939	69.84273	122.51939
4250.00000	123.23335	58.89498	123.23335
4300.00000	123.70632	46.78450	123.70632
4350.00000	123.83569	34.26922	123.83569
4400.00000	123.71717	22.60093	123.71717
4450.00000	123.41821	11.84011	123.41821
4500.00000	123.01634	 1.94633	123.01634
4550.00000	122.59547	-7.02244	122.59547
4600.00000	122.11630	-15.44382	122.11630
4650.00000	121.67474	-23.51283	121.67474
4700.00000	121.18403	-31.93509	121.18403
4750.00000	120.57127	-40.68360	120.57127
4800.00000	119.72990	-49.45743	119.72990
4850.00000	118.59900	-57.21162	118.59900
4900.00000	117.26217	-63.02502	117.26217
4950.00000	115.87373	-65.86035	115.87373
5000.00000	114.64762	-66.52499	114.64762
5050.00000	113.49214	-66.61912	113.49214
5100.00000	112.28354	-62.35549	112.28354
5150.00000	112.25897	-57.42553	112.25897
5200.00000	111.39440	-52.02068	111.39440
5250.00000	112.96367	-39.08938	112.96367
5300.00000	115.34447	-47.79995	115.34447
5350.00000	115.53177	-60.75437	115.53177
5400.00000	115.00263	-68.48498	115.00263
5450.00000	114.47478	-73.02887	114.47478
5500.00000	114.04578	-76.39077	114.04578
5550.00000	113.71114	-79.01602	113.71114
5600.00000	113.44452	-81.67425	113.44452
5650.00000	113.22317	-84.02219	113.22317
5700.00000	112.99132	-86.64743	112.99132
5750.00000	112.84208	-88.94613	112.84208
5800.00000	112.66999	-91.28167	112.66999
5850.00000	112.51951	-93.78808	112.51951
5900.00000	112.36881	-96.07389	112.36881
5950.00000	112.23463	-98.43289	112.23463
6000.00000	112.12198	-100.54440	112.12198
6050.00000	111.99059	-102.78024	111.99059
6100.00000	111.90179	-104.91487	111.90179
6150.00000	111.82079	-107.32242	111.82079
6200.00000	111.73473	-109.61224	111.73473
6250.00000	111.72376	-112.20289	111.72376
6300.00000	111.67293	-114.84398	111.67293
6350.00000	111.58332	-117.51325	111.58332
6400.00000	111.48116	-120.06558	111.48116
6450.00000	111.42435	-122.75571	111.42435
6500.00000	111.33895	-125.37104	111.33895
6550.00000	111.21734	-127.93541	111.21734
6600.00000	111.15378	-130.45497	111.15378
6650.00000	111.08123	-132.85656	111.08123
6700.00000	111.02215	-135.48645	111.02215
6750.00000	110.95329	-138.11455	110.95329
6800.00000	110.90139	-140.56196	110.90139
6850.00000	110.85700	-143.09258	110.85700
6900.00000	110.84296	-145.69114	110.84296
6950.00000	110.77141	-148.10110	110.77141
7000.00000	110.74474	-150.68941	110.74474
7050.00000	110.71640	-153.44946	110.71640
7100.00000	110.69508	-156.39844	110.69508
7150.00000	110.65544	-159.11476	110.65544
7200.00000	110.60171	-162.21581	110.60171
7250.00000	110.56031	-165.23815	110.56031
7300.00000	110.52857	-168.15435	110.52857
7350.00000	110.45491	-171.27048	110.45491
7400.00000	110.42026	-174.38614	110.42026
7450.00000	110.32339	-177.67071	110.32339
7500.00000	110.28903	-180.81209	110.28903
7550.00000	110.15970	-183.90626	110.15970
7600.00000	110.05005	-187.15587	110.05005
7650.00000	109.91953	-190.23257	109.91953
7700.00000	109.84076	-193.35003	109.84076
7750.00000	109.66205	-196.38387	109.66205
7800.00000	109.56394	-199.50729	109.56394
7850.00000	109.42698	-202.32423	109.42698
7900.00000	109.27903	-205.28156	109.27903
7950.00000	109.12696	-208.37908	109.12696
8000.00000	109.00845	-211.25588	109.00845
8050.00000	108.88860	-214.58242	108.88860
8100.00000	108.74489	-217.22538	108.74489
8150.00000	108.54515	-220.20508	108.54515
8200.00000	108.38795	-222.86458	108.38795
8250.00000	108.19046	-225.73286	108.19046
8300.00000	108.04859	-228.68925	108.04859
8350.00000	107.82551	-231.29619	107.82551
8400.00000	107.60974	-234.57418	107.60974
8450.00000	107.35305	-237.27912	107.35305
8500.00000	107.11881	-240.22372	107.11881
8550.00000	106.92420	-242.78597	106.92420
8600.00000	106.69561	-245.94219	106.69561
8650.00000	106.44466	-248.63509	106.44466
8700.00000	106.23673	-251.69300	106.23673
8750.00000	105.98248	-253.37429	105.98248
8800.00000	105.76794	-256.19461	105.76794
8850.00000	105.49838	-258.46053	105.49838
8900.00000	105.24689	-260.43507	105.24689
8950.00000	104.99135	-262.74928	104.99135
9000.00000	104.66923	-264.81930	104.66923
9050.00000	104.41511	-267.28964	104.41511
9100.00000	104.14717	-269.43073	104.14717
9150.00000	103.92803	-271.94133	103.92803
9200.00000	103.74666	-274.35516	103.74666
9250.00000	103.54367	-277.22112	103.54367
9300.00000	103.41324	-279.55925	103.41324
9350.00000	103.36685	-281.74862	103.36685
9400.00000	103.14819	-283.22053	103.14819
9450.00000	103.03280	-284.63846	103.03280
9500.00000	102.94362	-285.08826	102.94362
9550.00000	102.91449	-286.02352	102.91449
9600.00000	102.88168	-287.68889	102.88168
9650.00000	102.70096	-289.62636	102.70096
9700.00000	102.48677	-290.84036	102.48677
9750.00000	102.35779	-293.60997	102.35779
9800.00000	102.14020	-295.26238	102.14020
9850.00000	101.99631	-297.06948	101.99631
9900.00000	101.74510	-299.34804	101.74510
9950.00000	101.65012	-300.86050	101.65012
10000.00000	101.60701	-303.19008	101.60701
10050.00000	101.50715	-304.76269	101.50715
10100.00000	101.37957	-306.06590	101.37957
10150.00000	101.15755	-308.19126	101.15755
10200.00000	101.01347	-309.76768	101.01347
10250.00000	100.78064	-311.87340	100.78064
10300.00000	100.69526	-314.04236	100.69526
10350.00000	100.49013	-316.24976	100.49013
10400.00000	100.26661	-319.11522	100.26661
10450.00000	100.21010	-322.03671	100.21010
10500.00000	100.18190	-324.67543	100.18190
10550.00000	100.11440	-327.47461	100.11440
10600.00000	100.03823	-329.62198	100.03823
10650.00000	99.92514	-331.39244	99.92514
10700.00000	99.85067	-334.18613	99.85067
10750.00000	99.76422	-336.28747	99.76422
10800.00000	99.55435	-338.31047	99.55435
10850.00000	99.36618	-341.34122	99.36618
10900.00000	99.16091	-343.54728	99.16091
10950.00000	98.98805	-345.57771	98.98805
11000.00000	98.80081	-348.08784	98.80081
11050.00000	98.44979	-350.31962	98.44979
11100.00000	98.22916	-353.03681	98.22916
11150.00000	97.90609	-354.98397	97.90609
11200.00000	97.70056	-356.86996	97.70056
11250.00000	97.36343	-358.96014	97.36343
11300.00000	97.02097	-361.31271	97.02097
11350.00000	96.72145	-362.84840	96.72145
11400.00000	96.32266	-364.75345	96.32266
11450.00000	96.06068	-367.01990	96.06068
11500.00000	95.87730	-367.94309	95.87730
11550.00000	95.52113	-369.01594	95.52113
11600.00000	95.34020	-371.06445	95.34020
11650.00000	95.08982	-371.26583	95.08982
11700.00000	94.94145	-372.04066	94.94145
11750.00000	94.76949	-373.36571	94.76949
11800.00000	94.56973	-374.71028	94.56973
11850.00000	94.44449	-374.97375	94.44449
11900.00000	94.10530	-376.70682	94.10530
11950.00000	93.92931	-377.57288	93.92931
12000.00000	93.70200	-378.06689	93.70200
12050.00000	93.45830	-379.02826	93.45830
12100.00000	93.38694	-381.06032	93.38694
12150.00000	93.23375	-382.18927	93.23375
12200.00000	93.17871	-383.87398	93.17871
12250.00000	92.93862	-384.74018	92.93862
12300.00000	93.89006	-386.14125	93.89006
12350.00000	92.63715	-387.89746	92.63715
12400.00000	92.40792	-388.38859	92.40792
12450.00000	92.23075	-389.64260	92.23075
12500.00000	92.01404	-391.73371	92.01404
12550.00000	91.88863	-392.67110	91.88863
12600.00000	91.63284	-394.36687	91.63284
12650.00000	91.54038	-396.02810	91.54038
12700.00000	91.19093	-396.38826	91.19093
12750.00000	90.95909	-398.34410	90.95909
12800.00000	90.66769	-399.01184	90.66769
12850.00000	90.13410	-399.82936	90.13410
12900.00000	89.96999	-401.28285	89.96999
12950.00000	89.67140	-401.72692	89.67140
13000.00000	89.38991	-403.70320	89.38991
13050.00000	89.04156	-403.06744	89.04156
13100.00000	88.77877	-403.84086	88.77877
13150.00000	88.48657	-404.79604	88.48657
13200.00000	88.34310	-403.32450	88.34310
13250.00000	88.15298	-402.44104	88.15298
13300.00000	87.76078	-400.17703	87.76078
13350.00000	87.46591	-400.04531	87.46591
13400.00000	87.39920	-399.80884	87.39920
13450.00000	86.93623	-399.12787	86.93623
13500.00000	87.09081	-396.81018	87.09081
13550.00000	86.74987	-396.83948	86.74987
13600.00000	86.96384	-394.17083	86.96384
13650.00000	86.89230	-392.57867	86.89230
13700.00000	86.71406	-391.63028	86.71406
13750.00000	86.44720	-391.26449	86.44720
13800.00000	86.39113	-392.50059	86.39113
13850.00000	86.63619	-393.27195	86.63619
13900.00000	86.95246	-391.43910	86.95246
13950.00000	86.98492	-390.58432	86.98492
14000.00000	87.27922	-387.17360	87.27922
14050.00000	87.37320	-386.71488	87.37320
14100.00000	87.22660	-386.88311	87.22660
14150.00000	87.64113	-386.65096	87.64113
14200.00000	87.80642	-386.85614	87.80642
14250.00000	88.49984	-385.05851	88.49984
14300.00000	88.61147	-385.07976	88.61147
14350.00000	88.85174	-383.58215	88.85174
14400.00000	88.63254	-383.79528	88.63254
14450.00000	88.72926	-382.81890	88.72926
14500.00000	88.87468	-385.56620	88.87468
14550.00000	89.20768	-385.40353	89.20768
14600.00000	89.38262	-385.86745	89.38262
14650.00000	89.83008	-384.64701	89.83008
14700.00000	89.97951	-389.21637	89.97951
14750.00000	90.22469	-388.76499	90.22469
14800.00000	90.39407	-388.97379	90.39407
14850.00000	90.75908	-388.55642	90.75908
14900.00000	91.17774	-390.31390	91.17774
14950.00000	91.39652	-390.60380	91.39652
15000.00000	91.68482	-392.05257	91.68482
15050.00000	91.80642	-391.80682	91.80642
15100.00000	92.05361	-392.52827	92.05361
15150.00000	92.46454	-394.65220	92.46454
15200.00000	92.56560	-394.21777	92.56560
15250.00000	92.66489	-396.65688	92.66489
15300.00000	93.05225	-398.53186	93.05225
15350.00000	93.19229	-400.72928	93.19229
15400.00000	93.31258	-401.38070	93.31258
15450.00000	93.41783	-402.67631	93.41783
15500.00000	93.77795	-404.36100	93.77795
15550.00000	93.93715	-406.33013	93.93715
15600.00000	94.07691	-408.10904	94.07691
15650.00000	94.44310	-407.22368	94.44310
15700.00000	94.42843	-409.84813	94.42843
15750.00000	94.57114	-410.57719	94.57114
15800.00000	94.86898	-411.06021	94.86898
15850.00000	94.97870	-412.11780	94.97870
15900.00000	95.06222	-413.74525	95.06222
15950.00000	95.32735	-414.92898	95.32735
16000.00000	95.60456	-415.91759	95.60456
16050.00000	95.91784	-416.55070	95.91784
16100.00000	96.01995	-417.85034	96.01995
16150.00000	96.22528	-419.23317	96.22528
16200.00000	96.61035	-421.32244	96.61035
16250.00000	96.90095	-421.74833	96.90095
16300.00000	97.34610	-423.36497	97.34610
16350.00000	97.55843	-424.73615	97.55843
16400.00000	97.89369	-425.81049	97.89369
16450.00000	98.25540	-428.02951	98.25540
16500.00000	98.56713	-429.97862	98.56713
16550.00000	98.96444	-432.91808	98.96444
16600.00000	99.31435	-434.80880	99.31435
16650.00000	99.60691	-437.21994	99.60691
16700.00000	99.88696	-439.59970	99.88696
16750.00000	100.09629	-442.78034	100.09629
16800.00000	100.41202	-445.89819	100.41202
16850.00000	100.72342	-448.78668	100.72342
16900.00000	101.00534	-452.09092	101.00534
16950.00000	101.24701	-454.64723	101.24701
17000.00000	101.30316	-458.03184	101.30316
17050.00000	101.52547	-460.50503	101.52547
17100.00000	101.65823	-462.73938	101.65823
17150.00000	101.93960	-466.61862	101.93960
17200.00000	102.12038	-469.63795	102.12038
17250.00000	102.19439	-472.99997	102.19439
17300.00000	102.38672	-476.01415	102.38672
17350.00000	102.36800	-478.75043	102.36800
17400.00000	102.53912	-481.98361	102.53912
17450.00000	102.66103	-485.45732	102.66103
17500.00000	102.75350	-488.22853	102.75350
17550.00000	102.85286	-491.23236	102.85286
17600.00000	103.00964	-493.57704	103.00964
17650.00000	103.02674	-497.50991	103.02674
17700.00000	103.06940	-500.66617	103.06940
17750.00000	103.28049	-502.84998	103.28049
17800.00000	103.23899	-505.99954	103.23899
17850.00000	103.31657	-508.58732	103.31657
17900.00000	103.33966	-511.63933	103.33966
17950.00000	103.47816	-514.84827	103.47816
18000.00000	103.51060	-517.96340	103.51060
18050.00000	103.70086	-520.47373	103.70086
18100.00000	103.68059	-523.44239	103.68059
18150.00000	103.73165	-525.82233	103.73165
18200.00000	103.71487	-529.26298	103.71487
18250.00000	103.83869	-531.16823	103.83869
18300.00000	103.94917	-534.17185	103.94917
18350.00000	104.00311	-536.92059	104.00311
18400.00000	104.02583	-540.18122	104.02583
18450.00000	104.04249	-543.93322	104.04249
18500.00000	104.08486	-546.68272	104.08486
18550.00000	104.11867	-549.23960	104.11867
18600.00000	104.25006	-552.86738	104.25006
18650.00000	104.16751	-555.38286	104.16751
18700.00000	104.18069	-558.49012	104.18069
18750.00000	104.23413	-561.19428	104.23413
18800.00000	104.35521	-563.85854	104.35521
18850.00000	104.26367	-567.10191	104.26367
18900.00000	104.26725	-569.83419	104.26725
18950.00000	104.30881	-573.26560	104.30881
19000.00000	104.16799	-575.75014	104.16799
19050.00000	104.31732	-578.82260	104.31732
19100.00000	104.24285	-581.28254	104.24285
19150.00000	104.36387	-584.26959	104.36387
19200.00000	104.34096	-586.72149	104.34096
19250.00000	104.31729	-590.57899	104.31729
19300.00000	104.25152	-592.64034	104.25152
19350.00000	104.24754	-595.52141	104.24754
19400.00000	104.21233	-598.16974	104.21233
19450.00000	104.28478	-600.38886	104.28478
19500.00000	104.18247	-604.08115	104.18247
19550.00000	104.24722	-606.74818	104.24722
19600.00000	104.29481	-609.92016	104.29481
19650.00000	104.19993	-612.10912	104.19993
19700.00000	104.09666	-615.14397	104.09666
19750.00000	104.07091	-617.53574	104.07091
19800.00000	104.16397	-621.05034	104.16397
19850.00000	104.14134	-623.55694	104.14134
19900.00000	104.06000	-627.09674	104.06000
19950.00000	104.01050	-630.00337	104.01050
20000.00000	104.00065	-632.84062	104.00065
20050.00000	103.94740	-635.60739	103.94740
20100.00000	103.80603	-638.76066	103.80603
20150.00000	103.80288	-640.86184	103.80288
20200.00000	103.67835	-644.30401	103.67835
20250.00000	103.54315	-647.07478	103.54315
20300.00000	103.37977	-649.90472	103.37977
20350.00000	103.33730	-652.82749	103.33730
20400.00000	103.15451	-654.66364	103.15451
20450.00000	102.94962	-657.28995	102.94962
20500.00000	102.85404	-660.09807	102.85404
20550.00000	102.46984	-661.72960	102.46984
20600.00000	102.40928	-663.63239	102.40928
20650.00000	102.24727	-665.58019	102.24727
20700.00000	102.03496	-667.24481	102.03496
20750.00000	101.93768	-668.83814	101.93768
20800.00000	101.73385	-669.94494	101.73385
20850.00000	101.68638	-671.33475	101.68638
20900.00000	101.50555	-672.36475	101.50555
20950.00000	101.38873	-672.85081	101.38873
21000.00000	101.35658	-673.66029	101.35658
21050.00000	101.47529	-674.11810	101.47529
21100.00000	101.48352	-674.57121	101.48352
21150.00000	101.60973	-675.64226	101.60973
21200.00000	101.75592	-676.38776	101.75592
21250.00000	101.88511	-678.72033	101.88511
21300.00000	102.09566	-679.66236	102.09566
21350.00000	102.23078	-681.16260	102.23078
21400.00000	102.37478	-683.51299	102.37478
21450.00000	102.55254	-685.76953	102.55254
21500.00000	102.68805	-688.41699	102.68805
21550.00000	102.71284	-690.68709	102.71284
21600.00000	102.89506	-693.53583	102.89506
21650.00000	102.93215	-696.35150	102.93215
21700.00000	102.95029	-698.88145	102.95029
21750.00000	102.99979	-701.75359	102.99979
21800.00000	103.02802	-704.54829	103.02802
21850.00000	102.93203	-707.00135	102.93203
21900.00000	102.93193	-709.63307	102.93193
21950.00000	102.88199	-712.01853	102.88199
22000.00000	102.91991	-714.37711	102.91991
22050.00000	102.82953	-716.55272	102.82953
22100.00000	102.77696	-718.97839	102.77696
22150.00000	102.72647	-721.22612	102.72647
22200.00000	102.76234	-723.45138	102.76234
22250.00000	102.64648	-725.04486	102.64648
22300.00000	102.49791	-727.47100	102.49791
22350.00000	102.59221	-729.78826	102.59221
22400.00000	102.58584	-732.05150	102.58584
22450.00000	102.49871	-734.11332	102.49871
22500.00000	102.42693	-735.37937	102.42693
22550.00000	102.38206	-737.77056	102.38206
22600.00000	102.33766	-740.73168	102.33766
22650.00000	102.29017	-742.75343	102.29017
22700.00000	102.24133	-744.51148	102.24133
22750.00000	102.18223	-744.85857	102.18223
22800.00000	102.19670	-748.94689	102.19670
22850.00000	102.22187	-751.89797	102.22187
22900.00000	102.14801	-752.23642	102.14801
22950.00000	102.12779	-754.32336	102.12779
23000.00000	102.05152	-756.21308	102.05152
23050.00000	102.02214	-758.95477	102.02214
23100.00000	102.09463	-760.16734	102.09463
23150.00000	101.88974	-761.63418	101.88974
23200.00000	101.97049	-764.56271	101.97049
23250.00000	101.73643	-767.36802	101.73643
23300.00000	101.98429	-770.05441	101.98429
23350.00000	101.70671	-771.87707	101.70671
23400.00000	101.69584	-774.26223	101.69584
23450.00000	101.78617	-776.16514	101.78617
23500.00000	101.58382	-777.33645	101.58382
23550.00000	101.48948	-777.97631	101.48948
23600.00000	101.38551	-782.16658	101.38551
23650.00000	101.42884	-783.81250	101.42884
23700.00000	101.52789	-787.79419	101.52789
23750.00000	101.38932	-788.29630	101.38932
23800.00000	101.14456	-789.56840	101.14456
23850.00000	101.22796	-790.75068	101.22796
23900.00000	101.54155	-793.45098	101.54155
23950.00000	101.26238	-796.81154	101.26238
24000.00000	101.06951	-799.02686	101.06951
24050.00000	101.19371	-799.15914	101.19371
24100.00000	101.45213	-803.31548	101.45213
24150.00000	101.36807	-805.73784	101.36807
24200.00000	101.38769	-809.43025	101.38769
24250.00000	100.87272	-809.87032	100.87272
24300.00000	101.27204	-812.04236	101.27204
24350.00000	101.09284	-815.50896	101.09284
24400.00000	100.98208	-818.73922	100.98208
24450.00000	100.72620	-820.48981	100.72620
24500.00000	101.19290	-822.06430	101.19290
24550.00000	100.96136	-467.39239	100.96136
24600.00000	101.36018	-467.92961	101.36018
24650.00000	100.91028	-112.57370	100.91028
24700.00000	100.73649	247.89181	100.73649
24750.00000	100.75587	602.37466	100.75587
24800.00000	100.64957	960.98934	100.64957
24850.00000	100.27884	1319.21923	100.27884
24900.00000	100.32038	1677.32218	100.32038
24950.00000	100.18205	1676.17463	100.18205
25000.00000	100.13530	1666.41585	100.13530
25050.00000	100.43380	1668.14686	100.43380
25100.00000	99.74066	1664.87301	99.74066
25150.00000	100.10811	1664.87311	100.10811
25200.00000	99.65641	1659.71731	99.65641
25250.00000	99.51202	1659.99969	99.51202
25300.00000	99.64146	1658.82558	99.64146
25350.00000	99.57072	1652.82132	99.57072
25400.00000	99.54065	1648.87982	99.54065
25450.00000	99.36908	1648.49771	99.36908
25500.00000	99.11742	1647.35911	99.11742
25550.00000	99.03976	1644.25788	99.03976
25600.00000	99.03716	1642.39417	99.03716
25650.00000	98.88785	1642.31298	98.88785
25700.00000	98.88823	1639.28180	98.88823
25750.00000	98.55236	1636.32513	98.55236
25800.00000	98.54553	1633.57846	98.54553
25850.00000	98.47135	1632.51839	98.47135
25900.00000	98.48358	1629.23015	98.48358
25950.00000	98.17854	1631.20624	98.17854
26000.00000	98.21248	1626.60677	98.21248
26050.00000	98.13766	1625.11958	98.13766
26100.00000	98.06943	1624.25588	98.06943
26150.00000	98.08477	1621.95350	98.08477
26200.00000	98.16648	1620.08268	98.16648
26250.00000	97.98730	1618.61070	97.98730
26300.00000	98.08958	1615.14810	98.08958
26350.00000	97.65426	1614.72174	97.65426
26400.00000	97.70582	1612.63310	97.70582
26450.00000	98.06118	1609.80196	98.06118
26500.00000	97.75651	1607.04312	97.75651
26550.00000	97.69151	1602.57051	97.69151
26600.00000	97.53866	1601.16664	97.53866
26650.00000	97.65209	1601.48739	97.65209
26700.00000	97.68382	1599.15534	97.68382
26750.00000	97.40542	1596.86861	97.40542
26800.00000	97.40242	1591.90134	97.40242
26850.00000	97.66347	1592.07373	97.66347
26900.00000	97.52267	1590.13455	97.52267
26950.00000	97.52026	1585.38028	97.52026
27000.00000	97.03485	1585.97860	97.03485
27050.00000	97.28232	1582.89821	97.28232
27100.00000	96.91490	1582.67766	96.91490
27150.00000	96.82348	1578.61894	96.82348
27200.00000	96.90863	1577.52411	96.90863
27250.00000	96.45436	1577.32062	96.45436
27300.00000	96.29249	1573.50591	96.29249
27350.00000	96.24456	1574.33597	96.24456
27400.00000	96.03027	1572.81213	96.03027
27450.00000	95.66177	1571.10169	95.66177
27500.00000	95.69477	1570.43182	95.69477
27550.00000	95.86831	1569.29960	95.86831
27600.00000	95.95788	1566.44817	95.95788
27650.00000	95.44771	1567.47898	95.44771
27700.00000	95.39714	1561.98799	95.39714
27750.00000	95.39934	1560.79755	95.39934
27800.00000	95.27344	1558.30743	95.27344
27850.00000	95.47597	1561.71817	95.47597
27900.00000	95.02407	1560.32017	95.02407
27950.00000	94.41190	1558.40650	94.41190
28000.00000	94.57423	1558.25740	94.57423
28050.00000	95.05865	1556.77139	95.05865
28100.00000	94.51254	1556.22353	94.51254
28150.00000	94.38313	1554.83953	94.38313
28200.00000	94.64669	1552.45150	94.64669
28250.00000	94.32077	1549.84097	94.32077
28300.00000	94.10685	1552.26109	94.10685
28350.00000	94.27111	1552.69952	94.27111
28400.00000	94.22840	1552.76658	94.22840
28450.00000	94.81376	1549.98466	94.81376
28500.00000	94.18815	1550.59257	94.18815
28550.00000	94.08750	1553.05922	94.08750
28600.00000	94.18070	1551.43821	94.18070
28650.00000	94.47938	1548.66497	94.47938
28700.00000	94.50010	1549.11183	94.50010
28750.00000	95.07709	1550.41063	95.07709
28800.00000	94.95454	1549.93421	94.95454
28850.00000	94.32785	1545.80296	94.32785
28900.00000	94.58935	1545.85341	94.58935
28950.00000	94.60972	1547.07367	94.60972
29000.00000	94.81107	1547.08397	94.81107
29050.00000	94.75930	1546.54006	94.75930
29100.00000	94.75859	1548.29061	94.75859
29150.00000	94.72236	1546.76999	94.72236
29200.00000	94.78584	1545.32984	94.78584
29250.00000	95.36692	1544.72302	95.36692
29300.00000	95.13787	1542.30238	95.13787
29350.00000	95.69312	1541.80120	95.69312
29400.00000	95.72195	1541.13055	95.72195
29450.00000	95.50327	1540.41659	95.50327
29500.00000	96.20153	1540.34698	96.20153
29550.00000	95.97145	1537.02728	95.97145
29600.00000	96.01119	1538.00650	96.01119
29650.00000	96.16743	1534.63883	96.16743
29700.00000	96.26801	1537.73812	96.26801
29750.00000	96.35673	1535.82273	96.35673
29800.00000	96.34856	1533.76636	96.34856
29850.00000	96.54095	1531.67337	96.54095
29900.00000	96.85778	1532.11848	96.85778
29950.00000	96.27214	1530.97511	96.27214
30000.00000	96.82809	1531.72422	96.82809
30050.00000	96.87200	1528.67474	96.87200
30100.00000	96.65797	1529.67385	96.65797
30150.00000	96.93440	1526.82827	96.93440
30200.00000	97.04675	1523.71211	97.04675
30250.00000	96.95807	1524.33646	96.95807
30300.00000	96.84564	1524.98983	96.84564
30350.00000	97.01490	1525.19882	97.01490
30400.00000	97.08301	1523.34092	97.08301
30450.00000	96.85581	1522.24970	96.85581
30500.00000	96.93808	1521.18795	96.93808
30550.00000	97.03319	1522.32938	97.03319
30600.00000	97.08597	1522.18934	97.08597
30650.00000	97.25320	1522.42568	97.25320
30700.00000	97.39897	1521.18004	97.39897
30750.00000	97.31448	1522.29130	97.31448
30800.00000	97.52624	1522.15560	97.52624
30850.00000	97.79749	1523.42798	97.79749
30900.00000	97.76985	1524.31480	97.76985
30950.00000	98.27131	1523.07409	98.27131
31000.00000	98.62264	1522.29002	98.62264
31050.00000	98.97058	1522.40115	98.97058
31100.00000	99.47252	1522.60217	99.47252
31150.00000	99.49968	1522.00286	99.49968
31200.00000	100.28798	1520.89239	100.28798
31250.00000	100.59541	1519.68839	100.59541
31300.00000	101.06361	1518.11465	101.06361
31350.00000	101.60701	1516.34746	101.60701
31400.00000	101.93446	1513.33346	101.93446
31450.00000	102.40133	1511.54058	102.40133
31500.00000	102.76874	1508.07008	102.76874
31550.00000	103.25423	1505.47367	103.25423
31600.00000	103.76861	1501.76369	103.76861
31650.00000	104.03868	1498.47371	104.03868
31700.00000	104.47735	1495.61718	104.47735
31750.00000	104.83238	1493.18569	104.83238
31800.00000	105.12641	1488.31751	105.12641
31850.00000	105.49005	1484.42786	105.49005
31900.00000	105.59986	1481.02409	105.59986
31950.00000	106.03461	1476.76159	106.03461
32000.00000	106.23536	1472.81622	106.23536
32050.00000	106.58622	1468.75525	106.58622
32100.00000	106.74579	1464.41886	106.74579
32150.00000	106.95023	1461.59379	106.95023
32200.00000	107.24184	1456.88683	107.24184
32250.00000	107.33924	1452.11751	107.33924
32300.00000	107.46974	1448.48090	107.46974
32350.00000	107.51184	1444.82095	107.51184
32400.00000	107.79546	1441.47280	107.79546
32450.00000	107.78811	1437.30774	107.78811
32500.00000	108.09601	1433.12061	108.09601
32550.00000	108.20075	1428.85695	108.20075
32600.00000	108.17141	1425.54467	108.17141
32650.00000	108.37112	1421.42599	108.37112
32700.00000	108.35339	1417.21234	108.35339
32750.00000	108.46538	1413.14070	108.46538
32800.00000	108.73614	1409.88163	108.73614
32850.00000	108.70635	1405.39110	108.70635
32900.00000	108.69858	1401.25224	108.69858
32950.00000	108.64565	1396.72879	108.64565
33000.00000	108.68408	1395.25056	108.68408
33050.00000	108.63758	1389.47950	108.63758
33100.00000	108.84199	1386.82037	108.84199
33150.00000	108.77165	1383.06037	108.77165
33200.00000	108.93416	1380.13564	108.93416
33250.00000	108.85067	1376.84796	108.85067
33300.00000	108.75024	1371.94359	108.75024
33350.00000	108.63630	1368.61478	108.63630
33400.00000	108.67341	1366.63473	108.67341
33450.00000	108.68059	1361.31712	108.68059
33500.00000	108.77193	1360.02705	108.77193
33550.00000	108.34493	1355.54620	108.34493
33600.00000	108.59748	1352.83390	108.59748
33650.00000	108.46879	1349.59292	108.46879
33700.00000	108.43726	1346.43252	108.43726
33750.00000	108.18621	1343.28285	108.18621
33800.00000	108.21505	1340.05282	108.21505
33850.00000	107.79897	1337.55275	107.79897
33900.00000	108.01176	1334.65270	108.01176
33950.00000	107.83822	1333.12266	107.83822
34000.00000	107.79875	1330.51161	107.79875
34050.00000	107.58960	1326.68990	107.58960
34100.00000	107.30879	1325.72174	107.30879
34150.00000	107.51063	1323.15522	107.51063
34200.00000	107.30679	1322.82956	107.30679
34250.00000	107.21954	1319.33772	107.21954
34300.00000	107.12838	1317.55725	107.12838
34350.00000	107.17406	1315.50977	107.17406
34400.00000	106.83466	1316.00220	106.83466
34450.00000	107.06742	1311.09974	107.06742
34500.00000	106.84598	1310.10516	106.84598
34550.00000	106.96652	1308.06080	106.96652
34600.00000	106.54461	1306.37073	106.54461
34650.00000	106.84995	1306.85435	106.84995
34700.00000	106.45748	1306.22571	106.45748
34750.00000	106.56159	1301.22950	106.56159
34800.00000	106.69234	1302.47086	106.69234
34850.00000	106.68836	1303.28396	106.68836
34900.00000	107.07400	1298.85372	107.07400
34950.00000	106.69426	1299.08731	106.69426
35000.00000	106.76860	1297.14644	106.76860
35050.00000	106.99076	1298.20278	106.99076
35100.00000	107.15078	1295.57094	107.15078
35150.00000	107.12235	1295.32754	107.12235
35200.00000	107.07315	1293.45216	107.07315
35250.00000	107.15904	1290.68187	107.15904
35300.00000	107.43467	1289.26446	107.43467
35350.00000	107.57853	1288.01643	107.57853
35400.00000	107.57308	1287.02305	107.57308
35450.00000	107.71267	1285.62341	107.71267
35500.00000	107.57509	1284.29087	107.57509
35550.00000	107.84859	1283.49269	107.84859
35600.00000	107.76087	1281.33695	107.76087
35650.00000	107.94136	1280.64064	107.94136
35700.00000	108.16322	1278.85655	108.16322
35750.00000	108.13544	1278.07513	108.13544
35800.00000	108.18377	1278.49897	108.18377
35850.00000	108.42345	1275.22391	108.42345
35900.00000	108.60992	1274.50960	108.60992
35950.00000	108.96830	1271.79316	108.96830
36000.00000	109.11998	1270.80196	109.11998
36050.00000	109.18701	1268.58076	109.18701
36100.00000	109.56749	1267.64703	109.56749
36150.00000	109.43645	1264.45224	109.43645
36200.00000	109.59871	1262.53058	109.59871
36250.00000	109.64760	1260.04072	109.64760
36300.00000	109.51992	1259.11097	109.51992
36350.00000	109.91493	1257.81741	109.91493
36400.00000	109.91242	1256.33884	109.91242
36450.00000	109.84454	1253.17366	109.84454
36500.00000	110.22413	1252.19399	110.22413
36550.00000	110.09322	1248.83879	110.09322
36600.00000	110.24637	1248.32181	110.24637
36650.00000	110.35683	1245.97723	110.35683
36700.00000	110.64674	1243.28388	110.64674
36750.00000	110.58421	1240.05455	110.58421
36800.00000	110.53377	1239.67709	110.53377
36850.00000	110.57461	1237.20731	110.57461
36900.00000	110.78956	1235.64114	110.78956
36950.00000	110.57655	1232.13748	110.57655
37000.00000	110.45867	1232.31921	110.45867
37050.00000	110.61717	1229.70385	110.61717
37100.00000	110.78808	1225.98306	110.78808
37150.00000	110.87014	1223.44129	110.87014
37200.00000	111.05959	1222.73351	111.05959
37250.00000	111.02120	1220.24770	111.02120
37300.00000	110.96749	1218.09673	110.96749
37350.00000	111.20897	1216.48929	111.20897
37400.00000	110.96448	1214.72815	110.96448
37450.00000	111.08325	1212.89144	111.08325
37500.00000	111.55301	1207.97218	111.55301
37550.00000	111.28375	1206.79212	111.28375
37600.00000	111.31643	1204.56448	111.31643
37650.00000	111.36175	1202.61623	111.36175
37700.00000	111.64240	1198.69790	111.64240
37750.00000	111.57172	1196.30071	111.57172
37800.00000	111.66512	1194.47993	111.66512
37850.00000	111.72025	1189.32877	111.72025
37900.00000	111.64352	1187.21206	111.64352
37950.00000	111.72159	1185.53359	111.72159
38000.00000	111.87362	1182.24992	111.87362
38050.00000	112.08221	1179.73920	112.08221
38100.00000	112.18198	1176.96613	112.18198
38150.00000	112.27152	1173.15650	112.27152
38200.00000	112.60108	1169.81808	112.60108
38250.00000	112.70420	1165.37677	112.70420
38300.00000	112.92183	1161.54624	112.92183
38350.00000	112.99803	1158.96653	112.99803
38400.00000	113.15864	1155.21620	113.15864
38450.00000	113.42187	1150.81639	113.42187
38500.00000	113.60495	1146.14667	113.60495
38550.00000	113.83898	1143.00085	113.83898
38600.00000	113.95452	1138.15864	113.95452
38650.00000	114.11654	1134.18813	114.11654
38700.00000	114.22649	1129.45564	114.22649
38750.00000	114.42568	1125.00970	114.42568
38800.00000	114.64541	1120.77345	114.64541
38850.00000	114.76287	1116.08853	114.76287
38900.00000	114.91497	1110.81075	114.91497
38950.00000	114.90683	1105.99638	114.90683
39000.00000	115.02456	1101.49113	115.02456
39050.00000	115.19212	1096.45784	115.19212
39100.00000	115.15128	1091.23805	115.15128
39150.00000	115.15722	1086.00002	115.15722
39200.00000	115.15230	1081.31704	115.15230
39250.00000	115.12486	1076.70682	115.12486
39300.00000	115.14478	1071.59675	115.14478
39350.00000	115.00040	1067.33674	115.00040
39400.00000	114.92370	1062.06099	114.92370
39450.00000	114.80718	1057.95972	114.80718
39500.00000	114.70754	1053.64335	114.70754
39550.00000	114.56979	1049.01711	114.56979
39600.00000	114.33657	1044.54196	114.33657
39650.00000	114.21139	1041.31821	114.21139
39700.00000	114.02055	1037.63947	114.02055
39750.00000	113.88817	1033.98571	113.88817
39800.00000	113.74555	1030.30420	113.74555
39850.00000	113.57377	1026.41733	113.57377
39900.00000	113.34519	1023.96923	113.34519
39950.00000	113.17097	1020.60397	113.17097
40000.00000	112.94175	1018.76599	112.94175
40050.00000	112.82086	1014.34549	112.82086
40100.00000	112.73011	1011.31983	112.73011
40150.00000	112.43403	1008.69254	112.43403
40200.00000	112.35460	1005.69002	112.35460
40250.00000	112.12525	1002.99987	112.12525
40300.00000	112.07249	1000.47626	112.07249
40350.00000	111.74762	998.22437	111.74762
40400.00000	111.54094	995.49501	111.54094
40450.00000	111.34063	993.40514	111.34063
40500.00000	111.29117	991.80472	111.29117
40550.00000	111.07335	989.12616	111.07335
40600.00000	110.87765	987.68021	110.87765
40650.00000	110.66731	985.57689	110.66731
40700.00000	110.26980	984.11573	110.26980
40750.00000	110.29166	982.59551	110.29166
40800.00000	110.12142	980.96717	110.12142
40850.00000	109.83472	980.37034	109.83472
40900.00000	109.60222	978.41497	109.60222
40950.00000	109.34103	977.90616	109.34103
41000.00000	108.88713	978.15394	108.88713
41050.00000	108.90749	976.94795	108.90749
41100.00000	108.91698	975.50874	108.91698
41150.00000	108.74793	977.27574	108.74793
41200.00000	108.71756	976.59527	108.71756
41250.00000	108.50247	973.89833	108.50247
41300.00000	108.09323	976.21762	108.09323
41350.00000	108.08985	977.24325	108.08985
41400.00000	108.13143	972.04221	108.13143
41450.00000	108.00118	976.21609	108.00118
41500.00000	107.84341	974.95609	107.84341
41550.00000	107.71513	978.75980	107.71513
41600.00000	107.43523	977.37456	107.43523
41650.00000	107.70610	976.74230	107.70610
41700.00000	107.82082	977.93044	107.82082
41750.00000	107.48832	982.82114	107.48832
41800.00000	106.64195	978.91967	106.64195
41850.00000	106.65470	979.73265	106.65470
41900.00000	106.51733	981.99134	106.51733
41950.00000	107.71318	986.99715	107.71318
42000.00000	106.66786	979.98950	106.66786
42050.00000	105.64447	982.62011	105.64447
42100.00000	106.14181	984.17863	106.14181
42150.00000	105.53582	979.39966	105.53582
42200.00000	105.41010	985.44658	105.41010
42250.00000	105.30928	985.24628	105.30928
42300.00000	104.78529	984.68181	104.78529
42350.00000	105.10432	986.25788	105.10432
42400.00000	105.01988	989.60715	105.01988
42450.00000	105.31346	983.27670	105.31346
42500.00000	104.80061	985.00978	104.80061
42550.00000	104.95424	997.27546	104.95424
42600.00000	104.26655	986.49415	104.26655
42650.00000	103.90707	988.07669	103.90707
42700.00000	103.46739	988.89654	103.46739
42750.00000	104.45071	984.47704	104.45071
42800.00000	103.41831	979.39736	103.41831
42850.00000	103.54734	976.25073	103.54734
42900.00000	104.86422	982.97926	104.86422
42950.00000	104.01411	976.72080	104.01411
43000.00000	104.22907	968.09276	104.22907
43050.00000	103.80950	963.47234	103.80950
43100.00000	104.03788	968.58488	104.03788
43150.00000	103.14260	964.95292	103.14260
43200.00000	104.08671	955.93337	104.08671
43250.00000	103.98154	951.94722	103.98154
43300.00000	104.15442	949.47334	104.15442
43350.00000	105.27421	942.03726	105.27421
43400.00000	104.38621	932.33359	104.38621
43450.00000	105.44470	933.82820	105.44470
43500.00000	104.37730	925.57150	104.37730
43550.00000	104.96795	917.34090	104.96795
43600.00000	104.71835	913.10578	104.71835
43650.00000	105.77826	902.77835	105.77826
43700.00000	105.51079	898.56050	105.51079
43750.00000	105.12261	894.31997	105.12261
43800.00000	105.73412	887.07751	105.73412
43850.00000	106.32663	878.34047	106.32663
43900.00000	106.55158	874.47213	106.55158
43950.00000	106.58570	865.97649	106.58570
44000.00000	106.49192	862.21838	106.49192
44050.00000	107.06989	854.35986	107.06989
44100.00000	107.39839	841.22274	107.39839
44150.00000	106.77954	843.07007	106.77954
44200.00000	107.32760	838.46811	107.32760
44250.00000	107.34166	829.42833	107.34166
44300.00000	107.86072	820.84037	107.86072
44350.00000	106.93661	817.00476	106.93661
44400.00000	107.62261	813.10092	107.62261
44450.00000	108.26837	808.63322	108.26837
44500.00000	107.83053	803.37613	107.83053
44550.00000	109.14850	793.56840	109.14850
44600.00000	107.84838	794.02755	107.84838
44650.00000	107.72539	783.85626	107.72539
44700.00000	107.66495	780.53051	107.66495
44750.00000	107.80605	780.40073	107.80605
44800.00000	108.34070	772.70223	108.34070
44850.00000	107.92112	766.82554	107.92112
44900.00000	107.58501	764.58736	107.58501
44950.00000	107.77525	757.97574	107.77525
45000.00000	107.77226	749.02265	107.77226
45050.00000	106.37443	754.28624	106.37443
45100.00000	106.68486	745.70786	106.68486
45150.00000	107.25730	734.84261	107.25730
45200.00000	106.66976	738.77444	106.66976
45250.00000	106.61779	732.19175	106.61779
45300.00000	106.59074	728.73428	106.59074
45350.00000	106.19011	720.63172	106.19011
45400.00000	106.16132	719.75798	106.16132
45450.00000	105.89293	714.00093	105.89293
45500.00000	104.53700	708.15786	104.53700
45550.00000	104.50059	710.98003	104.50059
45600.00000	105.54030	701.32595	105.54030
45650.00000	103.90966	697.97481	103.90966
45700.00000	103.91281	693.88732	103.91281
45750.00000	104.47057	697.59077	104.47057
45800.00000	103.08197	687.13029	103.08197
45850.00000	103.40274	689.66301	103.40274
45900.00000	102.47778	683.99082	102.47778
45950.00000	102.22597	688.34658	102.22597
46000.00000	100.88042	669.44615	100.88042
46050.00000	101.49433	670.00779	101.49433
46100.00000	100.08819	674.84351	100.08819
46150.00000	100.17214	672.91688	100.17214
46200.00000	97.94273	662.99004	97.94273
46250.00000	99.40554	662.70329	99.40554
46300.00000	98.16242	664.53367	98.16242
46350.00000	99.70120	657.26612	99.70120
46400.00000	97.73588	656.64206	97.73588
46450.00000	95.75667	656.72317	95.75667
46500.00000	97.26856	658.12749	97.26856
46550.00000	96.72618	664.55887	96.72618
46600.00000	97.11367	662.28561	97.11367
46650.00000	94.02073	662.08606	94.02073
46700.00000	94.27135	671.72753	94.27135
46750.00000	94.96649	676.90574	94.96649
46800.00000	92.89342	665.55552	92.89342
46850.00000	94.49910	322.55479	94.49910
46900.00000	93.90266	313.44536	93.90266
46950.00000	94.98021	311.23059	94.98021
47000.00000	94.52280	319.95635	94.52280
47050.00000	96.13137	312.72098	96.13137
47100.00000	95.00317	310.42877	95.00317
47150.00000	95.94439	310.30644	95.94439
47200.00000	94.43928	312.84153	94.43928
47250.00000	96.56719	311.84565	96.56719
47300.00000	95.90259	303.38910	95.90259
47350.00000	95.51817	-47.69434	95.51817
47400.00000	94.89531	-49.07025	94.89531
47450.00000	96.08460	-49.89418	96.08460
47500.00000	94.39565	-59.70509	94.39565
47550.00000	94.10345	-411.98476	94.10345
47600.00000	94.94012	-416.40897	94.94012
47650.00000	96.51696	-420.19848	96.51696
47700.00000	95.68320	-420.87762	95.68320
47750.00000	93.84003	-417.90385	93.84003
47800.00000	94.31154	-433.60158	94.31154
47850.00000	95.10818	-784.22053	95.10818
47900.00000	95.35119	-1133.63881	95.35119
47950.00000	94.38671	-1137.19621	94.38671
48000.00000	94.35400	-1132.36975	94.35400
48050.00000	95.35127	-1144.08107	95.35127
48100.00000	94.22325	-1143.56901	94.22325
48150.00000	94.60994	-1495.06524	94.60994
48200.00000	94.98588	-1497.87513	94.98588
48250.00000	94.35466	-1506.26130	94.35466
48300.00000	95.13799	-1504.70414	95.13799
48350.00000	95.48187	-1509.27594	95.48187
48400.00000	95.91828	-1852.93487	95.91828
48450.00000	96.58802	-1862.33998	96.58802
48500.00000	95.80323	-1862.11316	95.80323
48550.00000	94.96720	-1869.83361	94.96720
48600.00000	96.87697	-2226.81140	96.87697
48650.00000	97.25417	-2226.34639	97.25417
48700.00000	97.65085	-2234.82179	97.65085
48750.00000	96.33938	-2585.71536	96.33938
48800.00000	97.31326	-2593.47015	97.31326
48850.00000	97.37111	-2598.11697	97.37111
48900.00000	96.08698	-2952.19840	96.08698
48950.00000	97.27447	-2968.13291	97.27447
49000.00000	97.73833	-2966.96261	97.73833
49050.00000	97.08935	-2971.44307	97.08935
49100.00000	96.66684	-3331.19934	96.66684
49150.00000	98.42971	-3687.03184	98.42971
49200.00000	97.23208	-3702.62324	97.23208
49250.00000	97.75319	-4052.09529	97.75319
49300.00000	97.68384	-3704.37470	97.68384
49350.00000	96.45827	-3689.34586	96.45827
49400.00000	96.51144	-3345.93653	96.51144
49450.00000	94.50389	-2995.45887	94.50389
49500.00000	95.36037	-2636.26682	95.36037
49550.00000	96.25265	-2285.14236	96.25265
49600.00000	95.48013	-2274.89030	95.48013
49650.00000	95.29640	-2270.23898	95.29640
49700.00000	95.85888	-1937.46881	95.85888
49750.00000	96.16897	-1926.20925	96.16897
49800.00000	93.81212	-1923.20547	93.81212
49850.00000	93.50751	-1907.03509	93.50751
49900.00000	92.34597	-1552.69534	92.34597
49950.00000	95.50399	-1212.84683	95.50399
