---ACOUSTIC CALIBRATION---
Filename: C:\Data\AZH DATA\AZH31\RightPrimary.calib
Date: 8/27/2019 12:49:52 PM
Format: 4
Probe Tube Correction File: C:\Data\Probe Tube Calibrations\50_ProbeTube.calib
Experiment VIs: 850
EPL_CFTS.exe V12.0.1 (2012)
DAQmx V9.6

Attenuation (dB): 40.000000
Min Freq (Hz): 50.000000
Max Freq (Hz): 49950.000000
Freq Step (Hz): 50.000000
Sample Rate (Hz): 100000.000000
[Smoothing]
Method=None
MA.Iterations=0
MA.Length=0
Loess.Length=0
Loess.Type=Linear
Loess.Robust=FALSE


Freq(Hz)	Mag(dB)	Phase(deg)	Unsmoothed(dB)

50.00000	103.00791	640.50644	103.00791
100.00000	80.24898	592.73944	80.24898
150.00000	77.27021	494.84025	77.27021
200.00000	81.45844	434.61095	81.45844
250.00000	88.58443	459.00087	88.58443
300.00000	80.84176	410.08822	80.84176
350.00000	83.45851	385.95077	83.45851
400.00000	85.36710	387.30307	85.36710
450.00000	87.70221	381.44255	87.70221
500.00000	87.77652	364.12671	87.77652
550.00000	90.76955	365.71340	90.76955
600.00000	95.95592	362.22891	95.95592
650.00000	96.99179	347.76547	96.99179
700.00000	99.09200	337.08292	99.09200
750.00000	100.66866	317.15682	100.66866
800.00000	101.82594	292.40617	101.82594
850.00000	100.72678	275.75515	100.72678
900.00000	99.28260	262.18871	99.28260
950.00000	96.92522	259.21730	96.92522
1000.00000	95.39231	259.87765	95.39231
1050.00000	93.61615	279.25734	93.61615
1100.00000	95.99189	301.10013	95.99189
1150.00000	98.89229	303.01746	98.89229
1200.00000	101.60097	298.06685	101.60097
1250.00000	103.23005	291.30188	103.23005
1300.00000	104.84584	285.08896	104.84584
1350.00000	105.97904	275.50250	105.97904
1400.00000	106.72514	267.95381	106.72514
1450.00000	107.73033	262.60012	107.73033
1500.00000	108.78835	255.99031	108.78835
1550.00000	109.75042	246.46171	109.75042
1600.00000	111.18723	235.23685	111.18723
1650.00000	112.00191	219.66320	112.00191
1700.00000	110.78101	209.44047	110.78101
1750.00000	110.43251	204.10964	110.43251
1800.00000	110.23543	199.89336	110.23543
1850.00000	110.30171	199.66928	110.30171
1900.00000	111.72179	195.33376	111.72179
1950.00000	112.18627	181.22326	112.18627
2000.00000	111.15414	169.53715	111.15414
2050.00000	109.92386	175.59188	109.92386
2100.00000	111.94387	174.22041	111.94387
2150.00000	112.38348	162.35718	112.38348
2200.00000	112.25889	151.92420	112.25889
2250.00000	111.62757	145.71638	111.62757
2300.00000	111.75094	139.92770	111.75094
2350.00000	111.43444	133.74717	111.43444
2400.00000	111.16572	128.05849	111.16572
2450.00000	110.78948	121.91861	110.78948
2500.00000	110.45545	116.72513	110.45545
2550.00000	109.88427	111.40143	109.88427
2600.00000	109.34452	107.29416	109.34452
2650.00000	108.74771	103.71279	108.74771
2700.00000	108.23294	100.04442	108.23294
2750.00000	107.46482	96.65077	107.46482
2800.00000	106.77864	94.45327	106.77864
2850.00000	105.99100	93.04510	105.99100
2900.00000	105.24025	91.83489	105.24025
2950.00000	104.27592	91.54499	104.27592
3000.00000	103.26526	92.17248	103.26526
3050.00000	101.95229	95.67458	101.95229
3100.00000	100.84544	103.32469	100.84544
3150.00000	99.96164	115.48325	99.96164
3200.00000	100.46226	131.37662	100.46226
3250.00000	101.54507	142.81197	101.54507
3300.00000	103.02961	151.17248	103.02961
3350.00000	104.91343	157.77608	104.91343
3400.00000	107.08228	161.85388	107.08228
3450.00000	109.25457	160.91606	109.25457
3500.00000	111.34038	156.89928	111.34038
3550.00000	112.89888	150.23538	112.89888
3600.00000	114.30945	144.29154	114.30945
3650.00000	115.51608	137.08936	115.51608
3700.00000	116.60205	129.87015	116.60205
3750.00000	117.61530	122.00264	117.61530
3800.00000	118.40882	113.42047	118.40882
3850.00000	118.97700	105.41249	118.97700
3900.00000	119.51283	98.23257	119.51283
3950.00000	120.09523	91.36098	120.09523
4000.00000	120.64276	83.97474	120.64276
4050.00000	121.21054	76.65218	121.21054
4100.00000	121.79630	69.00763	121.79630
4150.00000	122.50444	60.45023	122.50444
4200.00000	122.87494	50.54511	122.87494
4250.00000	123.17947	40.27541	123.17947
4300.00000	123.29504	29.80328	123.29504
4350.00000	123.18633	19.41089	123.18633
4400.00000	122.94238	 9.89702	122.94238
4450.00000	122.60669	 1.06332	122.60669
4500.00000	122.23984	-7.10336	122.23984
4550.00000	121.89144	-15.09000	121.89144
4600.00000	121.48070	-22.89910	121.48070
4650.00000	121.05324	-30.62972	121.05324
4700.00000	120.53586	-38.82294	120.53586
4750.00000	119.82175	-47.00396	119.82175
4800.00000	118.88994	-54.68090	118.88994
4850.00000	117.72817	-60.83928	117.72817
4900.00000	116.49915	-64.69454	116.49915
4950.00000	115.33440	-66.37028	115.33440
5000.00000	114.32320	-66.79112	114.32320
5050.00000	113.45343	-66.51628	113.45343
5100.00000	112.53279	-62.50531	112.53279
5150.00000	112.72292	-58.72364	112.72292
5200.00000	112.56570	-54.42087	112.56570
5250.00000	114.12789	-53.89335	114.12789
5300.00000	114.56846	-63.50361	114.56846
5350.00000	114.16671	-69.78960	114.16671
5400.00000	113.71744	-73.49066	113.71744
5450.00000	113.34295	-76.10879	113.34295
5500.00000	113.04488	-78.44566	113.04488
5550.00000	112.81089	-80.50709	112.81089
5600.00000	112.59409	-82.39711	112.59409
5650.00000	112.43476	-84.29643	112.43476
5700.00000	112.26093	-86.44903	112.26093
5750.00000	112.14297	-88.11308	112.14297
5800.00000	112.03247	-89.81102	112.03247
5850.00000	111.97592	-91.73688	111.97592
5900.00000	111.96682	-93.60092	111.96682
5950.00000	111.99273	-95.92373	111.99273
6000.00000	112.00696	-98.50522	112.00696
6050.00000	111.98884	-101.34235	111.98884
6100.00000	111.93173	-104.26153	111.93173
6150.00000	111.83484	-107.19333	111.83484
6200.00000	111.71889	-109.95517	111.71889
6250.00000	111.61270	-112.64970	111.61270
6300.00000	111.51785	-115.18862	111.51785
6350.00000	111.39686	-117.85008	111.39686
6400.00000	111.27076	-120.39742	111.27076
6450.00000	111.20009	-122.88381	111.20009
6500.00000	111.07638	-125.37466	111.07638
6550.00000	110.96697	-127.81878	110.96697
6600.00000	110.87585	-130.09395	110.87585
6650.00000	110.80950	-132.40797	110.80950
6700.00000	110.74780	-134.89049	110.74780
6750.00000	110.68601	-137.23357	110.68601
6800.00000	110.63815	-139.56584	110.63815
6850.00000	110.60633	-142.03348	110.60633
6900.00000	110.56604	-144.54646	110.56604
6950.00000	110.53781	-147.15110	110.53781
7000.00000	110.49444	-149.65611	110.49444
7050.00000	110.44522	-152.42839	110.44522
7100.00000	110.41862	-155.17649	110.41862
7150.00000	110.36731	-157.87432	110.36731
7200.00000	110.30943	-160.64677	110.30943
7250.00000	110.24127	-163.57802	110.24127
7300.00000	110.20679	-166.43261	110.20679
7350.00000	110.12503	-169.40969	110.12503
7400.00000	110.06696	-172.46516	110.06696
7450.00000	109.97221	-175.57316	109.97221
7500.00000	109.85444	-178.51959	109.85444
7550.00000	109.77777	-181.48806	109.77777
7600.00000	109.65687	-184.50681	109.65687
7650.00000	109.53224	-187.55793	109.53224
7700.00000	109.44123	-190.41835	109.44123
7750.00000	109.26757	-193.45021	109.26757
7800.00000	109.12005	-196.09276	109.12005
7850.00000	108.96246	-198.78459	108.96246
7900.00000	108.83115	-201.32951	108.83115
7950.00000	108.68382	-204.12444	108.68382
8000.00000	108.55121	-206.76771	108.55121
8050.00000	108.40635	-209.66596	108.40635
8100.00000	108.28186	-211.88433	108.28186
8150.00000	108.10096	-214.30256	108.10096
8200.00000	107.98539	-216.56240	107.98539
8250.00000	107.82267	-219.15990	107.82267
8300.00000	107.70088	-221.55211	107.70088
8350.00000	107.55025	-223.80200	107.55025
8400.00000	107.39398	-226.60415	107.39398
8450.00000	107.18048	-229.06101	107.18048
8500.00000	106.99093	-231.85690	106.99093
8550.00000	106.84546	-234.32157	106.84546
8600.00000	106.66473	-237.24262	106.66473
8650.00000	106.46920	-239.88548	106.46920
8700.00000	106.33706	-243.13547	106.33706
8750.00000	106.13900	-244.87300	106.13900
8800.00000	106.00425	-247.78067	106.00425
8850.00000	105.82270	-250.32709	105.82270
8900.00000	105.66611	-252.31392	105.66611
8950.00000	105.48800	-254.94000	105.48800
9000.00000	105.23064	-257.03061	105.23064
9050.00000	105.04844	-259.62468	105.04844
9100.00000	104.83567	-261.94815	104.83567
9150.00000	104.61337	-264.33863	104.61337
9200.00000	104.44995	-266.87021	104.44995
9250.00000	104.22697	-269.23699	104.22697
9300.00000	104.09019	-271.67467	104.09019
9350.00000	104.00795	-274.05356	104.00795
9400.00000	103.81831	-275.79918	103.81831
9450.00000	103.72587	-277.47953	103.72587
9500.00000	103.69542	-278.16501	103.69542
9550.00000	103.73318	-279.57576	103.73318
9600.00000	103.72133	-281.80834	103.72133
9650.00000	103.56700	-284.02666	103.56700
9700.00000	103.41049	-285.60677	103.41049
9750.00000	103.28344	-288.42521	103.28344
9800.00000	103.05251	-290.32675	103.05251
9850.00000	102.89223	-292.29464	102.89223
9900.00000	102.62846	-295.02875	102.62846
9950.00000	102.51931	-296.92947	102.51931
10000.00000	102.41283	-299.67956	102.41283
10050.00000	102.24327	-301.67046	102.24327
10100.00000	102.09956	-303.48222	102.09956
10150.00000	101.86113	-305.92822	101.86113
10200.00000	101.71371	-307.76728	101.71371
10250.00000	101.47708	-310.10496	101.47708
10300.00000	101.36267	-312.29634	101.36267
10350.00000	101.13488	-314.47257	101.13488
10400.00000	100.88586	-317.14235	100.88586
10450.00000	100.79990	-319.96819	100.79990
10500.00000	100.71782	-322.44019	100.71782
10550.00000	100.61962	-325.01047	100.61962
10600.00000	100.48370	-327.08367	100.48370
10650.00000	100.36758	-328.79449	100.36758
10700.00000	100.23625	-331.61801	100.23625
10750.00000	100.11791	-333.79657	100.11791
10800.00000	99.88242	-335.67365	99.88242
10850.00000	99.65726	-338.78135	99.65726
10900.00000	99.45062	-340.95283	99.45062
10950.00000	99.22266	-343.04513	99.22266
11000.00000	99.00856	-345.52071	99.00856
11050.00000	98.64998	-347.86706	98.64998
11100.00000	98.39524	-350.53530	98.39524
11150.00000	98.03218	-352.48454	98.03218
11200.00000	97.78403	-354.30657	97.78403
11250.00000	97.41799	-356.49742	97.41799
11300.00000	97.01206	-358.45402	97.01206
11350.00000	96.64764	-359.86734	96.64764
11400.00000	96.21034	-361.57459	96.21034
11450.00000	95.87920	-363.46938	95.87920
11500.00000	95.66929	-364.18374	95.66929
11550.00000	95.25786	-365.04055	95.25786
11600.00000	95.06023	-366.74546	95.06023
11650.00000	94.75211	-366.52770	94.75211
11700.00000	94.51538	-366.97167	94.51538
11750.00000	94.30694	-367.62627	94.30694
11800.00000	94.06235	-368.60377	94.06235
11850.00000	93.90567	-368.27446	93.90567
11900.00000	93.56842	-369.32413	93.56842
11950.00000	93.40848	-369.76606	93.40848
12000.00000	93.18092	-369.78048	93.18092
12050.00000	92.98013	-370.07329	92.98013
12100.00000	92.86925	-371.45223	92.86925
12150.00000	92.69270	-372.17059	92.69270
12200.00000	92.65085	-373.25451	92.65085
12250.00000	92.53401	-373.55031	92.53401
12300.00000	93.54313	-374.67644	93.54313
12350.00000	92.29053	-375.29573	92.29053
12400.00000	92.17801	-375.27766	92.17801
12450.00000	92.06694	-375.95133	92.06694
12500.00000	91.92772	-377.39856	91.92772
12550.00000	91.80492	-378.50713	91.80492
12600.00000	91.59614	-380.25986	91.59614
12650.00000	91.62769	-381.50893	91.62769
12700.00000	91.37335	-382.23568	91.37335
12750.00000	91.21177	-383.76601	91.21177
12800.00000	91.05626	-384.63990	91.05626
12850.00000	90.50364	-385.37764	90.50364
12900.00000	90.28630	-386.61136	90.28630
12950.00000	90.08899	-387.79072	90.08899
13000.00000	89.81901	-389.14283	89.81901
13050.00000	89.66610	-388.53670	89.66610
13100.00000	89.33091	-389.30442	89.33091
13150.00000	89.18304	-389.56826	89.18304
13200.00000	88.95375	-388.17365	88.95375
13250.00000	88.64136	-388.09156	88.64136
13300.00000	88.37622	-385.89566	88.37622
13350.00000	88.05786	-386.18648	88.05786
13400.00000	88.06373	-385.50105	88.06373
13450.00000	87.72944	-383.44848	87.72944
13500.00000	87.68686	-381.85225	87.68686
13550.00000	87.58493	-381.58425	87.58493
13600.00000	87.54500	-379.39564	87.54500
13650.00000	87.46463	-378.16705	87.46463
13700.00000	87.13446	-377.41051	87.13446
13750.00000	87.13304	-376.61024	87.13304
13800.00000	87.06743	-376.85437	87.06743
13850.00000	87.02444	-375.92378	87.02444
13900.00000	87.14078	-374.55127	87.14078
13950.00000	87.28410	-373.48414	87.28410
14000.00000	87.64982	-370.85580	87.64982
14050.00000	87.85409	-369.19393	87.85409
14100.00000	87.90022	-367.36967	87.90022
14150.00000	88.13921	-366.21528	88.13921
14200.00000	88.36080	-364.84104	88.36080
14250.00000	88.88910	-362.65976	88.88910
14300.00000	89.10607	-362.30165	89.10607
14350.00000	89.44356	-360.28715	89.44356
14400.00000	89.37359	-359.85549	89.37359
14450.00000	89.71747	-358.40147	89.71747
14500.00000	89.99151	-358.86045	89.99151
14550.00000	90.37548	-357.57486	90.37548
14600.00000	90.65535	-358.29764	90.65535
14650.00000	91.23388	-356.32593	91.23388
14700.00000	91.58226	-360.57861	91.58226
14750.00000	92.02747	-360.06793	92.02747
14800.00000	92.33946	-359.34549	92.33946
14850.00000	92.91322	-358.92293	92.91322
14900.00000	93.42417	-359.47111	93.42417
14950.00000	93.89628	-360.16976	93.89628
15000.00000	94.40323	-360.95032	94.40323
15050.00000	94.64010	-360.29632	94.64010
15100.00000	95.08613	-361.29531	95.08613
15150.00000	95.72438	-363.09819	95.72438
15200.00000	96.10129	-363.11047	96.10129
15250.00000	96.43142	-365.03445	96.43142
15300.00000	97.10629	-366.91878	97.10629
15350.00000	97.56767	-369.29395	97.56767
15400.00000	97.91964	-370.13970	97.91964
15450.00000	98.35035	-372.69923	98.35035
15500.00000	98.91537	-374.94563	98.91537
15550.00000	99.36040	-377.70237	99.36040
15600.00000	99.74769	-380.22761	99.74769
15650.00000	100.32416	-381.18526	100.32416
15700.00000	100.49802	-385.15003	100.49802
15750.00000	101.00214	-387.69663	101.00214
15800.00000	101.39021	-389.90484	101.39021
15850.00000	101.69366	-392.83362	101.69366
15900.00000	101.93963	-396.19973	101.93963
15950.00000	102.32386	-399.26501	102.32386
16000.00000	102.60683	-401.87189	102.60683
16050.00000	102.95165	-404.80128	102.95165
16100.00000	103.11614	-408.19628	103.11614
16150.00000	103.32678	-411.15946	103.32678
16200.00000	103.58586	-414.77845	103.58586
16250.00000	103.86005	-417.73642	103.86005
16300.00000	104.24847	-420.67303	104.24847
16350.00000	104.42210	-423.72056	104.42210
16400.00000	104.61649	-426.59884	104.61649
16450.00000	104.82509	-429.53943	104.82509
16500.00000	105.02208	-432.70297	105.02208
16550.00000	105.27318	-436.35338	105.27318
16600.00000	105.49654	-439.17951	105.49654
16650.00000	105.60822	-442.37489	105.60822
16700.00000	105.82892	-445.14885	105.82892
16750.00000	105.91321	-448.76502	105.91321
16800.00000	106.12033	-452.33022	106.12033
16850.00000	106.33102	-455.47747	106.33102
16900.00000	106.49276	-458.71845	106.49276
16950.00000	106.65865	-461.87209	106.65865
17000.00000	106.69704	-465.21297	106.69704
17050.00000	106.85949	-467.75003	106.85949
17100.00000	106.91275	-470.09400	106.91275
17150.00000	107.15334	-473.91655	107.15334
17200.00000	107.28815	-476.83941	107.28815
17250.00000	107.37401	-480.58189	107.37401
17300.00000	107.54233	-483.77472	107.54233
17350.00000	107.52887	-486.59668	107.52887
17400.00000	107.70908	-489.74869	107.70908
17450.00000	107.74523	-493.58705	107.74523
17500.00000	107.89612	-496.75177	107.89612
17550.00000	107.99390	-499.85278	107.99390
17600.00000	108.16699	-502.76746	108.16699
17650.00000	108.24306	-506.87452	108.24306
17700.00000	108.29439	-510.40741	108.29439
17750.00000	108.48952	-513.06729	108.48952
17800.00000	108.45167	-517.11317	108.45167
17850.00000	108.53879	-520.11700	108.53879
17900.00000	108.59153	-523.67076	108.59153
17950.00000	108.70677	-527.50207	108.70677
18000.00000	108.73569	-531.47672	108.73569
18050.00000	108.89354	-534.43684	108.89354
18100.00000	108.84122	-538.55333	108.84122
18150.00000	108.84845	-541.54024	108.84845
18200.00000	108.80090	-545.71602	108.80090
18250.00000	108.85584	-548.55718	108.85584
18300.00000	108.88832	-552.22371	108.88832
18350.00000	108.85718	-555.55166	108.85718
18400.00000	108.78697	-559.46582	108.78697
18450.00000	108.69741	-564.06471	108.69741
18500.00000	108.68781	-567.35050	108.68781
18550.00000	108.60612	-570.26583	108.60612
18600.00000	108.61011	-574.20608	108.61011
18650.00000	108.39985	-577.27911	108.39985
18700.00000	108.29656	-581.12926	108.29656
18750.00000	108.24737	-584.23676	108.24737
18800.00000	108.25552	-586.88750	108.25552
18850.00000	108.01943	-590.22289	108.01943
18900.00000	107.88044	-593.24491	107.88044
18950.00000	107.80870	-596.80176	107.80870
19000.00000	107.55542	-599.31926	107.55542
19050.00000	107.56627	-602.27003	107.56627
19100.00000	107.40181	-604.91229	107.40181
19150.00000	107.42435	-607.57253	107.42435
19200.00000	107.29379	-609.88433	107.29379
19250.00000	107.16296	-613.81752	107.16296
19300.00000	107.00015	-615.71866	107.00015
19350.00000	106.91457	-618.43789	106.91457
19400.00000	106.78916	-620.90813	106.78916
19450.00000	106.77756	-623.03374	106.77756
19500.00000	106.59269	-626.42711	106.59269
19550.00000	106.55078	-628.90540	106.55078
19600.00000	106.54117	-632.02022	106.54117
19650.00000	106.36897	-634.12999	106.36897
19700.00000	106.18419	-636.87557	106.18419
19750.00000	106.09054	-638.87599	106.09054
19800.00000	106.09673	-642.26525	106.09673
19850.00000	106.00993	-644.56666	106.00993
19900.00000	105.87053	-647.76456	105.87053
19950.00000	105.74818	-650.21768	105.74818
20000.00000	105.65758	-652.88568	105.65758
20050.00000	105.56812	-655.49346	105.56812
20100.00000	105.37702	-658.08949	105.37702
20150.00000	105.32979	-659.80631	105.32979
20200.00000	105.17387	-663.20163	105.17387
20250.00000	104.99154	-665.46850	104.99154
20300.00000	104.78420	-668.02840	104.78420
20350.00000	104.72024	-670.64026	104.72024
20400.00000	104.50541	-672.23159	104.50541
20450.00000	104.26935	-674.64529	104.26935
20500.00000	104.16587	-677.17708	104.16587
20550.00000	103.75900	-678.57065	103.75900
20600.00000	103.67617	-680.38962	103.67617
20650.00000	103.48736	-682.27992	103.48736
20700.00000	103.25595	-683.86367	103.25595
20750.00000	103.13171	-685.29419	103.13171
20800.00000	102.91320	-686.30290	102.91320
20850.00000	102.80703	-687.64698	102.80703
20900.00000	102.59229	-688.81083	102.59229
20950.00000	102.44575	-689.25177	102.44575
21000.00000	102.33233	-690.02350	102.33233
21050.00000	102.38811	-690.29738	102.38811
21100.00000	102.30485	-690.84783	102.30485
21150.00000	102.37664	-691.68796	102.37664
21200.00000	102.44205	-692.14067	102.44205
21250.00000	102.47952	-694.14155	102.47952
21300.00000	102.61755	-694.57787	102.61755
21350.00000	102.66610	-695.69049	102.66610
21400.00000	102.74317	-697.48881	102.74317
21450.00000	102.86276	-699.12054	102.86276
21500.00000	102.96307	-701.03773	102.96307
21550.00000	102.92926	-702.56765	102.92926
21600.00000	103.08171	-704.66434	103.08171
21650.00000	103.10621	-706.87668	103.10621
21700.00000	103.13654	-708.56919	103.13654
21750.00000	103.17907	-710.61392	103.17907
21800.00000	103.21147	-712.84675	103.21147
21850.00000	103.15473	-714.80096	103.15473
21900.00000	103.16900	-716.84275	103.16900
21950.00000	103.17384	-718.40999	103.17384
22000.00000	103.20283	-720.35951	103.20283
22050.00000	103.21296	-721.84694	103.21296
22100.00000	103.19451	-723.69966	103.19451
22150.00000	103.18486	-725.51287	103.18486
22200.00000	103.25725	-727.29357	103.25725
22250.00000	103.19530	-728.71994	103.19530
22300.00000	103.12094	-730.55749	103.12094
22350.00000	103.26156	-732.62128	103.26156
22400.00000	103.29752	-734.73107	103.29752
22450.00000	103.25523	-736.20203	103.25523
22500.00000	103.22929	-736.85987	103.22929
22550.00000	103.27288	-738.81695	103.27288
22600.00000	103.27437	-741.75749	103.27437
22650.00000	103.30362	-743.47200	103.30362
22700.00000	103.34566	-745.11249	103.34566
22750.00000	103.33946	-745.37042	103.33946
22800.00000	103.40234	-749.04674	103.40234
22850.00000	103.49498	-751.24073	103.49498
22900.00000	103.53321	-751.84592	103.53321
22950.00000	103.56242	-753.70468	103.56242
23000.00000	103.54134	-754.95301	103.54134
23050.00000	103.50396	-758.05997	103.50396
23100.00000	103.67520	-758.67259	103.67520
23150.00000	103.59802	-759.82971	103.59802
23200.00000	103.73408	-762.65690	103.73408
23250.00000	103.61071	-765.63265	103.61071
23300.00000	103.94174	-767.42202	103.94174
23350.00000	103.66531	-769.90346	103.66531
23400.00000	103.69768	-771.48769	103.69768
23450.00000	103.91019	-773.50686	103.91019
23500.00000	103.82989	-774.76247	103.82989
23550.00000	103.84894	-775.49385	103.84894
23600.00000	103.75296	-779.29744	103.75296
23650.00000	103.91444	-780.72882	103.91444
23700.00000	104.13386	-784.65151	104.13386
23750.00000	104.12190	-785.99098	104.12190
23800.00000	103.85982	-786.71415	103.85982
23850.00000	104.10769	-788.20821	104.10769
23900.00000	104.51123	-790.99107	104.51123
23950.00000	104.16951	-793.87875	104.16951
24000.00000	104.12461	-797.35778	104.12461
24050.00000	104.29985	-797.49889	104.29985
24100.00000	104.63015	-801.54009	104.63015
24150.00000	104.62708	-803.80490	104.62708
24200.00000	104.65689	-807.89027	104.65689
24250.00000	104.35305	-808.79822	104.35305
24300.00000	104.83985	-810.94649	104.83985
24350.00000	104.64769	-813.98219	104.64769
24400.00000	104.68320	-817.58936	104.68320
24450.00000	104.35101	-819.95214	104.35101
24500.00000	104.83050	-821.53104	104.83050
24550.00000	104.70330	-467.37954	104.70330
24600.00000	105.18359	-467.61350	105.18359
24650.00000	104.78997	-112.92547	104.78997
24700.00000	104.73534	247.25267	104.73534
24750.00000	104.69309	601.88845	104.69309
24800.00000	104.70756	959.49353	104.70756
24850.00000	104.37932	1317.83978	104.37932
24900.00000	104.40151	1675.97967	104.40151
24950.00000	104.43952	2031.13725	104.43952
25000.00000	104.39176	2023.70875	104.39176
25050.00000	104.43004	2024.47416	104.43004
25100.00000	103.96029	2020.48006	103.96029
25150.00000	104.16762	2020.48160	104.16762
25200.00000	103.87670	2015.20209	103.87670
25250.00000	103.98485	2014.50969	103.98485
25300.00000	103.88398	2013.07538	103.88398
25350.00000	103.81180	2005.71962	103.81180
25400.00000	103.69623	2003.01920	103.69623
25450.00000	103.64038	2001.31347	103.64038
25500.00000	103.35931	2000.31142	103.35931
25550.00000	103.28567	1995.91002	103.28567
25600.00000	103.25715	1993.85339	103.25715
25650.00000	103.06856	1992.43149	103.06856
25700.00000	103.07491	1989.78618	103.07491
25750.00000	102.90995	1986.69578	102.90995
25800.00000	102.74638	1984.06611	102.74638
25850.00000	102.58267	1982.00019	102.58267
25900.00000	102.58277	1978.26259	102.58277
25950.00000	102.32567	1980.13475	102.32567
26000.00000	102.37181	1975.30770	102.37181
26050.00000	102.26906	1972.58112	102.26906
26100.00000	102.13832	1970.77461	102.13832
26150.00000	102.07818	1968.12173	102.07818
26200.00000	102.05613	1965.98847	102.05613
26250.00000	101.91456	1963.33222	101.91456
26300.00000	101.92197	1960.20221	101.92197
26350.00000	101.51581	1959.88791	101.51581
26400.00000	101.45146	1957.52988	101.45146
26450.00000	101.70248	1954.02670	101.70248
26500.00000	101.43112	1951.17995	101.43112
26550.00000	101.30460	1946.53794	101.30460
26600.00000	101.08957	1944.03428	101.08957
26650.00000	101.03297	1944.64430	101.03297
26700.00000	101.00211	1941.07379	101.00211
26750.00000	100.65124	1938.41012	100.65124
26800.00000	100.67062	1933.94507	100.67062
26850.00000	100.76105	1933.62034	100.76105
26900.00000	100.58997	1931.81416	100.58997
26950.00000	100.60422	1928.31667	100.60422
27000.00000	100.01629	1927.65109	100.01629
27050.00000	100.24609	1924.01421	100.24609
27100.00000	99.74482	1923.47492	99.74482
27150.00000	99.67835	1919.84764	99.67835
27200.00000	99.51368	1917.92270	99.51368
27250.00000	99.08597	1917.37132	99.08597
27300.00000	98.71554	1914.00823	98.71554
27350.00000	98.81634	1914.78755	98.81634
27400.00000	98.30105	1913.19858	98.30105
27450.00000	98.23837	1911.94990	98.23837
27500.00000	98.13990	1910.52847	98.13990
27550.00000	98.03664	1909.29384	98.03664
27600.00000	98.08656	1906.17863	98.08656
27650.00000	97.58547	1907.90001	97.58547
27700.00000	97.64529	1903.09845	97.64529
27750.00000	97.49989	1901.85471	97.49989
27800.00000	97.66831	1899.25216	97.66831
27850.00000	97.81339	1902.51804	97.81339
27900.00000	97.38461	1901.90938	97.38461
27950.00000	96.76458	1899.82841	96.76458
28000.00000	96.93654	1899.93845	96.93654
28050.00000	97.46566	1897.58697	97.46566
28100.00000	96.82226	1896.21618	96.82226
28150.00000	97.04127	1896.11050	97.04127
28200.00000	97.22704	1892.55543	97.22704
28250.00000	96.81525	1891.16086	96.81525
28300.00000	96.63147	1891.87096	96.63147
28350.00000	96.71663	1891.21898	96.71663
28400.00000	96.67786	1890.27254	96.67786
28450.00000	97.28133	1887.84855	97.28133
28500.00000	96.95951	1888.11681	96.95951
28550.00000	96.82066	1889.40818	96.82066
28600.00000	96.91854	1887.18526	96.91854
28650.00000	97.24512	1882.66082	97.24512
28700.00000	97.05101	1884.55390	97.05101
28750.00000	97.75440	1883.73173	97.75440
28800.00000	97.59720	1881.83083	97.59720
28850.00000	96.97381	1877.83999	96.97381
28900.00000	97.26666	1875.82898	97.26666
28950.00000	97.09860	1876.84827	97.09860
29000.00000	97.32980	1875.76627	97.32980
29050.00000	96.98041	1875.03724	96.98041
29100.00000	97.07514	1874.06940	97.07514
29150.00000	96.96396	1873.49107	96.96396
29200.00000	96.94180	1870.72845	96.94180
29250.00000	97.47694	1868.61777	97.47694
29300.00000	97.00167	1867.37591	97.00167
29350.00000	97.48810	1866.39034	97.48810
29400.00000	97.29695	1864.29043	97.29695
29450.00000	97.14122	1863.18047	97.14122
29500.00000	97.46907	1862.05108	97.46907
29550.00000	97.15196	1858.75704	97.15196
29600.00000	97.16047	1859.37480	97.16047
29650.00000	97.36178	1857.02189	97.36178
29700.00000	97.09698	1857.85210	97.09698
29750.00000	96.94968	1857.64690	96.94968
29800.00000	96.94137	1854.63972	96.94137
29850.00000	97.04316	1852.28532	97.04316
29900.00000	97.22707	1853.33637	97.22707
29950.00000	96.56257	1852.72675	96.56257
30000.00000	96.90634	1852.85608	96.90634
30050.00000	96.94566	1851.19713	96.94566
30100.00000	96.60242	1851.64033	96.60242
30150.00000	96.90517	1848.31796	96.90517
30200.00000	96.85959	1847.84491	96.85959
30250.00000	96.70269	1848.57190	96.70269
30300.00000	96.53110	1848.85814	96.53110
30350.00000	96.70706	1850.48329	96.70706
30400.00000	96.79714	1847.60007	96.79714
30450.00000	96.59013	1847.51742	96.59013
30500.00000	96.65440	1847.11015	96.65440
30550.00000	96.73255	1849.13316	96.73255
30600.00000	96.81442	1849.83799	96.81442
30650.00000	96.92613	1850.38541	96.92613
30700.00000	97.14341	1849.20562	97.14341
30750.00000	97.07630	1851.39456	97.07630
30800.00000	97.39493	1851.71063	97.39493
30850.00000	97.70406	1853.34677	97.70406
30900.00000	97.81602	1854.77986	97.81602
30950.00000	98.34269	1853.48292	98.34269
31000.00000	98.73466	1853.53567	98.73466
31050.00000	99.21213	1854.11995	99.21213
31100.00000	99.84645	1854.65462	99.84645
31150.00000	99.98281	1853.62577	99.98281
31200.00000	100.91028	1852.35472	100.91028
31250.00000	101.26708	1851.65757	101.26708
31300.00000	101.81329	1849.75413	101.81329
31350.00000	102.42332	1848.14753	102.42332
31400.00000	102.76703	1845.33784	102.76703
31450.00000	103.38308	1843.01973	103.38308
31500.00000	103.76348	1839.33333	103.76348
31550.00000	104.29547	1836.98321	104.29547
31600.00000	104.81410	1832.38759	104.81410
31650.00000	105.17815	1829.17323	105.17815
31700.00000	105.56637	1826.35210	105.56637
31750.00000	105.99249	1823.56654	105.99249
31800.00000	106.27548	1818.75701	106.27548
31850.00000	106.66312	1814.34389	106.66312
31900.00000	106.72972	1810.63479	106.72972
31950.00000	107.09780	1806.96743	107.09780
32000.00000	107.31150	1803.25497	107.31150
32050.00000	107.54718	1799.50951	107.54718
32100.00000	107.74693	1795.04025	107.74693
32150.00000	107.90388	1791.69409	107.90388
32200.00000	108.10950	1786.97525	108.10950
32250.00000	108.27472	1782.60573	108.27472
32300.00000	108.34209	1779.31855	108.34209
32350.00000	108.38802	1775.62930	108.38802
32400.00000	108.60364	1772.13518	108.60364
32450.00000	108.64561	1768.07949	108.64561
32500.00000	108.80962	1764.76005	108.80962
32550.00000	108.82230	1759.71441	108.82230
32600.00000	108.85531	1756.40350	108.85531
32650.00000	108.92777	1752.83070	108.92777
32700.00000	108.76161	1749.21459	108.76161
32750.00000	108.86815	1744.89681	108.86815
32800.00000	109.04572	1741.57851	109.04572
32850.00000	109.00339	1737.64529	109.00339
32900.00000	108.96653	1733.61770	108.96653
32950.00000	108.81482	1728.87962	108.81482
33000.00000	108.74492	1727.28070	108.74492
33050.00000	108.63036	1722.68300	108.63036
33100.00000	108.64704	1719.12283	108.64704
33150.00000	108.57571	1716.52816	108.57571
33200.00000	108.62868	1714.27232	108.62868
33250.00000	108.41876	1710.68977	108.41876
33300.00000	108.34610	1706.58479	108.34610
33350.00000	108.15791	1704.23055	108.15791
33400.00000	108.10479	1701.65513	108.10479
33450.00000	108.04131	1698.04676	108.04131
33500.00000	108.00170	1696.54572	108.00170
33550.00000	107.64246	1692.49811	107.64246
33600.00000	107.70457	1690.23995	107.70457
33650.00000	107.67700	1687.81577	107.67700
33700.00000	107.62022	1684.81128	107.62022
33750.00000	107.20520	1683.24955	107.20520
33800.00000	107.29781	1680.20065	107.29781
33850.00000	106.86297	1678.42733	106.86297
33900.00000	106.98481	1675.96402	106.98481
33950.00000	106.83803	1673.75542	106.83803
34000.00000	106.76141	1671.64023	106.76141
34050.00000	106.68329	1669.07425	106.68329
34100.00000	106.45122	1668.27021	106.45122
34150.00000	106.43631	1665.17156	106.43631
34200.00000	106.24144	1664.96274	106.24144
34250.00000	106.24363	1662.92711	106.24363
34300.00000	106.13742	1661.06457	106.13742
34350.00000	106.25813	1659.56890	106.25813
34400.00000	105.79673	1660.21556	105.79673
34450.00000	106.03344	1655.47938	106.03344
34500.00000	105.84230	1653.95309	105.84230
34550.00000	105.93240	1653.53918	105.93240
34600.00000	105.54426	1650.00278	105.54426
34650.00000	105.76265	1651.20599	105.76265
34700.00000	105.23482	1651.92492	105.23482
34750.00000	105.38679	1645.65521	105.38679
34800.00000	105.53728	1648.47337	105.53728
34850.00000	105.85552	1648.30766	105.85552
34900.00000	105.92645	1645.17915	105.92645
34950.00000	105.60963	1645.60946	105.60963
35000.00000	105.72987	1642.72524	105.72987
35050.00000	105.87745	1643.15700	105.87745
35100.00000	106.19527	1640.85086	106.19527
35150.00000	105.97936	1640.86687	105.97936
35200.00000	106.25759	1637.86056	106.25759
35250.00000	106.11267	1637.22297	106.11267
35300.00000	106.46204	1635.53015	106.46204
35350.00000	106.57736	1633.57026	106.57736
35400.00000	106.66372	1631.85469	106.66372
35450.00000	106.82653	1631.47624	106.82653
35500.00000	106.58423	1630.39480	106.58423
35550.00000	107.08804	1628.42721	107.08804
35600.00000	106.90444	1626.07324	106.90444
35650.00000	107.08128	1624.85662	107.08128
35700.00000	107.22754	1622.13343	107.22754
35750.00000	107.16515	1622.53857	107.16515
35800.00000	107.51202	1621.67878	107.51202
35850.00000	107.82908	1617.18734	107.82908
35900.00000	107.74820	1616.17246	107.74820
35950.00000	108.12040	1613.85139	108.12040
36000.00000	108.00576	1612.55485	108.00576
36050.00000	108.38913	1609.25205	108.38913
36100.00000	108.49542	1606.96347	108.49542
36150.00000	108.43097	1605.86588	108.43097
36200.00000	108.52439	1603.01520	108.52439
36250.00000	108.48070	1600.57007	108.48070
36300.00000	108.36842	1598.47236	108.36842
36350.00000	108.76164	1596.01234	108.76164
36400.00000	109.02774	1593.97240	109.02774
36450.00000	108.73042	1590.68893	108.73042
36500.00000	108.84827	1589.49337	108.84827
36550.00000	108.82350	1585.93647	108.82350
36600.00000	108.84178	1583.32457	108.84178
36650.00000	108.93835	1581.43632	108.93835
36700.00000	108.80030	1578.41899	108.80030
36750.00000	108.68618	1576.16410	108.68618
36800.00000	108.68777	1573.93827	108.68777
36850.00000	108.63247	1571.52069	108.63247
36900.00000	108.77075	1568.39413	108.77075
36950.00000	108.54162	1566.34921	108.54162
37000.00000	108.35015	1563.75132	108.35015
37050.00000	108.18833	1563.12747	108.18833
37100.00000	108.46048	1559.98492	108.46048
37150.00000	108.45746	1557.41021	108.45746
37200.00000	108.55006	1555.76375	108.55006
37250.00000	108.08547	1553.70040	108.08547
37300.00000	108.08431	1551.51618	108.08431
37350.00000	108.23713	1548.79498	108.23713
37400.00000	107.84027	1547.76302	107.84027
37450.00000	107.77566	1545.81494	107.77566
37500.00000	108.20923	1543.96319	108.20923
37550.00000	107.94973	1542.75876	107.94973
37600.00000	108.39255	1541.37424	108.39255
37650.00000	108.23669	1537.78081	108.23669
37700.00000	108.00168	1532.60255	108.00168
37750.00000	108.43693	1534.34702	108.43693
37800.00000	108.42327	1529.87232	108.42327
37850.00000	108.40665	1526.98499	108.40665
37900.00000	108.59951	1526.90787	108.59951
37950.00000	108.73367	1525.77149	108.73367
38000.00000	108.94678	1523.19586	108.94678
38050.00000	109.08468	1520.10597	109.08468
38100.00000	109.40095	1518.15512	109.40095
38150.00000	109.59364	1515.42182	109.59364
38200.00000	109.93594	1511.76698	109.93594
38250.00000	110.15706	1509.80604	110.15706
38300.00000	110.49490	1505.98974	110.49490
38350.00000	110.62965	1503.56647	110.62965
38400.00000	110.94515	1499.42080	110.94515
38450.00000	111.30972	1494.45489	111.30972
38500.00000	111.56574	1490.75537	111.56574
38550.00000	111.78808	1487.80920	111.78808
38600.00000	112.06634	1483.98433	112.06634
38650.00000	112.39218	1479.16080	112.39218
38700.00000	112.48425	1474.49765	112.48425
38750.00000	112.76151	1470.30319	112.76151
38800.00000	113.07996	1465.79059	113.07996
38850.00000	113.20437	1460.92214	113.20437
38900.00000	113.42615	1456.00944	113.42615
38950.00000	113.34086	1450.77185	113.34086
39000.00000	113.45445	1446.42824	113.45445
39050.00000	113.61346	1441.83738	113.61346
39100.00000	113.55799	1438.10760	113.55799
39150.00000	113.59277	1432.74860	113.59277
39200.00000	113.63539	1428.72976	113.63539
39250.00000	113.53633	1423.81841	113.53633
39300.00000	113.51972	1419.78929	113.51972
39350.00000	113.45583	1416.72924	113.45583
39400.00000	113.47051	1412.31349	113.47051
39450.00000	113.40079	1408.53056	113.40079
39500.00000	113.38947	1404.60752	113.38947
39550.00000	113.29935	1400.21628	113.29935
39600.00000	113.12755	1396.58063	113.12755
39650.00000	113.19898	1393.05514	113.19898
39700.00000	112.99558	1389.25811	112.99558
39750.00000	112.89369	1385.44603	112.89369
39800.00000	112.81307	1382.13620	112.81307
39850.00000	112.65628	1378.53263	112.65628
39900.00000	112.59217	1375.56686	112.59217
39950.00000	112.48300	1372.38536	112.48300
40000.00000	112.18062	1369.99160	112.18062
40050.00000	112.15640	1365.46575	112.15640
40100.00000	111.97845	1362.96935	111.97845
40150.00000	111.84328	1359.74042	111.84328
40200.00000	111.70320	1356.63483	111.70320
40250.00000	111.58478	1354.01558	111.58478
40300.00000	111.48132	1351.39770	111.48132
40350.00000	111.09091	1349.09397	111.09091
40400.00000	110.88618	1346.06152	110.88618
40450.00000	110.78803	1343.90397	110.78803
40500.00000	110.67201	1341.98675	110.67201
40550.00000	110.39024	1338.84091	110.39024
40600.00000	110.11759	1337.59956	110.11759
40650.00000	109.92820	1336.06252	109.92820
40700.00000	109.64549	1334.03099	109.64549
40750.00000	109.55158	1332.79705	109.55158
40800.00000	109.26837	1330.87159	109.26837
40850.00000	108.94645	1330.12142	108.94645
40900.00000	108.72185	1328.30443	108.72185
40950.00000	108.45359	1328.01336	108.45359
41000.00000	108.07906	1327.53016	108.07906
41050.00000	107.91498	1326.26366	107.91498
41100.00000	107.89385	1326.09665	107.89385
41150.00000	107.79295	1327.45931	107.79295
41200.00000	107.61299	1326.36058	107.61299
41250.00000	107.47660	1323.90520	107.47660
41300.00000	106.94147	1325.58831	106.94147
41350.00000	107.00185	1327.44411	107.00185
41400.00000	106.96196	1322.62766	106.96196
41450.00000	107.09881	1325.33770	107.09881
41500.00000	106.69077	1324.50786	106.69077
41550.00000	106.44306	1328.69966	106.44306
41600.00000	106.08079	1328.55899	106.08079
41650.00000	106.49906	1327.34107	106.49906
41700.00000	106.60225	1328.64667	106.60225
41750.00000	106.33118	1333.16665	106.33118
41800.00000	105.48369	1328.67795	105.48369
41850.00000	105.24724	1331.06949	105.24724
41900.00000	105.41174	1332.74578	105.41174
41950.00000	106.56799	1338.23355	106.56799
42000.00000	105.58193	1331.28522	105.58193
42050.00000	104.29006	1331.90063	104.29006
42100.00000	104.81800	1332.41094	104.81800
42150.00000	104.43182	1330.34637	104.43182
42200.00000	104.36824	1338.05660	104.36824
42250.00000	104.10021	1334.54270	104.10021
42300.00000	103.37658	1334.98012	103.37658
42350.00000	104.06010	1335.06550	104.06010
42400.00000	103.86607	1336.58541	103.86607
42450.00000	103.99136	1334.90872	103.99136
42500.00000	103.93270	1333.01611	103.93270
42550.00000	103.55571	1342.94305	103.55571
42600.00000	103.32353	1335.68129	103.32353
42650.00000	102.90289	1337.35252	102.90289
42700.00000	102.56280	1334.63789	102.56280
42750.00000	103.71589	1334.31522	103.71589
42800.00000	103.12956	1325.66779	103.12956
42850.00000	102.77329	1320.81463	102.77329
42900.00000	103.97232	1328.82627	103.97232
42950.00000	103.15250	1323.55122	103.15250
43000.00000	103.74655	1312.28639	103.74655
43050.00000	103.34209	1311.30689	103.34209
43100.00000	103.84066	1312.47602	103.84066
43150.00000	103.59694	1295.22322	103.59694
43200.00000	103.94942	1298.52057	103.94942
43250.00000	104.32311	1297.14403	104.32311
43300.00000	103.93830	1290.71257	103.93830
43350.00000	105.41177	1284.13753	105.41177
43400.00000	104.46806	1278.98163	104.46806
43450.00000	105.73454	1276.44890	105.73454
43500.00000	104.56298	1266.85070	104.56298
43550.00000	105.52620	1261.84612	105.52620
43600.00000	105.38234	1256.59856	105.38234
43650.00000	106.14466	1247.21814	106.14466
43700.00000	105.88013	1243.65281	105.88013
43750.00000	105.24499	1241.94800	105.24499
43800.00000	105.90789	1233.09547	105.90789
43850.00000	106.89852	1227.69939	106.89852
43900.00000	106.97785	1223.28920	106.97785
43950.00000	107.38005	1217.16296	107.38005
44000.00000	106.77007	1211.93808	106.77007
44050.00000	107.46818	1204.57506	107.46818
44100.00000	107.88155	1191.14535	107.88155
44150.00000	107.31293	1192.47075	107.31293
44200.00000	107.41213	1191.00592	107.41213
44250.00000	107.96607	1182.30200	107.96607
44300.00000	108.10057	1175.49571	108.10057
44350.00000	107.10611	1171.24371	107.10611
44400.00000	107.88453	1166.58726	107.88453
44450.00000	108.27318	1163.39313	108.27318
44500.00000	107.87043	1158.95973	107.87043
44550.00000	109.14333	1147.55767	109.14333
44600.00000	108.10871	1150.11601	108.10871
44650.00000	107.66296	1140.82704	107.66296
44700.00000	107.64322	1136.49844	107.64322
44750.00000	107.84887	1136.73182	107.84887
44800.00000	108.28752	1127.86794	108.28752
44850.00000	108.05881	1123.02150	108.05881
44900.00000	107.66884	1121.54222	107.66884
44950.00000	108.00283	1116.18424	108.00283
45000.00000	107.91840	1104.88337	107.91840
45050.00000	106.76157	1111.22524	106.76157
45100.00000	106.97504	1103.71340	106.97504
45150.00000	107.21452	1091.58935	107.21452
45200.00000	106.51647	1094.63840	106.51647
45250.00000	106.58351	1090.13191	106.58351
45300.00000	106.33810	1085.69351	106.33810
45350.00000	105.94668	1076.32315	105.94668
45400.00000	105.80392	1078.72418	105.80392
45450.00000	105.88813	1072.65417	105.88813
45500.00000	104.26106	1066.38361	104.26106
45550.00000	104.51429	1068.97221	104.51429
45600.00000	105.58716	1061.17912	105.58716
45650.00000	103.83992	1055.22548	103.83992
45700.00000	103.88973	1052.95505	103.88973
45750.00000	104.62681	1054.77633	104.62681
45800.00000	103.04036	1047.73350	103.04036
45850.00000	103.18035	1045.19969	103.18035
45900.00000	102.97365	1044.84305	102.97365
45950.00000	102.35825	1046.67570	102.35825
46000.00000	101.40963	1030.08404	101.40963
46050.00000	100.96879	1030.07983	100.96879
46100.00000	100.47070	1032.92656	100.47070
46150.00000	100.02100	1030.92629	100.02100
46200.00000	98.45898	1023.92719	98.45898
46250.00000	99.41510	1023.01162	99.41510
46300.00000	98.30850	1022.11821	98.30850
46350.00000	99.43289	1018.67733	99.43289
46400.00000	98.08574	1015.20117	98.08574
46450.00000	95.87183	1014.91290	95.87183
46500.00000	96.82548	1017.85240	96.82548
46550.00000	96.18597	1019.52291	96.18597
46600.00000	96.44293	1020.97049	96.44293
46650.00000	93.95796	1020.97965	93.95796
46700.00000	93.56768	1028.30919	93.56768
46750.00000	94.59260	1037.09591	94.59260
46800.00000	92.18034	1025.00678	92.18034
46850.00000	94.42437	682.19899	94.42437
46900.00000	94.41894	674.07810	94.41894
46950.00000	95.27388	674.07214	95.27388
47000.00000	94.36146	679.27821	94.36146
47050.00000	96.65957	669.77185	96.65957
47100.00000	95.11693	670.09149	95.11693
47150.00000	95.91278	671.17970	95.91278
47200.00000	94.55540	669.53792	94.55540
47250.00000	96.80269	665.40588	96.80269
47300.00000	95.79488	659.96636	95.79488
47350.00000	95.81143	309.60381	95.81143
47400.00000	95.21904	309.79902	95.21904
47450.00000	96.45748	310.32871	96.45748
47500.00000	94.72061	297.52828	94.72061
47550.00000	94.00985	-55.76506	94.00985
47600.00000	95.08307	-56.38896	95.08307
47650.00000	96.31511	-60.32984	96.31511
47700.00000	95.00086	-64.06306	95.00086
47750.00000	93.90314	-59.03202	93.90314
47800.00000	94.03552	-78.96904	94.03552
47850.00000	95.11725	-432.32181	95.11725
47900.00000	95.28921	-777.75971	95.28921
47950.00000	93.40593	-779.70268	93.40593
48000.00000	94.47349	-775.39261	94.47349
48050.00000	95.40452	-786.41267	95.40452
48100.00000	94.43473	-791.24919	94.43473
48150.00000	94.69277	-1141.37295	94.69277
48200.00000	94.66609	-1141.79436	94.66609
48250.00000	94.35992	-1149.54440	94.35992
48300.00000	95.10187	-1144.93146	95.10187
48350.00000	95.43292	-1155.31314	95.43292
48400.00000	95.92154	-1499.77965	95.92154
48450.00000	95.99754	-1505.52156	95.99754
48500.00000	95.82223	-1509.19898	95.82223
48550.00000	94.75952	-1514.77954	94.75952
48600.00000	96.66531	-1869.49198	96.66531
48650.00000	96.71415	-1870.96121	96.71415
48700.00000	97.13456	-1880.67374	97.13456
48750.00000	95.90477	-2230.43630	95.90477
48800.00000	97.17568	-2236.98051	97.17568
48850.00000	97.17370	-2244.02224	97.17370
48900.00000	96.03819	-2599.46465	96.03819
48950.00000	97.19247	-2612.69862	97.19247
49000.00000	97.65849	-2614.01114	97.65849
49050.00000	97.73639	-2618.82450	97.73639
49100.00000	97.02084	-2978.28669	97.02084
49150.00000	98.12746	-3339.05042	98.12746
49200.00000	97.77819	-3348.44213	97.77819
49250.00000	96.40202	-3696.15253	96.40202
49300.00000	97.72734	-3356.27105	97.72734
49350.00000	95.55964	-3341.99160	95.55964
49400.00000	96.25411	-2995.30702	96.25411
49450.00000	94.60748	-2643.66505	94.60748
49500.00000	94.17045	-2293.15197	94.17045
49550.00000	94.65829	-1940.40847	94.65829
49600.00000	94.15922	-1924.47393	94.15922
49650.00000	95.99024	-1922.94624	95.99024
49700.00000	93.75450	-1593.81375	93.75450
49750.00000	93.99045	-1583.16892	93.99045
49800.00000	90.37939	-1586.73475	90.37939
49850.00000	89.66118	-1560.14726	89.66118
49900.00000	86.50539	-1216.27255	86.50539
49950.00000	88.76171	-863.36921	88.76171
