---ACOUSTIC CALIBRATION---
Filename: C:\Data\AZH DATA\AZH21\RightPrimary.calib
Date: 8/27/2019 12:04:24 PM
Format: 4
Probe Tube Correction File: C:\Data\Probe Tube Calibrations\50_ProbeTube.calib
Experiment VIs: 850
EPL_CFTS.exe V12.0.1 (2012)
DAQmx V9.6

Attenuation (dB): 40.000000
Min Freq (Hz): 50.000000
Max Freq (Hz): 49950.000000
Freq Step (Hz): 50.000000
Sample Rate (Hz): 100000.000000
[Smoothing]
Method=None
MA.Iterations=0
MA.Length=0
Loess.Length=0
Loess.Type=Linear
Loess.Robust=FALSE


Freq(Hz)	Mag(dB)	Phase(deg)	Unsmoothed(dB)

50.00000	99.48170	614.56924	99.48170
100.00000	81.62575	545.69825	81.62575
150.00000	78.93100	449.14606	78.93100
200.00000	64.81381	407.58956	64.81381
250.00000	87.29861	445.29613	87.29861
300.00000	86.76500	364.02880	86.76500
350.00000	80.29570	421.20649	80.29570
400.00000	81.34927	361.49542	81.34927
450.00000	86.94529	360.68949	86.94529
500.00000	89.00003	387.28595	89.00003
550.00000	91.31890	370.19840	91.31890
600.00000	94.28873	368.22696	94.28873
650.00000	96.01303	355.76393	96.01303
700.00000	98.04479	338.45471	98.04479
750.00000	100.47380	320.82694	100.47380
800.00000	100.98552	298.55275	100.98552
850.00000	100.36956	280.64735	100.36956
900.00000	98.87417	262.08317	98.87417
950.00000	96.96679	260.00480	96.96679
1000.00000	95.71390	258.95746	95.71390
1050.00000	93.61059	273.89762	93.61059
1100.00000	95.07630	293.91925	95.07630
1150.00000	97.97825	301.20817	97.97825
1200.00000	100.67436	301.07477	100.67436
1250.00000	102.39419	292.20124	102.39419
1300.00000	103.95890	287.84062	103.95890
1350.00000	105.34681	276.74446	105.34681
1400.00000	105.99402	269.77859	105.99402
1450.00000	107.01260	262.84081	107.01260
1500.00000	108.09388	255.73090	108.09388
1550.00000	109.09011	247.98465	109.09011
1600.00000	110.49084	237.94183	110.49084
1650.00000	111.50731	221.39462	111.50731
1700.00000	110.23157	210.60482	110.23157
1750.00000	109.95885	204.66116	109.95885
1800.00000	109.75245	200.09142	109.75245
1850.00000	109.85589	198.79903	109.85589
1900.00000	110.93375	195.33546	110.93375
1950.00000	111.64733	182.56256	111.64733
2000.00000	110.77243	169.77712	110.77243
2050.00000	109.28028	174.33492	109.28028
2100.00000	111.13423	174.61546	111.13423
2150.00000	111.87620	163.63169	111.87620
2200.00000	111.77533	153.50106	111.77533
2250.00000	111.18106	145.79804	111.18106
2300.00000	111.22212	140.92812	111.22212
2350.00000	111.00989	133.93005	111.00989
2400.00000	110.72623	128.08237	110.72623
2450.00000	110.51607	122.15726	110.51607
2500.00000	110.00798	116.76266	110.00798
2550.00000	109.56297	111.62299	109.56297
2600.00000	109.02995	107.22470	109.02995
2650.00000	108.55361	103.60727	108.55361
2700.00000	108.07598	99.83028	108.07598
2750.00000	107.43626	96.37095	107.43626
2800.00000	106.69290	93.71714	106.69290
2850.00000	106.10673	91.82540	106.10673
2900.00000	105.33424	90.49330	105.33424
2950.00000	104.61335	89.47059	104.61335
3000.00000	103.76138	89.39782	103.76138
3050.00000	102.73080	89.53164	102.73080
3100.00000	101.63488	93.46752	101.63488
3150.00000	100.63116	97.57867	100.63116
3200.00000	99.39985	111.04114	99.39985
3250.00000	99.53136	126.11239	99.53136
3300.00000	100.66064	139.28581	100.66064
3350.00000	102.01367	150.85101	102.01367
3400.00000	104.42385	159.41159	104.42385
3450.00000	106.84811	162.13115	106.84811
3500.00000	109.31829	158.77498	109.31829
3550.00000	111.07592	152.90441	111.07592
3600.00000	112.65684	147.22499	112.65684
3650.00000	113.99964	140.45355	113.99964
3700.00000	115.17181	133.64016	115.17181
3750.00000	116.24993	126.53628	116.24993
3800.00000	117.17464	118.60528	117.17464
3850.00000	117.90467	110.94815	117.90467
3900.00000	118.59567	104.09689	118.59567
3950.00000	119.29193	96.98991	119.29193
4000.00000	119.95031	89.65655	119.95031
4050.00000	120.59911	82.27579	120.59911
4100.00000	121.28022	74.62514	121.28022
4150.00000	122.12251	66.01061	122.12251
4200.00000	122.62481	55.97343	122.62481
4250.00000	123.07019	45.24388	123.07019
4300.00000	123.26697	34.10653	123.26697
4350.00000	123.21696	22.92165	123.21696
4400.00000	123.00275	12.73191	123.00275
4450.00000	122.65554	 3.53917	122.65554
4500.00000	122.28781	-5.09973	122.28781
4550.00000	121.89933	-13.20138	121.89933
4600.00000	121.47543	-20.98096	121.47543
4650.00000	121.10018	-28.45764	121.10018
4700.00000	120.65864	-36.61171	120.65864
4750.00000	120.07478	-44.89719	120.07478
4800.00000	119.25075	-53.15610	119.25075
4850.00000	118.15131	-60.35205	118.15131
4900.00000	116.89674	-65.31475	116.89674
4950.00000	115.61341	-67.99696	115.61341
5000.00000	114.49637	-68.14489	114.49637
5050.00000	113.55564	-68.11017	113.55564
5100.00000	112.56873	-64.54540	112.56873
5150.00000	112.61840	-59.84933	112.61840
5200.00000	112.24358	-55.37063	112.24358
5250.00000	113.97728	-50.29251	113.97728
5300.00000	115.11544	-61.36521	115.11544
5350.00000	114.76390	-70.35060	114.76390
5400.00000	114.17171	-74.86342	114.17171
5450.00000	113.71733	-77.85089	113.71733
5500.00000	113.37641	-80.48929	113.37641
5550.00000	113.15605	-82.23319	113.15605
5600.00000	112.96400	-84.46912	112.96400
5650.00000	112.79959	-86.47877	112.79959
5700.00000	112.61859	-88.86456	112.61859
5750.00000	112.51810	-90.87003	112.51810
5800.00000	112.43875	-93.16760	112.43875
5850.00000	112.29589	-95.04220	112.29589
5900.00000	112.23281	-96.96552	112.23281
5950.00000	112.20854	-98.94744	112.20854
6000.00000	112.20342	-101.26728	112.20342
6050.00000	112.22766	-103.96059	112.22766
6100.00000	112.24205	-106.49747	112.24205
6150.00000	112.20105	-109.44915	112.20105
6200.00000	112.11146	-112.32398	112.11146
6250.00000	112.05820	-115.27499	112.05820
6300.00000	112.01123	-118.06931	112.01123
6350.00000	111.91337	-120.87789	111.91337
6400.00000	111.84044	-123.57673	111.84044
6450.00000	111.82455	-126.36846	111.82455
6500.00000	111.72110	-129.12176	111.72110
6550.00000	111.64863	-131.85099	111.64863
6600.00000	111.55105	-134.19633	111.55105
6650.00000	111.50148	-136.93999	111.50148
6700.00000	111.43306	-139.46409	111.43306
6750.00000	111.40232	-142.45014	111.40232
6800.00000	111.38283	-145.07623	111.38283
6850.00000	111.36319	-147.62100	111.36319
6900.00000	111.32355	-150.14582	111.32355
6950.00000	111.31691	-152.91393	111.31691
7000.00000	111.31134	-155.63417	111.31134
7050.00000	111.28454	-158.23363	111.28454
7100.00000	111.32167	-161.35907	111.32167
7150.00000	111.26759	-164.23511	111.26759
7200.00000	111.26464	-167.38561	111.26464
7250.00000	111.24034	-170.53542	111.24034
7300.00000	111.26638	-173.68977	111.26638
7350.00000	111.20377	-177.00138	111.20377
7400.00000	111.20864	-180.36258	111.20864
7450.00000	111.19247	-183.85419	111.19247
7500.00000	111.12217	-187.36305	111.12217
7550.00000	111.12265	-190.94360	111.12265
7600.00000	111.01831	-194.57508	111.01831
7650.00000	110.95735	-198.08422	110.95735
7700.00000	110.92069	-201.65225	110.92069
7750.00000	110.77009	-205.60316	110.77009
7800.00000	110.68634	-209.51985	110.68634
7850.00000	110.51580	-212.94064	110.51580
7900.00000	110.41253	-216.33578	110.41253
7950.00000	110.29388	-220.04612	110.29388
8000.00000	110.10038	-223.87821	110.10038
8050.00000	109.91532	-228.09085	109.91532
8100.00000	109.71170	-231.06829	109.71170
8150.00000	109.46633	-234.58490	109.46633
8200.00000	109.24537	-237.80211	109.24537
8250.00000	108.96436	-241.47991	108.96436
8300.00000	108.71971	-244.98200	108.71971
8350.00000	108.41225	-247.90780	108.41225
8400.00000	108.08980	-251.59609	108.08980
8450.00000	107.69265	-254.56336	107.69265
8500.00000	107.30449	-257.81399	107.30449
8550.00000	107.02814	-260.85342	107.02814
8600.00000	106.66014	-264.03234	106.66014
8650.00000	106.29007	-266.63747	106.29007
8700.00000	105.98084	-269.39717	105.98084
8750.00000	105.65068	-271.16459	105.65068
8800.00000	105.37594	-274.01437	105.37594
8850.00000	105.01571	-275.50960	105.01571
8900.00000	104.71648	-277.23254	104.71648
8950.00000	104.43673	-279.33443	104.43673
9000.00000	104.05219	-281.23492	104.05219
9050.00000	103.75427	-283.67266	103.75427
9100.00000	103.40751	-285.61563	103.40751
9150.00000	103.09733	-287.31578	103.09733
9200.00000	102.92859	-289.95487	102.92859
9250.00000	102.62346	-292.25896	102.62346
9300.00000	102.47363	-294.16789	102.47363
9350.00000	102.38526	-296.11478	102.38526
9400.00000	102.17339	-297.24456	102.17339
9450.00000	102.04456	-297.89436	102.04456
9500.00000	101.93085	-298.45572	101.93085
9550.00000	101.89003	-298.68137	101.89003
9600.00000	101.82027	-300.14590	101.82027
9650.00000	101.60784	-302.02414	101.60784
9700.00000	101.37486	-303.14492	101.37486
9750.00000	101.19608	-305.67421	101.19608
9800.00000	101.02273	-307.06896	101.02273
9850.00000	100.85109	-308.71388	100.85109
9900.00000	100.64123	-310.91115	100.64123
9950.00000	100.57277	-312.35100	100.57277
10000.00000	100.50173	-314.59239	100.50173
10050.00000	100.35779	-315.76369	100.35779
10100.00000	100.26750	-317.09803	100.26750
10150.00000	100.00752	-319.08601	100.00752
10200.00000	99.84371	-320.45192	99.84371
10250.00000	99.58526	-322.84785	99.58526
10300.00000	99.49648	-324.76715	99.49648
10350.00000	99.24530	-326.65151	99.24530
10400.00000	99.03053	-329.26003	99.03053
10450.00000	98.99302	-331.89226	98.99302
10500.00000	99.02136	-334.25870	99.02136
10550.00000	98.96777	-336.34390	98.96777
10600.00000	98.88159	-338.24432	98.88159
10650.00000	98.81440	-339.79502	98.81440
10700.00000	98.69867	-341.90508	98.69867
10750.00000	98.63374	-343.59230	98.63374
10800.00000	98.39307	-345.31119	98.39307
10850.00000	98.22707	-347.85235	98.22707
10900.00000	98.07147	-350.03636	98.07147
10950.00000	97.93325	-352.15287	97.93325
11000.00000	97.77807	-354.26781	97.77807
11050.00000	97.49220	-356.26883	97.49220
11100.00000	97.35268	-358.66099	97.35268
11150.00000	97.02594	-360.79629	97.02594
11200.00000	96.91410	-362.26250	96.91410
11250.00000	96.60237	-364.69973	96.60237
11300.00000	96.29421	-366.83541	96.29421
11350.00000	96.05962	-368.08819	96.05962
11400.00000	95.73429	-369.77731	95.73429
11450.00000	95.47968	-372.08921	95.47968
11500.00000	95.42763	-372.92636	95.42763
11550.00000	95.08628	-373.95814	95.08628
11600.00000	94.94527	-376.25295	94.94527
11650.00000	94.73587	-376.44062	94.73587
11700.00000	94.64178	-377.23574	94.64178
11750.00000	94.48038	-378.40089	94.48038
11800.00000	94.38007	-379.97856	94.38007
11850.00000	94.31463	-380.29858	94.31463
11900.00000	94.06874	-382.02826	94.06874
11950.00000	93.97493	-383.31686	93.97493
12000.00000	93.88989	-383.59332	93.88989
12050.00000	93.68700	-384.43857	93.68700
12100.00000	93.60331	-387.25598	93.60331
12150.00000	93.47169	-389.11657	93.47169
12200.00000	93.55527	-390.48715	93.55527
12250.00000	93.40072	-391.82437	93.40072
12300.00000	94.37507	-394.34206	94.37507
12350.00000	93.18250	-395.46859	93.18250
12400.00000	93.12063	-396.84885	93.12063
12450.00000	92.88745	-399.02690	92.88745
12500.00000	92.86653	-401.35700	92.86653
12550.00000	92.57165	-403.61963	92.57165
12600.00000	92.37957	-406.01282	92.37957
12650.00000	92.33315	-406.99809	92.33315
12700.00000	91.99611	-409.24196	91.99611
12750.00000	91.85334	-412.24386	91.85334
12800.00000	91.50127	-413.64917	91.50127
12850.00000	90.86849	-415.79709	90.86849
12900.00000	90.82539	-417.40959	90.82539
12950.00000	90.39245	-418.92974	90.39245
13000.00000	90.03972	-420.80809	90.03972
13050.00000	89.90487	-421.13072	89.90487
13100.00000	89.34538	-421.88642	89.34538
13150.00000	89.01291	-424.82480	89.01291
13200.00000	88.73996	-423.62223	88.73996
13250.00000	88.58263	-423.38731	88.58263
13300.00000	88.23825	-423.83644	88.23825
13350.00000	87.68232	-423.81849	87.68232
13400.00000	87.62503	-423.72004	87.62503
13450.00000	86.90688	-421.86758	86.90688
13500.00000	86.92682	-422.22860	86.92682
13550.00000	86.29990	-421.99983	86.29990
13600.00000	86.41440	-420.59412	86.41440
13650.00000	86.39533	-421.01094	86.39533
13700.00000	85.80745	-420.85512	85.80745
13750.00000	85.50206	-418.03515	85.50206
13800.00000	85.30861	-419.63203	85.30861
13850.00000	85.22413	-419.67162	85.22413
13900.00000	85.10815	-420.27999	85.10815
13950.00000	85.41098	-416.54408	85.41098
14000.00000	85.14475	-415.29811	85.14475
14050.00000	85.02152	-414.89577	85.02152
14100.00000	84.93497	-411.64434	84.93497
14150.00000	84.83926	-411.16841	84.83926
14200.00000	84.90041	-412.21144	84.90041
14250.00000	85.58541	-408.87041	85.58541
14300.00000	85.60448	-408.38533	85.60448
14350.00000	85.72535	-405.80041	85.72535
14400.00000	85.24755	-404.62847	85.24755
14450.00000	85.30634	-402.83652	85.30634
14500.00000	85.37297	-402.84636	85.37297
14550.00000	85.75966	-402.74966	85.75966
14600.00000	85.97590	-403.13330	85.97590
14650.00000	86.25692	-399.30009	86.25692
14700.00000	86.46029	-403.07398	86.46029
14750.00000	86.56923	-399.73995	86.56923
14800.00000	86.68683	-400.23212	86.68683
14850.00000	87.05149	-401.24417	87.05149
14900.00000	87.49141	-400.71738	87.49141
14950.00000	88.05804	-400.84626	88.05804
15000.00000	88.30453	-399.74948	88.30453
15050.00000	88.28825	-398.13633	88.28825
15100.00000	88.60650	-398.81618	88.60650
15150.00000	88.86449	-400.15543	88.86449
15200.00000	88.90925	-398.91227	88.90925
15250.00000	89.28784	-401.60588	89.28784
15300.00000	89.90420	-401.85273	89.90420
15350.00000	90.02514	-402.83265	90.02514
15400.00000	90.15016	-401.91004	90.15016
15450.00000	90.31384	-402.82668	90.31384
15500.00000	90.69717	-403.22693	90.69717
15550.00000	91.04395	-404.30914	91.04395
15600.00000	91.34991	-405.26446	91.34991
15650.00000	91.79903	-404.83306	91.79903
15700.00000	91.87383	-407.06487	91.87383
15750.00000	92.50613	-407.48331	92.50613
15800.00000	92.71363	-406.97689	92.71363
15850.00000	92.97276	-407.91207	92.97276
15900.00000	93.22459	-409.05922	93.22459
15950.00000	93.78869	-411.36595	93.78869
16000.00000	94.11835	-412.41737	94.11835
16050.00000	94.61036	-413.28511	94.61036
16100.00000	94.68686	-414.44896	94.68686
16150.00000	95.08280	-416.55556	95.08280
16200.00000	95.41880	-419.38463	95.41880
16250.00000	95.82750	-420.71472	95.82750
16300.00000	96.40367	-422.86428	96.40367
16350.00000	96.67582	-424.77645	96.67582
16400.00000	97.00007	-425.92399	97.00007
16450.00000	97.33058	-428.22535	97.33058
16500.00000	97.59914	-431.01903	97.59914
16550.00000	98.01743	-434.21760	98.01743
16600.00000	98.35317	-436.76003	98.35317
16650.00000	98.68502	-439.51197	98.68502
16700.00000	98.96621	-441.63160	98.96621
16750.00000	99.15013	-445.09817	99.15013
16800.00000	99.45514	-448.19438	99.45514
16850.00000	99.73242	-450.95627	99.73242
16900.00000	100.08228	-454.38256	100.08228
16950.00000	100.26869	-457.08975	100.26869
17000.00000	100.36420	-460.34996	100.36420
17050.00000	100.60433	-462.46697	100.60433
17100.00000	100.70933	-464.66802	100.70933
17150.00000	100.98081	-468.68623	100.98081
17200.00000	101.18168	-471.65762	101.18168
17250.00000	101.27918	-475.29134	101.27918
17300.00000	101.57976	-477.84959	101.57976
17350.00000	101.53934	-480.10600	101.53934
17400.00000	101.74792	-483.43186	101.74792
17450.00000	101.81772	-486.87108	101.81772
17500.00000	102.00983	-489.78060	102.00983
17550.00000	102.17396	-492.46310	102.17396
17600.00000	102.34783	-494.93143	102.34783
17650.00000	102.43775	-498.48696	102.43775
17700.00000	102.51726	-501.88335	102.51726
17750.00000	102.79827	-504.10107	102.79827
17800.00000	102.74502	-507.83770	102.74502
17850.00000	102.92761	-510.39762	102.92761
17900.00000	102.98390	-513.10609	102.98390
17950.00000	103.18162	-516.44382	103.18162
18000.00000	103.27902	-519.96184	103.27902
18050.00000	103.51171	-522.69080	103.51171
18100.00000	103.52090	-526.31551	103.52090
18150.00000	103.63660	-528.74170	103.63660
18200.00000	103.64274	-532.40023	103.64274
18250.00000	103.83211	-534.95859	103.83211
18300.00000	103.94624	-538.12803	103.94624
18350.00000	104.04533	-541.18755	104.04533
18400.00000	104.04871	-544.69076	104.04871
18450.00000	104.08503	-549.26682	104.08503
18500.00000	104.18113	-552.34139	104.18113
18550.00000	104.21470	-555.00236	104.21470
18600.00000	104.30538	-558.83218	104.30538
18650.00000	104.22636	-561.89767	104.22636
18700.00000	104.23424	-565.71757	104.23424
18750.00000	104.31410	-568.68994	104.31410
18800.00000	104.38627	-571.29733	104.38627
18850.00000	104.25185	-574.89025	104.25185
18900.00000	104.22067	-578.11461	104.22067
18950.00000	104.23338	-581.63926	104.23338
19000.00000	104.04832	-584.15111	104.04832
19050.00000	104.14800	-587.30769	104.14800
19100.00000	104.05484	-590.21864	104.05484
19150.00000	104.17051	-592.82494	104.17051
19200.00000	104.10560	-595.30109	104.10560
19250.00000	104.05932	-599.37065	104.05932
19300.00000	103.93697	-601.45975	103.93697
19350.00000	103.95368	-604.46953	103.95368
19400.00000	103.88499	-607.15462	103.88499
19450.00000	103.94852	-609.23611	103.94852
19500.00000	103.81741	-612.78948	103.81741
19550.00000	103.85185	-615.36011	103.85185
19600.00000	103.89394	-618.75647	103.89394
19650.00000	103.78948	-620.91275	103.78948
19700.00000	103.67194	-623.69107	103.67194
19750.00000	103.63225	-625.94013	103.63225
19800.00000	103.69921	-629.47619	103.69921
19850.00000	103.69013	-631.89919	103.69013
19900.00000	103.60716	-635.52583	103.60716
19950.00000	103.54272	-638.02473	103.54272
20000.00000	103.50803	-640.82223	103.50803
20050.00000	103.46947	-643.60974	103.46947
20100.00000	103.31661	-646.49150	103.31661
20150.00000	103.32237	-648.41423	103.32237
20200.00000	103.20461	-651.86545	103.20461
20250.00000	103.08130	-654.28022	103.08130
20300.00000	102.88796	-657.20542	102.88796
20350.00000	102.87016	-659.91142	102.87016
20400.00000	102.69666	-661.72158	102.69666
20450.00000	102.47945	-664.15039	102.47945
20500.00000	102.41474	-666.87451	102.41474
20550.00000	102.05552	-668.34054	102.05552
20600.00000	102.00189	-670.08969	102.00189
20650.00000	101.87071	-672.02354	101.87071
20700.00000	101.67109	-673.64051	101.67109
20750.00000	101.59924	-675.04787	101.59924
20800.00000	101.43192	-675.95585	101.43192
20850.00000	101.39124	-677.43216	101.39124
20900.00000	101.25494	-678.39018	101.25494
20950.00000	101.18723	-678.87157	101.18723
21000.00000	101.14868	-679.53955	101.14868
21050.00000	101.31460	-680.01099	101.31460
21100.00000	101.34431	-680.51419	101.34431
21150.00000	101.51291	-681.65324	101.51291
21200.00000	101.68773	-682.34151	101.68773
21250.00000	101.84116	-684.76456	101.84116
21300.00000	102.09788	-685.72751	102.09788
21350.00000	102.26095	-687.46039	102.26095
21400.00000	102.45127	-689.83746	102.45127
21450.00000	102.63946	-692.08265	102.63946
21500.00000	102.82033	-694.91446	102.82033
21550.00000	102.86966	-697.26193	102.86966
21600.00000	103.04978	-700.27967	103.04978
21650.00000	103.11235	-703.25251	103.11235
21700.00000	103.15824	-705.82544	103.15824
21750.00000	103.24082	-708.67216	103.24082
21800.00000	103.27098	-711.61328	103.27098
21850.00000	103.20479	-714.18350	103.20479
21900.00000	103.24420	-717.07030	103.24420
21950.00000	103.23774	-719.61059	103.23774
22000.00000	103.27356	-722.02028	103.27356
22050.00000	103.22131	-724.21616	103.22131
22100.00000	103.20584	-726.89744	103.20584
22150.00000	103.17294	-729.06453	103.17294
22200.00000	103.21663	-731.49718	103.21663
22250.00000	103.15630	-733.40458	103.15630
22300.00000	103.07097	-735.79636	103.07097
22350.00000	103.18864	-738.20604	103.18864
22400.00000	103.19403	-740.63419	103.19403
22450.00000	103.14680	-742.97408	103.14680
22500.00000	103.08407	-744.34615	103.08407
22550.00000	103.13115	-746.96878	103.13115
22600.00000	103.08534	-749.83943	103.08534
22650.00000	103.12535	-751.95583	103.12535
22700.00000	103.10415	-754.24972	103.10415
22750.00000	103.08313	-754.76579	103.08313
22800.00000	103.11876	-759.41371	103.11876
22850.00000	103.21047	-762.37895	103.21047
22900.00000	103.19664	-763.31859	103.19664
22950.00000	103.24023	-765.69765	103.24023
23000.00000	103.14776	-767.53887	103.14776
23050.00000	103.16526	-770.94793	103.16526
23100.00000	103.26316	-772.36944	103.26316
23150.00000	103.11592	-774.04615	103.11592
23200.00000	103.28258	-778.00589	103.28258
23250.00000	103.05796	-781.23863	103.05796
23300.00000	103.40902	-783.63844	103.40902
23350.00000	103.13537	-786.58698	103.13537
23400.00000	103.08836	-789.20275	103.08836
23450.00000	103.23195	-791.61684	103.23195
23500.00000	103.04515	-793.88488	103.04515
23550.00000	103.04352	-794.88934	103.04352
23600.00000	102.93659	-799.14108	102.93659
23650.00000	102.93719	-801.81146	102.93719
23700.00000	103.14520	-806.43208	103.14520
23750.00000	103.05714	-807.83016	103.05714
23800.00000	102.74374	-809.61564	102.74374
23850.00000	102.90078	-811.58119	102.90078
23900.00000	103.19348	-814.71583	103.19348
23950.00000	102.85735	-818.38426	102.85735
24000.00000	102.63004	-822.02644	102.63004
24050.00000	102.71331	-823.22700	102.71331
24100.00000	102.87263	-827.60819	102.87263
24150.00000	102.84185	-830.28971	102.84185
24200.00000	102.67995	-834.75834	102.67995
24250.00000	102.39887	-835.62316	102.39887
24300.00000	102.51161	-839.48436	102.51161
24350.00000	102.40319	-842.56153	102.40319
24400.00000	102.17308	-845.89142	102.17308
24450.00000	101.76801	-848.41718	101.76801
24500.00000	102.17827	-849.60730	102.17827
24550.00000	101.81794	-495.97734	101.81794
24600.00000	102.13643	-496.30477	102.13643
24650.00000	101.64576	-141.55187	101.64576
24700.00000	101.40625	218.24414	101.40625
24750.00000	101.33314	572.94813	101.33314
24800.00000	101.08504	931.40340	101.08504
24850.00000	100.76749	1289.43030	100.76749
24900.00000	100.66261	1648.45206	100.66261
24950.00000	100.90764	2005.64675	100.90764
25000.00000	100.52054	1997.26596	100.52054
25050.00000	100.59839	1998.12235	100.59839
25100.00000	99.72829	1994.64578	99.72829
25150.00000	99.93793	1994.46705	99.93793
25200.00000	99.53263	1991.26461	99.53263
25250.00000	99.50581	1990.28932	99.50581
25300.00000	99.52922	1988.79238	99.52922
25350.00000	99.27010	1983.22406	99.27010
25400.00000	99.13832	1981.36935	99.13832
25450.00000	99.05808	1980.21506	99.05808
25500.00000	98.75632	1978.48613	98.75632
25550.00000	98.63368	1975.72466	98.63368
25600.00000	98.57261	1973.02235	98.57261
25650.00000	98.30523	1972.70290	98.30523
25700.00000	98.31817	1970.43424	98.31817
25750.00000	97.97091	1968.44308	97.97091
25800.00000	97.75948	1965.83992	97.75948
25850.00000	97.64066	1963.70721	97.64066
25900.00000	97.52998	1960.01649	97.52998
25950.00000	97.14950	1962.36657	97.14950
26000.00000	97.14813	1958.48506	97.14813
26050.00000	97.08962	1956.32818	97.08962
26100.00000	96.80256	1955.07459	96.80256
26150.00000	96.79512	1953.13693	96.79512
26200.00000	96.71842	1951.46739	96.71842
26250.00000	96.60480	1947.68122	96.60480
26300.00000	96.51390	1946.45463	96.51390
26350.00000	95.96598	1945.98042	95.96598
26400.00000	95.95077	1944.79591	95.95077
26450.00000	95.91350	1942.00246	95.91350
26500.00000	95.77338	1940.24011	95.77338
26550.00000	95.39853	1935.48451	95.39853
26600.00000	95.15931	1933.98386	95.15931
26650.00000	95.07421	1936.55973	95.07421
26700.00000	95.19277	1934.42415	95.19277
26750.00000	94.66030	1932.19732	94.66030
26800.00000	94.38402	1929.50530	94.38402
26850.00000	94.70941	1929.40510	94.70941
26900.00000	94.40229	1929.82571	94.40229
26950.00000	94.38711	1927.29576	94.38711
27000.00000	93.84785	1926.69256	93.84785
27050.00000	94.27021	1925.16074	94.27021
27100.00000	93.67645	1925.10198	93.67645
27150.00000	93.61409	1922.63013	93.61409
27200.00000	93.62465	1921.86927	93.62465
27250.00000	93.22889	1922.96506	93.22889
27300.00000	92.92755	1920.80181	92.92755
27350.00000	92.74792	1920.30100	92.74792
27400.00000	92.60946	1921.73605	92.60946
27450.00000	92.53265	1920.48681	92.53265
27500.00000	92.73016	1919.83471	92.73016
27550.00000	92.74457	1918.74276	92.74457
27600.00000	92.87521	1918.18523	92.87521
27650.00000	92.21249	1919.14459	92.21249
27700.00000	92.32020	1916.49612	92.32020
27750.00000	92.39377	1915.14324	92.39377
27800.00000	92.38291	1911.20921	92.38291
27850.00000	92.69094	1916.53597	92.69094
27900.00000	92.61024	1916.03674	92.61024
27950.00000	91.63314	1912.63576	91.63314
28000.00000	91.97744	1914.55212	91.97744
28050.00000	92.35187	1913.78784	92.35187
28100.00000	92.00222	1913.46472	92.00222
28150.00000	92.14139	1911.97840	92.14139
28200.00000	92.34663	1910.62214	92.34663
28250.00000	92.10342	1908.48189	92.10342
28300.00000	91.69628	1910.15244	91.69628
28350.00000	91.95276	1910.87163	91.95276
28400.00000	91.90710	1910.25702	91.90710
28450.00000	92.55475	1909.42121	92.55475
28500.00000	92.14126	1910.06621	92.14126
28550.00000	92.37522	1910.65623	92.37522
28600.00000	92.26698	1910.21028	92.26698
28650.00000	92.70172	1906.62591	92.70172
28700.00000	92.47929	1910.46160	92.47929
28750.00000	93.21329	1909.73249	93.21329
28800.00000	92.98578	1909.81525	92.98578
28850.00000	92.58874	1904.29515	92.58874
28900.00000	92.84322	1903.90683	92.84322
28950.00000	92.92724	1905.13099	92.92724
29000.00000	93.23247	1905.42577	93.23247
29050.00000	92.85265	1906.85734	92.85265
29100.00000	93.17796	1904.40964	93.17796
29150.00000	92.98630	1907.17278	92.98630
29200.00000	93.00730	1904.23738	93.00730
29250.00000	93.56205	1903.63028	93.56205
29300.00000	93.25848	1901.81814	93.25848
29350.00000	93.91847	1899.44598	93.91847
29400.00000	93.70145	1902.33836	93.70145
29450.00000	93.94278	1901.61227	93.94278
29500.00000	94.31828	1901.74587	94.31828
29550.00000	94.20077	1898.46205	94.20077
29600.00000	93.98420	1897.15856	93.98420
29650.00000	94.39429	1896.43185	94.39429
29700.00000	94.51385	1898.34109	94.51385
29750.00000	94.56162	1897.16750	94.56162
29800.00000	94.56352	1895.41788	94.56352
29850.00000	94.86038	1893.98510	94.86038
29900.00000	95.23046	1896.03097	95.23046
29950.00000	94.50438	1894.51583	94.50438
30000.00000	95.23889	1894.86062	95.23889
30050.00000	95.27717	1892.43896	95.27717
30100.00000	95.27949	1894.64930	95.27949
30150.00000	95.66579	1890.88597	95.66579
30200.00000	95.73055	1889.27487	95.73055
30250.00000	95.69214	1889.48061	95.69214
30300.00000	95.58737	1889.46059	95.58737
30350.00000	95.92381	1890.98621	95.92381
30400.00000	96.11859	1888.39314	96.11859
30450.00000	95.83591	1888.07933	95.83591
30500.00000	96.14426	1886.87307	96.14426
30550.00000	96.24728	1887.97968	96.24728
30600.00000	96.41821	1887.69261	96.41821
30650.00000	96.62827	1888.00031	96.62827
30700.00000	96.84647	1886.27739	96.84647
30750.00000	96.75259	1887.46092	96.75259
30800.00000	97.05426	1887.08303	97.05426
30850.00000	97.30562	1888.12073	97.30562
30900.00000	97.40444	1889.20321	97.40444
30950.00000	97.99924	1887.98189	97.99924
31000.00000	98.31352	1886.94858	98.31352
31050.00000	98.66654	1887.61027	98.66654
31100.00000	99.30064	1887.93982	99.30064
31150.00000	99.39295	1886.60316	99.39295
31200.00000	100.28124	1885.41021	100.28124
31250.00000	100.71992	1884.61158	100.71992
31300.00000	101.26944	1882.82774	101.26944
31350.00000	101.86338	1881.26087	101.86338
31400.00000	102.13254	1878.52315	102.13254
31450.00000	102.79058	1876.00298	102.79058
31500.00000	103.21945	1872.60027	103.21945
31550.00000	103.73189	1870.16807	103.73189
31600.00000	104.39675	1866.02713	104.39675
31650.00000	104.75482	1862.36577	104.75482
31700.00000	105.20350	1859.64425	105.20350
31750.00000	105.75300	1857.07141	105.75300
31800.00000	106.13937	1851.87866	106.13937
31850.00000	106.52269	1847.49203	106.52269
31900.00000	106.72891	1843.75550	106.72891
31950.00000	107.09476	1839.31390	107.09476
32000.00000	107.37920	1835.06529	107.37920
32050.00000	107.72041	1831.19044	107.72041
32100.00000	107.88372	1826.66969	107.88372
32150.00000	108.23471	1823.37833	108.23471
32200.00000	108.46626	1817.94480	108.46626
32250.00000	108.62854	1812.94989	108.62854
32300.00000	108.82224	1809.97319	108.82224
32350.00000	109.00834	1806.35939	109.00834
32400.00000	109.22752	1802.32330	109.22752
32450.00000	109.26610	1797.48989	109.26610
32500.00000	109.54100	1794.43159	109.54100
32550.00000	109.73284	1789.25217	109.73284
32600.00000	109.79169	1786.00005	109.79169
32650.00000	110.07573	1781.44133	110.07573
32700.00000	110.00185	1777.26235	110.00185
32750.00000	110.10600	1773.51161	110.10600
32800.00000	110.34500	1770.44379	110.34500
32850.00000	110.56540	1766.02375	110.56540
32900.00000	110.57773	1761.26602	110.57773
32950.00000	110.57393	1756.56336	110.57393
33000.00000	110.58568	1754.89968	110.58568
33050.00000	110.68274	1749.17851	110.68274
33100.00000	110.80775	1745.64537	110.80775
33150.00000	110.89088	1742.08141	110.89088
33200.00000	111.04853	1739.87475	111.04853
33250.00000	111.00795	1735.67466	111.00795
33300.00000	111.03486	1730.89945	111.03486
33350.00000	110.96647	1726.75678	110.96647
33400.00000	110.98403	1724.57923	110.98403
33450.00000	111.12591	1720.00921	111.12591
33500.00000	111.25645	1718.08315	111.25645
33550.00000	111.04626	1712.25610	111.04626
33600.00000	111.28519	1709.24060	111.28519
33650.00000	111.21060	1705.78006	111.21060
33700.00000	111.18368	1701.98467	111.18368
33750.00000	110.94333	1698.95288	110.94333
33800.00000	111.11139	1695.21033	111.11139
33850.00000	110.76434	1691.76683	110.76434
33900.00000	110.90354	1688.10608	110.90354
33950.00000	110.81246	1685.83460	110.81246
34000.00000	110.79576	1681.96817	110.79576
34050.00000	110.63495	1677.94137	110.63495
34100.00000	110.42094	1676.53275	110.42094
34150.00000	110.45811	1673.19146	110.45811
34200.00000	110.37731	1672.12919	110.37731
34250.00000	110.30744	1667.97693	110.30744
34300.00000	110.26615	1664.92687	110.26615
34350.00000	110.25197	1662.44699	110.25197
34400.00000	109.93821	1660.79305	109.93821
34450.00000	109.99576	1656.18123	109.99576
34500.00000	109.84531	1654.34642	109.84531
34550.00000	109.67298	1651.87278	109.67298
34600.00000	109.32211	1649.24621	109.32211
34650.00000	109.53222	1649.41009	109.53222
34700.00000	109.11205	1648.16535	109.11205
34750.00000	109.26606	1642.75587	109.26606
34800.00000	109.38684	1644.99205	109.38684
34850.00000	109.43320	1643.62577	109.43320
34900.00000	109.46165	1639.01268	109.46165
34950.00000	109.26672	1640.07269	109.26672
35000.00000	109.31422	1637.32523	109.31422
35050.00000	109.39045	1636.22299	109.39045
35100.00000	109.54356	1634.15713	109.54356
35150.00000	109.31498	1633.07226	109.31498
35200.00000	109.50219	1631.10955	109.50219
35250.00000	109.47221	1627.92457	109.47221
35300.00000	109.64389	1626.69300	109.64389
35350.00000	109.91237	1624.79828	109.91237
35400.00000	109.83757	1622.41781	109.83757
35450.00000	109.83364	1620.99545	109.83364
35500.00000	109.70930	1618.90913	109.70930
35550.00000	109.95360	1617.66401	109.95360
35600.00000	110.00306	1615.28201	110.00306
35650.00000	110.12348	1613.34695	110.12348
35700.00000	110.23247	1611.86571	110.23247
35750.00000	110.16282	1609.94475	110.16282
35800.00000	110.31780	1608.89605	110.31780
35850.00000	110.51109	1605.32749	110.51109
35900.00000	110.71888	1603.71239	110.71888
35950.00000	110.96472	1601.56953	110.96472
36000.00000	110.96855	1599.85882	110.96855
36050.00000	111.01623	1596.95138	111.01623
36100.00000	111.39246	1594.00292	111.39246
36150.00000	111.34343	1590.84113	111.34343
36200.00000	111.33579	1589.01864	111.33579
36250.00000	111.47754	1585.91184	111.47754
36300.00000	111.45401	1584.06785	111.45401
36350.00000	111.85620	1581.00652	111.85620
36400.00000	111.88817	1578.57992	111.88817
36450.00000	111.69512	1575.88352	111.69512
36500.00000	111.89399	1573.12830	111.89399
36550.00000	111.74132	1570.27595	111.74132
36600.00000	112.02566	1568.16675	112.02566
36650.00000	112.13975	1564.50193	112.13975
36700.00000	112.19171	1561.35387	112.19171
36750.00000	112.21904	1558.02470	112.21904
36800.00000	112.25097	1555.36362	112.25097
36850.00000	112.04006	1551.58597	112.04006
36900.00000	112.34987	1548.87018	112.34987
36950.00000	112.06149	1545.59687	112.06149
37000.00000	111.87398	1542.47356	111.87398
37050.00000	111.91465	1540.89132	111.91465
37100.00000	111.96553	1536.78399	111.96553
37150.00000	111.96051	1533.32404	111.96051
37200.00000	112.00213	1531.76480	112.00213
37250.00000	111.64414	1529.41339	111.64414
37300.00000	111.75963	1527.40272	111.75963
37350.00000	112.10783	1523.61943	112.10783
37400.00000	111.82717	1522.53433	111.82717
37450.00000	111.77541	1519.76840	111.77541
37500.00000	112.05608	1516.93861	112.05608
37550.00000	111.81180	1513.95120	111.81180
37600.00000	111.80034	1511.64755	111.80034
37650.00000	111.72761	1508.01021	111.72761
37700.00000	111.97496	1504.98248	111.97496
37750.00000	112.08137	1505.53591	112.08137
37800.00000	111.86730	1502.72491	111.86730
37850.00000	112.06468	1498.08946	112.06468
37900.00000	112.00288	1497.16481	112.00288
37950.00000	112.19633	1494.86777	112.19633
38000.00000	112.13880	1492.57763	112.13880
38050.00000	112.32264	1490.38896	112.32264
38100.00000	112.55243	1487.59836	112.55243
38150.00000	112.75393	1485.14162	112.75393
38200.00000	112.97404	1481.86144	112.97404
38250.00000	113.00728	1479.09904	113.00728
38300.00000	113.36347	1475.88363	113.36347
38350.00000	113.36388	1473.46037	113.36388
38400.00000	113.67792	1471.24807	113.67792
38450.00000	113.85210	1466.78782	113.85210
38500.00000	114.20172	1463.27331	114.20172
38550.00000	114.50899	1460.32124	114.50899
38600.00000	114.64800	1456.39396	114.64800
38650.00000	114.84220	1452.02847	114.84220
38700.00000	114.95832	1448.50868	114.95832
38750.00000	115.23432	1444.49010	115.23432
38800.00000	115.43936	1440.52702	115.43936
38850.00000	115.52363	1435.56658	115.52363
38900.00000	115.76731	1431.57819	115.76731
38950.00000	115.73139	1426.88820	115.73139
39000.00000	115.92143	1421.99820	115.92143
39050.00000	116.04624	1417.70397	116.04624
39100.00000	115.93229	1412.30431	115.93229
39150.00000	115.88261	1407.80748	115.88261
39200.00000	115.90485	1403.48009	115.90485
39250.00000	115.86917	1398.84927	115.86917
39300.00000	115.75468	1394.00044	115.75468
39350.00000	115.66872	1390.21472	115.66872
39400.00000	115.58117	1385.52694	115.58117
39450.00000	115.41960	1381.62636	115.41960
39500.00000	115.25409	1377.75002	115.25409
39550.00000	115.17956	1373.28550	115.17956
39600.00000	114.89302	1369.44728	114.89302
39650.00000	114.79238	1366.09823	114.79238
39700.00000	114.53078	1362.57365	114.53078
39750.00000	114.41722	1358.73272	114.41722
39800.00000	114.14551	1354.92798	114.14551
39850.00000	113.88170	1352.47027	113.88170
39900.00000	113.66562	1349.04545	113.66562
39950.00000	113.45784	1345.95016	113.45784
40000.00000	113.07842	1344.32288	113.07842
40050.00000	113.00050	1339.83031	113.00050
40100.00000	112.69458	1337.79621	112.69458
40150.00000	112.48467	1334.35481	112.48467
40200.00000	112.28776	1332.08223	112.28776
40250.00000	111.96031	1330.06676	111.96031
40300.00000	111.88921	1328.07942	111.88921
40350.00000	111.49406	1326.03958	111.49406
40400.00000	111.21510	1324.11903	111.21510
40450.00000	111.01048	1322.64841	111.01048
40500.00000	110.94705	1320.63994	110.94705
40550.00000	110.66316	1318.15690	110.66316
40600.00000	110.39736	1317.31996	110.39736
40650.00000	110.24274	1316.04550	110.24274
40700.00000	109.91370	1315.37485	109.91370
40750.00000	110.01256	1314.01325	110.01256
40800.00000	109.76500	1312.57164	109.76500
40850.00000	109.59475	1311.88169	109.59475
40900.00000	109.33723	1310.74117	109.33723
40950.00000	109.11897	1310.78910	109.11897
41000.00000	108.90364	1309.73217	108.90364
41050.00000	108.90424	1310.02632	108.90424
41100.00000	108.95777	1307.71675	108.95777
41150.00000	108.86410	1308.54807	108.86410
41200.00000	108.89735	1307.67467	108.89735
41250.00000	108.81586	1305.94927	108.81586
41300.00000	108.50540	1306.74065	108.50540
41350.00000	108.60456	1306.76072	108.60456
41400.00000	108.67113	1302.36250	108.67113
41450.00000	108.78874	1304.56865	108.78874
41500.00000	108.61281	1302.84510	108.61281
41550.00000	108.56803	1305.65402	108.56803
41600.00000	108.29043	1303.34039	108.29043
41650.00000	108.71441	1301.23487	108.71441
41700.00000	109.01677	1301.71928	109.01677
41750.00000	108.88143	1303.55341	108.88143
41800.00000	108.02542	1298.41690	108.02542
41850.00000	107.64736	1298.88306	107.64736
41900.00000	107.94652	1298.35314	107.94652
41950.00000	109.16270	1301.36928	109.16270
42000.00000	108.30691	1294.97352	108.30691
42050.00000	107.52218	1294.37027	107.52218
42100.00000	108.03338	1294.09617	108.03338
42150.00000	107.69553	1287.12762	107.69553
42200.00000	107.59272	1293.36463	107.59272
42250.00000	107.53217	1290.60193	107.53217
42300.00000	106.46671	1286.17696	106.46671
42350.00000	107.27808	1288.06207	107.27808
42400.00000	107.06721	1286.54763	107.06721
42450.00000	107.58199	1280.67369	107.58199
42500.00000	107.31504	1279.12684	107.31504
42550.00000	107.03597	1290.35963	107.03597
42600.00000	107.12703	1280.93615	107.12703
42650.00000	106.49194	1277.96888	106.49194
42700.00000	106.19366	1274.79921	106.19366
42750.00000	107.31195	1274.13778	107.31195
42800.00000	106.99261	1264.06867	106.99261
42850.00000	106.87592	1262.69544	106.87592
42900.00000	107.95454	1267.36857	107.95454
42950.00000	107.23935	1259.24374	107.23935
43000.00000	108.17319	1251.55922	108.17319
43050.00000	107.52234	1247.87738	107.52234
43100.00000	107.73143	1250.38832	107.73143
43150.00000	108.25432	1244.92087	108.25432
43200.00000	107.68392	1241.27953	107.68392
43250.00000	107.66154	1238.15667	107.66154
43300.00000	107.98604	1235.27304	107.98604
43350.00000	108.96543	1229.32327	108.96543
43400.00000	108.22930	1228.02989	108.22930
43450.00000	109.22958	1225.11539	109.22958
43500.00000	108.07196	1218.14392	108.07196
43550.00000	108.87145	1214.41100	108.87145
43600.00000	108.61786	1210.19176	108.61786
43650.00000	109.19813	1201.24072	109.19813
43700.00000	109.06668	1202.37534	109.06668
43750.00000	108.81459	1200.59468	108.81459
43800.00000	109.06135	1190.71587	109.06135
43850.00000	109.88539	1188.95267	109.88539
43900.00000	109.88387	1185.12668	109.88387
43950.00000	110.03638	1178.45155	110.03638
44000.00000	109.35128	1175.42187	109.35128
44050.00000	110.11169	1169.51868	110.11169
44100.00000	109.96721	1157.81405	109.96721
44150.00000	109.85643	1159.78432	109.85643
44200.00000	109.73880	1159.25002	109.73880
44250.00000	110.09848	1151.75332	110.09848
44300.00000	110.42306	1144.68013	110.42306
44350.00000	109.11148	1140.69508	109.11148
44400.00000	109.89359	1139.22624	109.89359
44450.00000	110.26832	1134.05628	110.26832
44500.00000	109.94011	1130.41922	109.94011
44550.00000	110.98391	1120.83684	110.98391
44600.00000	109.88077	1122.37567	109.88077
44650.00000	109.37723	1111.71261	109.37723
44700.00000	109.44676	1110.26565	109.44676
44750.00000	109.31681	1109.22319	109.31681
44800.00000	110.02348	1101.20284	110.02348
44850.00000	109.43425	1094.99907	109.43425
44900.00000	108.84852	1094.88349	108.84852
44950.00000	109.02522	1089.85986	109.02522
45000.00000	108.98920	1081.64765	108.98920
45050.00000	107.13114	1086.65983	107.13114
45100.00000	107.86188	1077.64091	107.86188
45150.00000	107.92222	1067.40136	107.92222
45200.00000	107.25816	1070.68681	107.25816
45250.00000	107.22172	1065.91420	107.22172
45300.00000	106.84720	1061.23244	106.84720
45350.00000	106.48405	1054.87394	106.48405
45400.00000	106.42587	1053.92330	106.42587
45450.00000	106.13521	1047.70978	106.13521
45500.00000	104.56670	1043.67177	104.56670
45550.00000	104.34094	1048.88061	104.34094
45600.00000	105.14713	1037.85172	105.14713
45650.00000	103.59389	1031.02538	103.59389
45700.00000	103.37188	1031.83221	103.37188
45750.00000	104.22525	1035.77246	104.22525
45800.00000	103.02591	1028.12817	103.02591
45850.00000	102.57303	1025.46172	102.57303
45900.00000	102.58254	1026.27032	102.58254
45950.00000	101.59371	1029.08959	101.59371
46000.00000	100.62331	1011.93741	100.62331
46050.00000	100.51043	1010.08947	100.51043
46100.00000	99.33960	1017.13994	99.33960
46150.00000	99.07378	1016.69177	99.07378
46200.00000	97.40767	1008.80342	97.40767
46250.00000	98.54169	1009.03343	98.54169
46300.00000	97.20099	1010.90581	97.20099
46350.00000	98.12402	1003.46685	98.12402
46400.00000	96.43355	1004.30268	96.43355
46450.00000	95.13673	1003.91196	95.13673
46500.00000	96.63821	1007.66246	96.63821
46550.00000	95.71208	1012.02457	95.71208
46600.00000	96.29356	1017.55421	96.29356
46650.00000	93.26406	1009.94278	93.26406
46700.00000	93.36068	1019.26691	93.36068
46750.00000	93.89423	1029.72216	93.89423
46800.00000	92.73307	1019.65058	92.73307
46850.00000	93.80896	673.90937	93.80896
46900.00000	93.88803	665.55592	93.88803
46950.00000	94.67648	665.53054	94.67648
47000.00000	94.72663	668.70761	94.72663
47050.00000	96.11577	663.53975	96.11577
47100.00000	94.79282	663.30606	94.79282
47150.00000	95.58799	660.86910	95.58799
47200.00000	94.13886	660.06737	94.13886
47250.00000	96.57320	658.05014	96.57320
47300.00000	95.61883	650.78572	95.61883
47350.00000	95.54507	302.22870	95.54507
47400.00000	94.81883	297.76369	94.81883
47450.00000	96.22109	298.86275	96.22109
47500.00000	93.99874	284.48197	93.99874
47550.00000	94.19070	-64.27460	94.19070
47600.00000	94.42565	-72.63461	94.42565
47650.00000	96.32503	-74.54235	96.32503
47700.00000	94.53516	-73.32460	94.53516
47750.00000	92.61650	-71.40222	92.61650
47800.00000	93.58439	-89.88032	93.58439
47850.00000	93.19179	-434.61322	93.19179
47900.00000	94.21345	-788.12394	94.21345
47950.00000	92.53756	-793.62184	92.53756
48000.00000	93.56041	-784.08927	93.56041
48050.00000	95.15975	-799.04651	95.15975
48100.00000	93.35581	-795.34031	93.35581
48150.00000	93.68166	-1150.00527	93.68166
48200.00000	94.71625	-1149.36568	94.71625
48250.00000	93.45062	-1159.42482	93.45062
48300.00000	93.95727	-1157.17933	93.95727
48350.00000	93.91001	-1168.03416	93.91001
48400.00000	94.39205	-1510.30563	94.39205
48450.00000	95.66336	-1519.15404	95.66336
48500.00000	94.44068	-1519.74115	94.44068
48550.00000	93.20692	-1526.12171	93.20692
48600.00000	95.42456	-1882.21479	95.42456
48650.00000	95.91647	-1884.51256	95.91647
48700.00000	96.10324	-1890.26696	96.10324
48750.00000	94.61607	-2243.91213	94.61607
48800.00000	94.90339	-2250.89867	94.90339
48850.00000	95.78392	-2258.68939	95.78392
48900.00000	94.23849	-2612.02549	94.23849
48950.00000	94.57137	-2622.95660	94.57137
49000.00000	94.97643	-2626.59778	94.97643
49050.00000	94.83549	-2626.56336	94.83549
49100.00000	93.67519	-2989.63287	93.67519
49150.00000	94.54419	-3353.04066	94.54419
49200.00000	94.43221	-3358.18185	94.43221
49250.00000	93.57734	-3710.17831	93.57734
49300.00000	94.87132	-3359.87564	94.87132
49350.00000	90.71805	-3335.25849	90.71805
49400.00000	93.35614	-2988.42117	93.35614
49450.00000	91.85573	-2652.94183	91.85573
49500.00000	91.66620	-2289.10671	91.66620
49550.00000	92.79383	-1944.13271	92.79383
49600.00000	90.75396	-1930.49388	90.75396
49650.00000	92.55503	-1925.68291	92.55503
49700.00000	90.15556	-1591.43621	90.15556
49750.00000	90.31457	-1588.19857	90.31457
49800.00000	89.70527	-1581.03219	89.70527
49850.00000	86.82716	-1567.17873	86.82716
49900.00000	87.65956	-1200.30928	87.65956
49950.00000	87.68693	-861.10572	87.68693
