---ACOUSTIC CALIBRATION---
Filename: C:\Data\AZH DATA\AZH21\RightPrimary.calib
Date: 8/27/2019 12:03:34 PM
Format: 4
Probe Tube Correction File: C:\Data\Probe Tube Calibrations\50_ProbeTube.calib
Experiment VIs: 850
EPL_CFTS.exe V12.0.1 (2012)
DAQmx V9.6

Attenuation (dB): 40.000000
Min Freq (Hz): 50.000000
Max Freq (Hz): 49950.000000
Freq Step (Hz): 50.000000
Sample Rate (Hz): 100000.000000
[Smoothing]
Method=None
MA.Iterations=0
MA.Length=0
Loess.Length=0
Loess.Type=Linear
Loess.Robust=FALSE


Freq(Hz)	Mag(dB)	Phase(deg)	Unsmoothed(dB)

50.00000	101.69723	596.31442	101.69723
100.00000	76.12539	641.35435	76.12539
150.00000	79.12324	508.72535	79.12324
200.00000	80.88604	465.23457	80.88604
250.00000	89.71461	462.53266	89.71461
300.00000	95.05158	415.13166	95.05158
350.00000	80.69423	409.68477	80.69423
400.00000	88.51365	379.17265	88.51365
450.00000	87.12690	362.93794	87.12690
500.00000	88.71996	384.35417	88.71996
550.00000	94.22533	369.12428	94.22533
600.00000	95.62586	373.92730	95.62586
650.00000	98.61301	357.73216	98.61301
700.00000	100.50542	339.59018	100.50542
750.00000	101.99347	322.38715	101.99347
800.00000	102.42688	297.98994	102.42688
850.00000	102.16244	280.21536	102.16244
900.00000	100.47533	261.41752	100.47533
950.00000	98.66383	259.55686	98.66383
1000.00000	97.32707	258.67348	97.32707
1050.00000	94.92300	275.54273	94.92300
1100.00000	96.96833	297.27965	96.96833
1150.00000	99.63888	301.89222	99.63888
1200.00000	102.40911	301.48220	102.40911
1250.00000	104.19855	293.13671	104.19855
1300.00000	105.76966	289.43797	105.76966
1350.00000	107.01563	278.39803	107.01563
1400.00000	107.87383	271.21466	107.87383
1450.00000	109.06796	264.25860	109.06796
1500.00000	110.03178	256.92110	110.03178
1550.00000	110.96843	249.05527	110.96843
1600.00000	112.49144	238.68176	112.49144
1650.00000	113.42333	221.90188	113.42333
1700.00000	112.20285	211.82930	112.20285
1750.00000	111.97447	206.19977	111.97447
1800.00000	111.68123	201.92612	111.68123
1850.00000	111.85579	200.75558	111.85579
1900.00000	113.01771	196.37350	113.01771
1950.00000	113.75136	182.57598	113.75136
2000.00000	112.78664	170.11148	112.78664
2050.00000	111.42779	175.42754	111.42779
2100.00000	113.34712	174.75340	113.34712
2150.00000	113.98995	163.24282	113.98995
2200.00000	113.84476	153.04766	113.84476
2250.00000	113.25525	145.80097	113.25525
2300.00000	113.30678	140.58710	113.30678
2350.00000	113.06422	133.53626	113.06422
2400.00000	112.68410	127.77855	112.68410
2450.00000	112.42503	121.61746	112.42503
2500.00000	111.96434	116.41827	111.96434
2550.00000	111.54315	111.56437	111.54315
2600.00000	110.99103	107.43222	110.99103
2650.00000	110.42727	103.46646	110.42727
2700.00000	109.95793	99.81730	109.95793
2750.00000	109.27611	96.52926	109.27611
2800.00000	108.55929	93.99412	108.55929
2850.00000	107.85808	92.46979	107.85808
2900.00000	107.17173	90.80963	107.17173
2950.00000	106.34669	90.59175	106.34669
3000.00000	105.53900	90.92938	105.53900
3050.00000	104.46555	93.39084	104.46555
3100.00000	103.67049	97.95962	103.67049
3150.00000	102.65847	104.83966	102.65847
3200.00000	102.15809	117.22004	102.15809
3250.00000	102.73218	129.89129	102.73218
3300.00000	103.66504	141.16516	103.66504
3350.00000	105.41307	150.10113	105.41307
3400.00000	107.49932	157.31498	107.49932
3450.00000	109.76113	158.17204	109.76113
3500.00000	112.05060	155.42796	112.05060
3550.00000	113.73341	149.41015	113.73341
3600.00000	115.28218	143.71611	115.28218
3650.00000	116.57145	136.67175	116.57145
3700.00000	117.74426	129.69161	117.74426
3750.00000	118.83361	121.97059	118.83361
3800.00000	119.73059	113.70874	119.73059
3850.00000	120.39027	105.71082	120.39027
3900.00000	121.00363	98.49341	121.00363
3950.00000	121.65288	91.17060	121.65288
4000.00000	122.26648	83.60327	122.26648
4050.00000	122.86284	76.15676	122.86284
4100.00000	123.48324	68.32828	123.48324
4150.00000	124.25742	59.67582	124.25742
4200.00000	124.69694	49.67934	124.69694
4250.00000	125.08453	38.99891	125.08453
4300.00000	125.24337	28.00744	125.24337
4350.00000	125.18201	17.03085	125.18201
4400.00000	124.95417	 6.91789	124.95417
4450.00000	124.59482	-2.37994	124.59482
4500.00000	124.20878	-11.06158	124.20878
4550.00000	123.80489	-19.35801	123.80489
4600.00000	123.34064	-27.31722	123.34064
4650.00000	122.91136	-34.98148	122.91136
4700.00000	122.38274	-43.07313	122.38274
4750.00000	121.70313	-51.28505	121.70313
4800.00000	120.80292	-59.07139	120.80292
4850.00000	119.66836	-65.58728	119.66836
4900.00000	118.42164	-70.00654	118.42164
4950.00000	117.20583	-72.10823	117.20583
5000.00000	116.16978	-72.31458	116.16978
5050.00000	115.22517	-72.19815	115.22517
5100.00000	114.25876	-68.61299	114.25876
5150.00000	114.37891	-64.09460	114.37891
5200.00000	114.04338	-59.75367	114.04338
5250.00000	115.72975	-55.97009	115.72975
5300.00000	116.61859	-66.74381	116.61859
5350.00000	116.20743	-74.58671	116.20743
5400.00000	115.69201	-78.74682	115.69201
5450.00000	115.30232	-81.20982	115.30232
5500.00000	115.00182	-83.52810	115.00182
5550.00000	114.78279	-85.62590	114.78279
5600.00000	114.58696	-87.57152	114.58696
5650.00000	114.46200	-89.67191	114.46200
5700.00000	114.31828	-91.78594	114.31828
5750.00000	114.22374	-93.70922	114.22374
5800.00000	114.12095	-95.65570	114.12095
5850.00000	114.07822	-97.64638	114.07822
5900.00000	114.07985	-99.63967	114.07985
5950.00000	114.10579	-101.80843	114.10579
6000.00000	114.13158	-104.24487	114.13158
6050.00000	114.15294	-107.01584	114.15294
6100.00000	114.17020	-110.01708	114.17020
6150.00000	114.14007	-113.03244	114.14007
6200.00000	114.08698	-115.98807	114.08698
6250.00000	114.05132	-118.83173	114.05132
6300.00000	114.02171	-121.58946	114.02171
6350.00000	113.95736	-124.54876	113.95736
6400.00000	113.87868	-127.30941	113.87868
6450.00000	113.86037	-130.09198	113.86037
6500.00000	113.81097	-132.92504	113.81097
6550.00000	113.75673	-135.72595	113.75673
6600.00000	113.72836	-138.38777	113.72836
6650.00000	113.70624	-141.12829	113.70624
6700.00000	113.69088	-143.92575	113.69088
6750.00000	113.68180	-146.73432	113.68180
6800.00000	113.70709	-149.49322	113.70709
6850.00000	113.72528	-152.49054	113.72528
6900.00000	113.73009	-155.39240	113.73009
6950.00000	113.74249	-158.19871	113.74249
7000.00000	113.79606	-161.36553	113.79606
7050.00000	113.82567	-164.62582	113.82567
7100.00000	113.88766	-168.06771	113.88766
7150.00000	113.90840	-171.39827	113.90840
7200.00000	113.93521	-174.97711	113.93521
7250.00000	113.96482	-178.78791	113.96482
7300.00000	114.00571	-182.61191	114.00571
7350.00000	114.01107	-186.57281	114.01107
7400.00000	114.02013	-190.78555	114.02013
7450.00000	114.02037	-195.12815	114.02037
7500.00000	113.98402	-199.58583	113.98402
7550.00000	113.93458	-204.14832	113.93458
7600.00000	113.83842	-208.79660	113.83842
7650.00000	113.71980	-213.45253	113.71980
7700.00000	113.61382	-218.30461	113.61382
7750.00000	113.40310	-223.23286	113.40310
7800.00000	113.17574	-228.15208	113.17574
7850.00000	112.91067	-232.86665	112.91067
7900.00000	112.62399	-237.34837	112.62399
7950.00000	112.30449	-242.04840	112.30449
8000.00000	111.95035	-246.40260	111.95035
8050.00000	111.56727	-250.95182	111.56727
8100.00000	111.17202	-254.47993	111.17202
8150.00000	110.69021	-258.10962	110.69021
8200.00000	110.24743	-261.33658	110.24743
8250.00000	109.73930	-264.79478	109.73930
8300.00000	109.26310	-267.91631	109.26310
8350.00000	108.74737	-270.63289	108.74737
8400.00000	108.24312	-273.77718	108.24312
8450.00000	107.67843	-276.66140	107.67843
8500.00000	107.17265	-279.36526	107.17265
8550.00000	106.73640	-281.66495	106.73640
8600.00000	106.30331	-284.14301	106.30331
8650.00000	105.88352	-286.24252	105.88352
8700.00000	105.53222	-288.57920	105.53222
8750.00000	105.12044	-289.19691	105.12044
8800.00000	104.79453	-290.71810	104.79453
8850.00000	104.42324	-291.90126	104.42324
8900.00000	104.08013	-292.56149	104.08013
8950.00000	103.72600	-293.81001	103.72600
9000.00000	103.27112	-294.95902	103.27112
9050.00000	102.89506	-296.55502	102.89506
9100.00000	102.49105	-298.12996	102.49105
9150.00000	102.13825	-299.77945	102.13825
9200.00000	101.83314	-301.76505	101.83314
9250.00000	101.58371	-303.82010	101.58371
9300.00000	101.41258	-305.69885	101.41258
9350.00000	101.35037	-307.21791	101.35037
9400.00000	101.15583	-307.85779	101.15583
9450.00000	101.04822	-308.37728	101.04822
9500.00000	100.95310	-307.70179	100.95310
9550.00000	100.93068	-307.52806	100.93068
9600.00000	100.81865	-308.40039	100.81865
9650.00000	100.57521	-309.57300	100.57521
9700.00000	100.32363	-310.37834	100.32363
9750.00000	100.12426	-312.52281	100.12426
9800.00000	99.89379	-313.93609	99.89379
9850.00000	99.74065	-315.58863	99.74065
9900.00000	99.53415	-317.84836	99.53415
9950.00000	99.48978	-319.22067	99.48978
10000.00000	99.46306	-321.04401	99.46306
10050.00000	99.38555	-321.89269	99.38555
10100.00000	99.28388	-322.60612	99.28388
10150.00000	99.05694	-324.05159	99.05694
10200.00000	98.86049	-325.09877	98.86049
10250.00000	98.61024	-326.64427	98.61024
10300.00000	98.47207	-328.75973	98.47207
10350.00000	98.23336	-330.49015	98.23336
10400.00000	98.01627	-333.11171	98.01627
10450.00000	98.01576	-335.71860	98.01576
10500.00000	98.02497	-337.87416	98.02497
10550.00000	98.01700	-339.91299	98.01700
10600.00000	97.97904	-341.34557	97.97904
10650.00000	97.90432	-342.29763	97.90432
10700.00000	97.80624	-344.37541	97.80624
10750.00000	97.71467	-345.98016	97.71467
10800.00000	97.48432	-347.47541	97.48432
10850.00000	97.31089	-350.35576	97.31089
10900.00000	97.12554	-352.43318	97.12554
10950.00000	97.00940	-354.51182	97.00940
11000.00000	96.89959	-356.72492	96.89959
11050.00000	96.65473	-358.80521	96.65473
11100.00000	96.49149	-361.07267	96.49149
11150.00000	96.24337	-362.62794	96.24337
11200.00000	96.08479	-364.20998	96.08479
11250.00000	95.80372	-366.31883	95.80372
11300.00000	95.48138	-368.29033	95.48138
11350.00000	95.22373	-369.91495	95.22373
11400.00000	94.87171	-371.74928	94.87171
11450.00000	94.63186	-374.17765	94.63186
11500.00000	94.52804	-375.29905	94.52804
11550.00000	94.22031	-376.56653	94.22031
11600.00000	94.10416	-378.69958	94.10416
11650.00000	93.84474	-379.03338	93.84474
11700.00000	93.68475	-380.37478	93.68475
11750.00000	93.52138	-381.53459	93.52138
11800.00000	93.34826	-383.38438	93.34826
11850.00000	93.21681	-383.55726	93.21681
11900.00000	92.89219	-385.55384	92.89219
11950.00000	92.68742	-386.55674	92.68742
12000.00000	92.46426	-387.62533	92.46426
12050.00000	92.19751	-388.98733	92.19751
12100.00000	92.00654	-390.89773	92.00654
12150.00000	91.79347	-392.99457	91.79347
12200.00000	91.69898	-394.78654	91.69898
12250.00000	91.49945	-395.35989	91.49945
12300.00000	92.40201	-396.89413	92.40201
12350.00000	91.06894	-397.60653	91.06894
12400.00000	90.74705	-397.89679	90.74705
12450.00000	90.43890	-398.78397	90.43890
12500.00000	90.10227	-401.13144	90.10227
12550.00000	89.88901	-402.14334	89.88901
12600.00000	89.58393	-403.39687	89.58393
12650.00000	89.54681	-404.71807	89.54681
12700.00000	89.24594	-404.84944	89.24594
12750.00000	88.95690	-406.80480	88.95690
12800.00000	88.68145	-406.11753	88.68145
12850.00000	87.95440	-407.12924	87.95440
12900.00000	87.74541	-408.54362	87.74541
12950.00000	87.47055	-408.49471	87.47055
13000.00000	87.15254	-409.92292	87.15254
13050.00000	86.93832	-409.51739	86.93832
13100.00000	86.61295	-409.30141	86.61295
13150.00000	86.42209	-409.63480	86.42209
13200.00000	86.25327	-407.65132	86.25327
13250.00000	85.90481	-407.29703	85.90481
13300.00000	85.69155	-404.23047	85.69155
13350.00000	85.34238	-404.70904	85.34238
13400.00000	85.19193	-404.46999	85.19193
13450.00000	84.92433	-403.16499	84.92433
13500.00000	85.02717	-401.05754	85.02717
13550.00000	84.80432	-400.05137	84.80432
13600.00000	84.78503	-398.77290	84.78503
13650.00000	84.59259	-394.93823	84.59259
13700.00000	84.15484	-394.09908	84.15484
13750.00000	84.09808	-395.31992	84.09808
13800.00000	84.03664	-396.60503	84.03664
13850.00000	84.18897	-397.31771	84.18897
13900.00000	84.27013	-395.10235	84.27013
13950.00000	84.55646	-393.63412	84.55646
14000.00000	84.62524	-389.31536	84.62524
14050.00000	84.52106	-387.87752	84.52106
14100.00000	84.16728	-386.60725	84.16728
14150.00000	84.23188	-386.65282	84.23188
14200.00000	84.48006	-386.72695	84.48006
14250.00000	85.03738	-384.43841	85.03738
14300.00000	85.23482	-381.45128	85.23482
14350.00000	85.57534	-378.88011	85.57534
14400.00000	85.25363	-379.07054	85.25363
14450.00000	85.26447	-375.87676	85.26447
14500.00000	85.41181	-376.52038	85.41181
14550.00000	85.70783	-375.47827	85.70783
14600.00000	85.93483	-375.29305	85.93483
14650.00000	86.57121	-373.08966	86.57121
14700.00000	86.74805	-376.18888	86.74805
14750.00000	87.13335	-374.02711	87.13335
14800.00000	87.24704	-371.81960	87.24704
14850.00000	87.69209	-370.99718	87.69209
14900.00000	88.19065	-371.67152	88.19065
14950.00000	88.56673	-371.59412	88.56673
15000.00000	88.99420	-372.22360	88.99420
15050.00000	89.36527	-370.20234	89.36527
15100.00000	89.76545	-369.04729	89.76545
15150.00000	90.19136	-368.16441	90.19136
15200.00000	90.49093	-367.66999	90.49093
15250.00000	90.60966	-369.36942	90.60966
15300.00000	91.40652	-370.45745	91.40652
15350.00000	91.92995	-372.29401	91.92995
15400.00000	92.42455	-371.04214	92.42455
15450.00000	92.87840	-371.45176	92.87840
15500.00000	93.29562	-372.01413	93.29562
15550.00000	93.83176	-373.39497	93.83176
15600.00000	94.23787	-375.04407	94.23787
15650.00000	94.92535	-375.58469	94.92535
15700.00000	95.31773	-378.43241	95.31773
15750.00000	96.03772	-379.59811	96.03772
15800.00000	96.62040	-380.57181	96.62040
15850.00000	97.02888	-382.03203	97.02888
15900.00000	97.35974	-385.47460	97.35974
15950.00000	97.89285	-388.22380	97.89285
16000.00000	98.41521	-391.12299	98.41521
16050.00000	98.93059	-393.33308	98.93059
16100.00000	99.24411	-396.73568	99.24411
16150.00000	99.63519	-399.24433	99.63519
16200.00000	99.99197	-403.13602	99.99197
16250.00000	100.34983	-406.18451	100.34983
16300.00000	100.82820	-409.76184	100.82820
16350.00000	101.13267	-413.10026	101.13267
16400.00000	101.48232	-416.17626	101.48232
16450.00000	101.73035	-419.39615	101.73035
16500.00000	101.97624	-422.67045	101.97624
16550.00000	102.27386	-426.81990	102.27386
16600.00000	102.48544	-430.21756	102.48544
16650.00000	102.67349	-433.47469	102.67349
16700.00000	102.93086	-436.61805	102.93086
16750.00000	103.04113	-440.35803	103.04113
16800.00000	103.24053	-443.76735	103.24053
16850.00000	103.43659	-447.00576	103.43659
16900.00000	103.57754	-450.47530	103.57754
16950.00000	103.74371	-453.79152	103.74371
17000.00000	103.80774	-457.20762	103.80774
17050.00000	104.00848	-459.53624	104.00848
17100.00000	104.03100	-461.58729	104.03100
17150.00000	104.27083	-465.64482	104.27083
17200.00000	104.37424	-468.54457	104.37424
17250.00000	104.48764	-472.20458	104.48764
17300.00000	104.70148	-475.10028	104.70148
17350.00000	104.65807	-477.73772	104.65807
17400.00000	104.87372	-480.84061	104.87372
17450.00000	104.89509	-484.32726	104.89509
17500.00000	105.05297	-487.51439	105.05297
17550.00000	105.13939	-490.60593	105.13939
17600.00000	105.37328	-493.25775	105.37328
17650.00000	105.42532	-497.14734	105.42532
17700.00000	105.47639	-500.10704	105.47639
17750.00000	105.69948	-502.67880	105.69948
17800.00000	105.68437	-506.51891	105.68437
17850.00000	105.81647	-509.14808	105.81647
17900.00000	105.88546	-512.40039	105.88546
17950.00000	106.00966	-515.91402	106.00966
18000.00000	106.09887	-519.48367	106.09887
18050.00000	106.30472	-522.27985	106.30472
18100.00000	106.30717	-526.07325	106.30717
18150.00000	106.38267	-528.86282	106.38267
18200.00000	106.39384	-532.71569	106.39384
18250.00000	106.53414	-535.29134	106.53414
18300.00000	106.63398	-538.74868	106.63398
18350.00000	106.67990	-542.09555	106.67990
18400.00000	106.67406	-545.85466	106.67406
18450.00000	106.66218	-550.42935	106.66218
18500.00000	106.70801	-553.65870	106.70801
18550.00000	106.72696	-556.68382	106.72696
18600.00000	106.81549	-560.70108	106.81549
18650.00000	106.65125	-563.89227	106.65125
18700.00000	106.62332	-567.70040	106.62332
18750.00000	106.66506	-570.95545	106.66506
18800.00000	106.71149	-573.97107	106.71149
18850.00000	106.54465	-577.50507	106.54465
18900.00000	106.46406	-580.72671	106.46406
18950.00000	106.43692	-584.42167	106.43692
19000.00000	106.22540	-587.28925	106.22540
19050.00000	106.29376	-590.37769	106.29376
19100.00000	106.14939	-593.36520	106.14939
19150.00000	106.22674	-596.33862	106.22674
19200.00000	106.11001	-598.99453	106.11001
19250.00000	106.00562	-602.96359	106.00562
19300.00000	105.86896	-605.24590	105.86896
19350.00000	105.80769	-608.31647	105.80769
19400.00000	105.68495	-610.85825	105.68495
19450.00000	105.70193	-613.21699	105.70193
19500.00000	105.52454	-616.78357	105.52454
19550.00000	105.48915	-619.50352	105.48915
19600.00000	105.48389	-622.69114	105.48389
19650.00000	105.32099	-625.00317	105.32099
19700.00000	105.15455	-627.87020	105.15455
19750.00000	105.05296	-629.92028	105.05296
19800.00000	105.06394	-633.49615	105.06394
19850.00000	104.99834	-635.76964	104.99834
19900.00000	104.86381	-639.22263	104.86381
19950.00000	104.74298	-641.73853	104.74298
20000.00000	104.67107	-644.41492	104.67107
20050.00000	104.57695	-647.01704	104.57695
20100.00000	104.38970	-649.79010	104.38970
20150.00000	104.34636	-651.57888	104.34636
20200.00000	104.20043	-654.79136	104.20043
20250.00000	104.02146	-657.13153	104.02146
20300.00000	103.80177	-659.71697	103.80177
20350.00000	103.74700	-662.34773	103.74700
20400.00000	103.54342	-663.79833	103.54342
20450.00000	103.29638	-666.14369	103.29638
20500.00000	103.21415	-668.60111	103.21415
20550.00000	102.81621	-669.84019	102.81621
20600.00000	102.74925	-671.43095	102.74925
20650.00000	102.59338	-673.19352	102.59338
20700.00000	102.38257	-674.56812	102.38257
20750.00000	102.28351	-675.87906	102.28351
20800.00000	102.09952	-676.66802	102.09952
20850.00000	102.04237	-677.76530	102.04237
20900.00000	101.89159	-678.63762	101.89159
20950.00000	101.81335	-678.90730	101.81335
21000.00000	101.78297	-679.53079	101.78297
21050.00000	101.91051	-679.78341	101.91051
21100.00000	101.93178	-680.19047	101.93178
21150.00000	102.09426	-681.03975	102.09426
21200.00000	102.26875	-681.69979	102.26875
21250.00000	102.41753	-683.93156	102.41753
21300.00000	102.64304	-684.84909	102.64304
21350.00000	102.80379	-686.26472	102.80379
21400.00000	102.96413	-688.62578	102.96413
21450.00000	103.17090	-690.88980	103.17090
21500.00000	103.32119	-693.50399	103.32119
21550.00000	103.35119	-695.76700	103.35119
21600.00000	103.52417	-698.45954	103.52417
21650.00000	103.58997	-701.42056	103.58997
21700.00000	103.62821	-703.71611	103.62821
21750.00000	103.66885	-706.58951	103.66885
21800.00000	103.69511	-709.33792	103.69511
21850.00000	103.63453	-711.85274	103.63453
21900.00000	103.65173	-714.53375	103.65173
21950.00000	103.62638	-716.61234	103.62638
22000.00000	103.67461	-719.09126	103.67461
22050.00000	103.63241	-721.11661	103.63241
22100.00000	103.56927	-723.44580	103.56927
22150.00000	103.52914	-725.66376	103.52914
22200.00000	103.57554	-727.69987	103.57554
22250.00000	103.48989	-729.53974	103.48989
22300.00000	103.37950	-731.84810	103.37950
22350.00000	103.52218	-734.25235	103.52218
22400.00000	103.52968	-736.16211	103.52968
22450.00000	103.44390	-738.12326	103.44390
22500.00000	103.42818	-739.28426	103.42818
22550.00000	103.44524	-741.69456	103.44524
22600.00000	103.43156	-744.55432	103.43156
22650.00000	103.43664	-746.63072	103.43664
22700.00000	103.45538	-748.53104	103.45538
22750.00000	103.41158	-748.98016	103.41158
22800.00000	103.41150	-753.30424	103.41150
22850.00000	103.55267	-755.89321	103.55267
22900.00000	103.49391	-756.57588	103.49391
22950.00000	103.60328	-759.07592	103.60328
23000.00000	103.57372	-760.47969	103.57372
23050.00000	103.49726	-763.97344	103.49726
23100.00000	103.61771	-765.34084	103.61771
23150.00000	103.47007	-767.07836	103.47007
23200.00000	103.68166	-770.36840	103.68166
23250.00000	103.53368	-773.41454	103.53368
23300.00000	103.78788	-776.02009	103.78788
23350.00000	103.54595	-778.28881	103.54595
23400.00000	103.62492	-780.59811	103.62492
23450.00000	103.66690	-783.73039	103.66690
23500.00000	103.55587	-785.42871	103.55587
23550.00000	103.49653	-786.45740	103.49653
23600.00000	103.45674	-790.98427	103.45674
23650.00000	103.52112	-793.07364	103.52112
23700.00000	103.62724	-797.97249	103.62724
23750.00000	103.56529	-799.54883	103.56529
23800.00000	103.26668	-801.28368	103.26668
23850.00000	103.39747	-803.81319	103.39747
23900.00000	103.73533	-806.63336	103.73533
23950.00000	103.34471	-810.59436	103.34471
24000.00000	103.18492	-814.13789	103.18492
24050.00000	103.22782	-815.52837	103.22782
24100.00000	103.43336	-820.30536	103.43336
24150.00000	103.32661	-822.86227	103.32661
24200.00000	103.18151	-827.52283	103.18151
24250.00000	102.73584	-828.17471	102.73584
24300.00000	102.83180	-831.56627	102.83180
24350.00000	102.69367	-835.19438	102.69367
24400.00000	102.41982	-838.63933	102.41982
24450.00000	101.99814	-841.01376	101.99814
24500.00000	102.28252	-483.38222	102.28252
24550.00000	101.89140	-488.37830	101.89140
24600.00000	102.21126	-129.50636	102.21126
24650.00000	101.60502	226.03735	101.60502
24700.00000	101.31939	585.86934	101.31939
24750.00000	101.14835	940.83891	101.14835
24800.00000	100.88626	1298.77736	100.88626
24850.00000	100.25684	1658.09080	100.25684
24900.00000	100.25528	2017.31281	100.25528
24950.00000	99.72525	2374.29168	99.72525
25000.00000	99.72478	2367.41896	99.72478
25050.00000	99.40300	2370.33445	99.40300
25100.00000	98.58498	2365.48292	98.58498
25150.00000	99.05267	2365.12987	99.05267
25200.00000	98.48924	2362.51055	98.48924
25250.00000	98.69320	2364.16308	98.69320
25300.00000	98.44630	2362.64885	98.44630
25350.00000	98.22360	2357.76964	98.22360
25400.00000	98.08541	2355.33100	98.08541
25450.00000	98.06845	2355.61135	98.06845
25500.00000	97.81478	2355.30276	97.81478
25550.00000	97.68923	2352.53647	97.68923
25600.00000	97.62146	2353.08663	97.62146
25650.00000	97.59704	2352.08128	97.59704
25700.00000	97.49786	2350.46652	97.49786
25750.00000	97.27732	2349.38993	97.27732
25800.00000	97.26278	2347.26233	97.26278
25850.00000	97.18047	2346.36794	97.18047
25900.00000	97.35715	2343.30183	97.35715
25950.00000	96.94887	2347.17127	96.94887
26000.00000	97.00911	2342.71545	97.00911
26050.00000	97.09455	2340.97937	97.09455
26100.00000	97.14363	2340.17788	97.14363
26150.00000	97.04938	2339.07042	97.04938
26200.00000	97.15024	2337.53042	97.15024
26250.00000	97.15136	2336.34528	97.15136
26300.00000	97.31514	2333.35180	97.31514
26350.00000	96.87953	2332.50568	96.87953
26400.00000	96.90922	2330.37040	96.90922
26450.00000	97.28500	2327.95871	97.28500
26500.00000	97.09001	2325.85134	97.09001
26550.00000	96.99434	2321.31600	96.99434
26600.00000	96.92324	2320.79841	96.92324
26650.00000	97.03142	2321.24853	97.03142
26700.00000	97.07925	2318.43887	97.07925
26750.00000	96.79886	2316.72660	96.79886
26800.00000	96.73114	2312.58438	96.73114
26850.00000	97.03269	2311.64934	97.03269
26900.00000	97.06531	2311.22949	97.06531
26950.00000	97.10659	2307.77587	97.10659
27000.00000	96.65335	2307.84577	96.65335
27050.00000	96.88811	2304.78241	96.88811
27100.00000	96.60975	2304.36777	96.60975
27150.00000	96.40202	2301.90398	96.40202
27200.00000	96.61538	2301.25531	96.61538
27250.00000	96.13928	2299.68355	96.13928
27300.00000	95.88175	2296.84194	95.88175
27350.00000	96.15832	2297.66567	96.15832
27400.00000	95.90158	2295.54333	95.90158
27450.00000	95.86394	2294.69765	95.86394
27500.00000	95.83402	2293.34652	95.83402
27550.00000	95.81944	2291.09405	95.81944
27600.00000	96.09607	2288.96202	96.09607
27650.00000	95.51664	2291.50344	95.51664
27700.00000	95.57169	2286.51500	95.57169
27750.00000	95.69219	2285.67047	95.69219
27800.00000	95.81467	2283.13190	95.81467
27850.00000	95.83869	2286.38266	95.83869
27900.00000	95.38265	2284.20420	95.38265
27950.00000	94.93096	2281.51819	94.93096
28000.00000	95.10041	2282.26890	95.10041
28050.00000	95.68620	2279.83434	95.68620
28100.00000	95.12431	2279.23278	95.12431
28150.00000	95.26095	2279.35320	95.26095
28200.00000	95.45286	2275.37996	95.45286
28250.00000	94.97403	2275.14351	94.97403
28300.00000	94.87571	2274.81248	94.87571
28350.00000	95.20249	2275.15582	95.20249
28400.00000	95.02227	2274.53320	95.02227
28450.00000	95.69428	2272.41943	95.69428
28500.00000	95.16934	2273.17150	95.16934
28550.00000	95.28035	2274.94621	95.28035
28600.00000	95.34483	2272.81863	95.34483
28650.00000	95.72214	2268.50306	95.72214
28700.00000	95.49941	2271.34930	95.49941
28750.00000	96.27801	2270.81939	96.27801
28800.00000	96.20621	2270.25147	96.20621
28850.00000	95.58967	2265.61502	95.58967
28900.00000	95.80681	2266.25982	95.80681
28950.00000	95.74571	2266.89913	95.74571
29000.00000	96.17932	2266.11632	96.17932
29050.00000	95.99082	2265.82530	95.99082
29100.00000	96.05346	2266.68156	96.05346
29150.00000	95.93094	2265.90494	95.93094
29200.00000	96.02173	2263.37475	96.02173
29250.00000	96.34414	2263.55948	96.34414
29300.00000	96.31188	2261.71826	96.31188
29350.00000	96.71398	2260.01173	96.71398
29400.00000	96.73307	2260.36074	96.73307
29450.00000	96.80217	2259.18214	96.80217
29500.00000	97.23737	2259.44022	97.23737
29550.00000	97.17255	2255.00186	97.17255
29600.00000	97.14416	2256.19853	97.14416
29650.00000	97.28732	2254.07620	97.28732
29700.00000	97.32885	2254.92728	97.32885
29750.00000	97.49434	2255.41511	97.49434
29800.00000	97.46387	2253.25009	97.46387
29850.00000	97.63355	2250.85399	97.63355
29900.00000	98.11201	2251.81916	98.11201
29950.00000	97.39651	2250.61107	97.39651
30000.00000	97.98289	2251.24571	97.98289
30050.00000	98.14230	2249.07667	98.14230
30100.00000	98.01315	2249.85161	98.01315
30150.00000	98.26243	2245.54985	98.26243
30200.00000	98.35902	2244.54787	98.35902
30250.00000	98.30349	2244.51922	98.30349
30300.00000	98.19570	2244.97699	98.19570
30350.00000	98.42235	2245.83640	98.42235
30400.00000	98.54061	2242.83370	98.54061
30450.00000	98.37278	2242.46045	98.37278
30500.00000	98.53062	2241.34061	98.53062
30550.00000	98.59042	2242.86300	98.59042
30600.00000	98.61817	2242.86299	98.61817
30650.00000	98.80575	2242.75025	98.80575
30700.00000	98.94834	2241.37176	98.94834
30750.00000	98.89513	2242.86918	98.89513
30800.00000	99.12612	2243.16492	99.12612
30850.00000	99.39526	2244.55956	99.39526
30900.00000	99.36789	2245.70998	99.36789
30950.00000	99.86055	2245.36833	99.86055
31000.00000	100.22481	2244.65912	100.22481
31050.00000	100.65318	2245.37327	100.65318
31100.00000	101.18433	2246.09984	101.18433
31150.00000	101.24551	2245.35939	101.24551
31200.00000	102.12206	2244.78989	102.12206
31250.00000	102.49079	2243.96617	102.49079
31300.00000	103.00717	2242.48768	103.00717
31350.00000	103.64745	2241.23591	103.64745
31400.00000	104.02638	2238.96993	104.02638
31450.00000	104.58283	2237.01964	104.58283
31500.00000	105.05242	2233.53823	105.05242
31550.00000	105.56371	2231.64481	105.56371
31600.00000	106.21365	2227.47523	106.21365
31650.00000	106.59999	2224.53448	106.59999
31700.00000	107.09677	2221.66075	107.09677
31750.00000	107.53029	2219.15959	107.53029
31800.00000	107.91919	2214.20368	107.91919
31850.00000	108.35249	2209.97885	108.35249
31900.00000	108.51181	2206.40556	108.51181
31950.00000	108.95400	2202.26140	108.95400
32000.00000	109.25037	2198.21577	109.25037
32050.00000	109.55583	2194.74600	109.55583
32100.00000	109.69972	2189.57805	109.69972
32150.00000	110.06481	2186.41720	110.06481
32200.00000	110.30332	2181.60476	110.30332
32250.00000	110.49600	2176.47212	110.49600
32300.00000	110.64230	2173.35920	110.64230
32350.00000	110.76404	2169.35503	110.76404
32400.00000	111.00517	2165.39901	111.00517
32450.00000	111.06054	2160.90600	111.06054
32500.00000	111.33129	2157.48389	111.33129
32550.00000	111.53788	2152.62649	111.53788
32600.00000	111.63016	2149.20418	111.63016
32650.00000	111.81575	2144.91010	111.81575
32700.00000	111.81337	2140.45037	111.81337
32750.00000	111.90687	2136.36146	111.90687
32800.00000	112.21211	2133.14806	112.21211
32850.00000	112.37328	2128.45611	112.37328
32900.00000	112.37437	2123.62196	112.37437
32950.00000	112.32971	2118.96009	112.32971
33000.00000	112.44790	2116.98061	112.44790
33050.00000	112.51055	2111.02964	112.51055
33100.00000	112.64410	2107.63584	112.64410
33150.00000	112.70862	2104.00473	112.70862
33200.00000	112.83779	2100.88948	112.83779
33250.00000	112.78676	2096.76414	112.78676
33300.00000	112.81011	2091.48570	112.81011
33350.00000	112.75010	2086.97294	112.75010
33400.00000	112.76767	2084.84672	112.76767
33450.00000	112.84137	2079.58286	112.84137
33500.00000	112.96424	2077.14652	112.96424
33550.00000	112.65549	2071.24815	112.65549
33600.00000	112.92330	2068.01990	112.92330
33650.00000	112.73358	2063.66522	112.73358
33700.00000	112.65420	2059.95414	112.65420
33750.00000	112.54304	2055.88191	112.54304
33800.00000	112.49700	2052.28407	112.49700
33850.00000	112.06884	2048.62984	112.06884
33900.00000	112.21518	2044.76974	112.21518
33950.00000	112.09902	2042.24740	112.09902
34000.00000	111.93197	2038.05485	111.93197
34050.00000	111.70963	2034.88784	111.70963
34100.00000	111.41662	2032.42353	111.41662
34150.00000	111.40551	2028.01918	111.40551
34200.00000	111.25606	2026.85537	111.25606
34250.00000	111.10602	2023.26892	111.10602
34300.00000	110.86788	2020.11358	110.86788
34350.00000	110.82906	2017.43847	110.82906
34400.00000	110.36089	2016.19876	110.36089
34450.00000	110.36328	2011.72056	110.36328
34500.00000	110.13188	2009.87881	110.13188
34550.00000	110.01246	2007.89007	110.01246
34600.00000	109.39729	2005.20455	109.39729
34650.00000	109.70498	2005.85433	109.70498
34700.00000	109.00746	2005.61593	109.00746
34750.00000	109.15830	2000.21251	109.15830
34800.00000	109.17214	2001.58990	109.17214
34850.00000	109.10691	2002.01586	109.10691
34900.00000	109.30385	1998.19704	109.30385
34950.00000	109.03784	1998.39424	109.03784
35000.00000	108.93842	1995.66005	108.93842
35050.00000	109.13779	1996.30350	109.13779
35100.00000	109.18054	1994.42456	109.18054
35150.00000	108.89499	1994.19719	108.89499
35200.00000	109.05291	1990.77056	109.05291
35250.00000	108.95119	1989.46998	108.95119
35300.00000	109.11606	1987.17457	109.11606
35350.00000	109.20713	1986.28127	109.20713
35400.00000	109.07037	1984.83205	109.07037
35450.00000	109.35632	1983.37319	109.35632
35500.00000	109.00424	1982.62065	109.00424
35550.00000	109.39913	1982.04274	109.39913
35600.00000	109.33351	1979.58120	109.33351
35650.00000	109.43601	1979.16005	109.43601
35700.00000	109.55442	1976.89322	109.55442
35750.00000	109.57916	1976.47931	109.57916
35800.00000	109.72933	1975.85212	109.72933
35850.00000	109.84183	1973.21730	109.84183
35900.00000	110.03279	1971.34050	110.03279
35950.00000	110.07456	1969.44472	110.07456
36000.00000	110.05944	1969.18938	110.05944
36050.00000	110.41828	1965.95685	110.41828
36100.00000	110.56811	1964.23590	110.56811
36150.00000	110.54672	1962.36162	110.54672
36200.00000	110.48548	1961.09625	110.48548
36250.00000	110.65664	1959.46250	110.65664
36300.00000	110.61493	1956.94837	110.61493
36350.00000	110.85598	1956.10438	110.85598
36400.00000	110.94049	1954.85832	110.94049
36450.00000	110.82756	1952.40768	110.82756
36500.00000	111.20627	1951.35206	111.20627
36550.00000	111.15159	1948.00353	111.15159
36600.00000	111.19972	1947.12843	111.19972
36650.00000	111.53671	1945.82924	111.53671
36700.00000	111.62363	1942.92152	111.62363
36750.00000	111.66939	1939.71478	111.66939
36800.00000	111.51388	1938.66762	111.51388
36850.00000	111.47926	1936.37615	111.47926
36900.00000	111.76547	1933.86688	111.76547
36950.00000	111.72031	1931.27579	111.72031
37000.00000	111.54997	1930.51247	111.54997
37050.00000	111.51161	1929.66639	111.51161
37100.00000	111.61991	1927.56456	111.61991
37150.00000	111.80542	1924.47125	111.80542
37200.00000	112.13367	1924.94718	112.13367
37250.00000	111.84066	1923.35935	111.84066
37300.00000	112.16576	1920.17599	112.16576
37350.00000	112.39825	1918.44124	112.39825
37400.00000	112.35975	1917.12823	112.35975
37450.00000	112.46100	1914.29843	112.46100
37500.00000	112.82717	1912.41915	112.82717
37550.00000	112.62482	1910.72283	112.62482
37600.00000	112.93958	1908.18309	112.93958
37650.00000	113.09430	1907.69063	113.09430
37700.00000	113.35913	1904.97786	113.35913
37750.00000	113.62546	1904.03740	113.62546
37800.00000	113.80633	1900.20981	113.80633
37850.00000	113.89589	1897.48505	113.89589
37900.00000	114.10825	1894.81539	114.10825
37950.00000	114.45727	1893.35507	114.45727
38000.00000	114.64669	1890.69396	114.64669
38050.00000	114.98593	1887.28101	114.98593
38100.00000	115.33489	1883.68190	115.33489
38150.00000	115.48080	1879.92446	115.48080
38200.00000	115.86157	1876.95140	115.86157
38250.00000	116.07639	1873.46936	116.07639
38300.00000	116.44825	1868.83779	116.44825
38350.00000	116.50688	1865.43277	116.50688
38400.00000	116.81413	1861.61593	116.81413
38450.00000	117.08984	1856.98481	117.08984
38500.00000	117.40175	1852.93227	117.40175
38550.00000	117.55886	1848.52603	117.55886
38600.00000	117.78115	1844.01303	117.78115
38650.00000	117.94600	1839.49364	117.94600
38700.00000	118.11564	1834.49705	118.11564
38750.00000	118.35071	1830.00567	118.35071
38800.00000	118.50528	1825.61434	118.50528
38850.00000	118.62311	1819.86200	118.62311
38900.00000	118.81326	1815.29672	118.81326
38950.00000	118.83338	1810.29900	118.83338
39000.00000	118.93716	1805.03431	118.93716
39050.00000	119.04771	1800.15244	119.04771
39100.00000	119.01656	1795.00910	119.01656
39150.00000	119.03270	1790.06851	119.03270
39200.00000	119.06998	1785.20116	119.06998
39250.00000	119.05425	1779.88524	119.05425
39300.00000	119.09269	1774.91038	119.09269
39350.00000	119.02510	1770.62731	119.02510
39400.00000	118.94595	1765.11507	118.94595
39450.00000	118.80346	1760.39066	118.80346
39500.00000	118.75295	1755.44669	118.75295
39550.00000	118.59795	1750.15128	118.59795
39600.00000	118.38533	1745.43879	118.38533
39650.00000	118.22479	1741.51518	118.22479
39700.00000	117.99532	1736.91520	117.99532
39750.00000	117.83094	1732.31650	117.83094
39800.00000	117.57351	1728.13632	117.57351
39850.00000	117.33862	1723.77988	117.33862
39900.00000	117.07733	1720.11620	117.07733
39950.00000	116.79917	1716.44521	116.79917
40000.00000	116.35839	1714.08481	116.35839
40050.00000	116.19560	1709.58709	116.19560
40100.00000	115.92586	1706.28848	115.92586
40150.00000	115.63075	1702.95739	115.63075
40200.00000	115.34963	1699.75573	115.34963
40250.00000	115.09391	1696.99836	115.09391
40300.00000	114.87006	1694.71189	114.87006
40350.00000	114.42551	1692.43236	114.42551
40400.00000	114.06796	1690.32949	114.06796
40450.00000	113.83310	1687.94672	113.83310
40500.00000	113.68303	1686.70142	113.68303
40550.00000	113.37117	1683.59262	113.37117
40600.00000	113.06711	1682.50348	113.06711
40650.00000	112.74774	1681.19594	112.74774
40700.00000	112.39422	1680.53683	112.39422
40750.00000	112.36247	1678.80200	112.36247
40800.00000	112.17524	1677.47421	112.17524
40850.00000	111.86642	1677.04540	111.86642
40900.00000	111.70055	1676.12999	111.70055
40950.00000	111.44661	1675.60093	111.44661
41000.00000	111.15726	1675.12868	111.15726
41050.00000	111.17919	1675.26632	111.17919
41100.00000	111.06088	1674.19615	111.06088
41150.00000	111.12915	1675.32650	111.12915
41200.00000	111.09080	1674.35477	111.09080
41250.00000	110.95256	1672.19253	110.95256
41300.00000	110.65052	1673.35148	110.65052
41350.00000	110.85475	1674.30225	110.85475
41400.00000	110.79932	1669.90824	110.79932
41450.00000	110.90453	1672.13152	110.90453
41500.00000	110.83410	1671.01446	110.83410
41550.00000	110.73823	1674.84484	110.73823
41600.00000	110.58481	1672.13539	110.58481
41650.00000	110.91033	1670.75182	110.91033
41700.00000	111.20177	1671.27568	111.20177
41750.00000	110.98211	1675.28657	110.98211
41800.00000	110.35356	1669.03048	110.35356
41850.00000	110.18716	1673.45818	110.18716
41900.00000	110.39847	1670.62559	110.39847
41950.00000	111.51945	1674.53381	111.51945
42000.00000	110.77786	1669.44862	110.77786
42050.00000	109.62126	1668.48334	109.62126
42100.00000	110.40499	1668.75255	110.40499
42150.00000	110.13891	1663.29785	110.13891
42200.00000	110.04941	1669.82747	110.04941
42250.00000	110.17166	1667.50200	110.17166
42300.00000	109.10620	1663.83101	109.10620
42350.00000	109.96105	1663.59309	109.96105
42400.00000	109.89716	1664.26498	109.89716
42450.00000	110.20853	1658.49854	110.20853
42500.00000	109.88446	1657.63411	109.88446
42550.00000	109.87893	1667.47933	109.87893
42600.00000	109.83546	1657.81946	109.83546
42650.00000	109.41086	1657.29837	109.41086
42700.00000	109.27301	1654.56348	109.27301
42750.00000	110.42600	1651.97536	110.42600
42800.00000	109.74035	1645.65272	109.74035
42850.00000	109.39833	1643.06840	109.39833
42900.00000	110.51309	1647.34712	110.51309
42950.00000	109.65690	1640.75526	109.65690
43000.00000	110.25064	1631.49515	110.25064
43050.00000	109.59272	1628.29572	109.59272
43100.00000	110.12514	1630.25267	110.12514
43150.00000	108.93436	1626.05201	108.93436
43200.00000	109.75612	1620.32294	109.75612
43250.00000	110.07075	1616.25309	110.07075
43300.00000	109.77427	1613.82589	109.77427
43350.00000	110.73106	1607.95440	110.73106
43400.00000	110.30696	1604.09935	110.30696
43450.00000	110.91490	1602.42588	110.91490
43500.00000	109.66297	1594.92257	109.66297
43550.00000	110.10111	1590.99227	110.10111
43600.00000	110.21890	1585.51607	110.21890
43650.00000	110.63127	1577.50432	110.63127
43700.00000	110.21679	1577.49370	110.21679
43750.00000	109.75708	1576.04393	109.75708
43800.00000	110.29803	1567.64420	110.29803
43850.00000	111.06759	1561.85697	111.06759
43900.00000	110.86540	1559.50126	110.86540
43950.00000	111.07040	1553.72158	111.07040
44000.00000	110.54864	1548.86938	110.54864
44050.00000	110.96615	1545.02121	110.96615
44100.00000	110.95096	1532.19170	110.95096
44150.00000	110.66148	1534.63885	110.66148
44200.00000	110.61936	1532.45118	110.61936
44250.00000	110.98686	1525.23895	110.98686
44300.00000	111.22848	1518.35889	111.22848
44350.00000	110.17610	1513.36152	110.17610
44400.00000	110.91036	1510.33702	110.91036
44450.00000	111.13028	1507.86264	111.13028
44500.00000	110.59310	1502.58284	110.59310
44550.00000	112.09303	1493.49487	112.09303
44600.00000	110.86598	1494.53571	110.86598
44650.00000	110.33873	1485.01773	110.33873
44700.00000	110.30036	1480.85661	110.30036
44750.00000	110.27663	1479.75892	110.27663
44800.00000	111.03375	1473.30050	111.03375
44850.00000	110.35059	1466.56755	110.35059
44900.00000	109.91440	1466.95868	109.91440
44950.00000	110.06002	1459.84560	110.06002
45000.00000	109.88676	1450.88425	109.88676
45050.00000	108.67374	1457.09009	108.67374
45100.00000	109.03823	1448.04216	109.03823
45150.00000	108.84197	1438.16950	108.84197
45200.00000	108.54496	1439.56783	108.54496
45250.00000	108.25619	1435.59317	108.25619
45300.00000	108.23630	1429.49297	108.23630
45350.00000	107.56082	1422.73500	107.56082
45400.00000	107.34959	1422.59914	107.34959
45450.00000	107.53846	1416.09394	107.53846
45500.00000	105.98229	1411.34865	105.98229
45550.00000	106.04904	1414.16607	106.04904
45600.00000	106.82991	1405.12438	106.82991
45650.00000	105.13578	1401.17605	105.13578
45700.00000	104.71179	1397.30912	104.71179
45750.00000	105.59396	1401.39331	105.59396
45800.00000	104.20129	1391.79196	104.20129
45850.00000	103.90670	1391.91217	103.90670
45900.00000	103.97068	1388.46619	103.97068
45950.00000	102.95056	1391.88198	102.95056
46000.00000	101.47954	1373.15754	101.47954
46050.00000	101.82724	1374.78415	101.82724
46100.00000	100.38828	1377.84827	100.38828
46150.00000	100.62857	1379.10497	100.62857
46200.00000	98.41451	1370.11377	98.41451
46250.00000	99.61352	1372.03828	99.61352
46300.00000	98.26681	1370.14699	98.26681
46350.00000	99.47853	1366.45256	99.47853
46400.00000	97.62030	1364.88486	97.62030
46450.00000	96.06427	1365.60678	96.06427
46500.00000	97.20846	1365.21115	97.20846
46550.00000	96.75132	1373.06390	96.75132
46600.00000	97.27236	1374.67646	97.27236
46650.00000	93.94757	1371.39586	93.94757
46700.00000	93.93246	1378.85774	93.93246
46750.00000	95.10951	1385.81262	95.10951
46800.00000	92.88997	1375.62111	92.88997
46850.00000	94.79353	1034.32560	94.79353
46900.00000	94.63169	1023.32639	94.63169
46950.00000	95.43232	1026.19163	95.43232
47000.00000	94.76993	1030.96834	94.76993
47050.00000	96.89812	1022.53611	96.89812
47100.00000	95.54909	1023.41557	95.54909
47150.00000	96.55337	1022.73824	96.55337
47200.00000	95.36588	1023.14422	95.36588
47250.00000	97.09144	1021.43295	97.09144
47300.00000	96.21967	1013.96751	96.21967
47350.00000	96.41823	662.01242	96.41823
47400.00000	95.23122	658.42581	95.23122
47450.00000	96.78351	658.13514	96.78351
47500.00000	95.15380	647.38288	95.15380
47550.00000	94.26116	297.44433	94.26116
47600.00000	95.34105	290.48904	95.34105
47650.00000	96.62776	284.97042	96.62776
47700.00000	95.76448	286.45630	95.76448
47750.00000	93.57345	287.61218	93.57345
47800.00000	95.24041	269.96161	95.24041
47850.00000	95.25490	-77.45056	95.25490
47900.00000	95.06873	-426.67451	95.06873
47950.00000	94.40288	-431.97890	94.40288
48000.00000	94.45059	-426.57388	94.45059
48050.00000	96.00813	-434.83982	96.00813
48100.00000	94.28071	-441.35961	94.28071
48150.00000	94.77589	-793.03972	94.77589
48200.00000	95.10936	-793.64680	95.10936
48250.00000	95.00758	-799.19228	95.00758
48300.00000	95.01405	-799.13533	95.01405
48350.00000	95.18819	-803.89041	95.18819
48400.00000	95.56984	-1151.49675	95.56984
48450.00000	96.54181	-1156.05467	96.54181
48500.00000	95.81850	-1161.62044	95.81850
48550.00000	94.57049	-1170.41454	94.57049
48600.00000	96.68561	-1521.29300	96.68561
48650.00000	96.11883	-1521.91366	96.11883
48700.00000	97.72382	-1534.80117	97.72382
48750.00000	95.93942	-1887.99429	95.93942
48800.00000	96.31974	-1894.88478	96.31974
48850.00000	96.95115	-1898.43031	96.95115
48900.00000	95.66216	-2257.10680	95.66216
48950.00000	96.30953	-2271.01674	96.30953
49000.00000	96.20450	-2275.94634	96.20450
49050.00000	95.86716	-2276.00597	95.86716
49100.00000	95.49185	-2635.39400	95.49185
49150.00000	96.94233	-2993.03961	96.94233
49200.00000	95.43977	-3008.29917	95.43977
49250.00000	95.55059	-3358.82332	95.55059
49300.00000	95.75667	-3012.56573	95.75667
49350.00000	94.18669	-2999.42084	94.18669
49400.00000	93.60981	-2657.15364	93.60981
49450.00000	92.60957	-2295.35265	92.60957
49500.00000	92.86301	-1942.63585	92.86301
49550.00000	93.50752	-1601.29625	93.50752
49600.00000	89.59181	-1581.30230	89.59181
49650.00000	91.44637	-1584.04410	91.44637
49700.00000	90.40265	-1260.57499	90.40265
49750.00000	90.77228	-1247.16733	90.77228
49800.00000	86.88481	-1227.12988	86.88481
49850.00000	84.80501	-1230.42116	84.80501
49900.00000	83.76877	-891.13987	83.76877
49950.00000	82.63571	-541.03001	82.63571
