---ACOUSTIC CALIBRATION---
Filename: C:\Data\AZH DATA\AZH21\RightPrimary.calib
Date: 8/27/2019 12:04:08 PM
Format: 4
Probe Tube Correction File: C:\Data\Probe Tube Calibrations\50_ProbeTube.calib
Experiment VIs: 850
EPL_CFTS.exe V12.0.1 (2012)
DAQmx V9.6

Attenuation (dB): 40.000000
Min Freq (Hz): 50.000000
Max Freq (Hz): 49950.000000
Freq Step (Hz): 50.000000
Sample Rate (Hz): 100000.000000
[Smoothing]
Method=None
MA.Iterations=0
MA.Length=0
Loess.Length=0
Loess.Type=Linear
Loess.Robust=FALSE


Freq(Hz)	Mag(dB)	Phase(deg)	Unsmoothed(dB)

50.00000	103.42419	642.94041	103.42419
100.00000	86.31625	579.73735	86.31625
150.00000	80.82199	494.55458	80.82199
200.00000	81.05650	475.57806	81.05650
250.00000	91.21554	472.68264	91.21554
300.00000	90.48742	437.15570	90.48742
350.00000	82.93474	396.83080	82.93474
400.00000	86.43008	380.04810	86.43008
450.00000	85.60290	348.67545	85.60290
500.00000	87.95704	364.50991	87.95704
550.00000	94.28723	377.57286	94.28723
600.00000	95.68544	366.05104	95.68544
650.00000	98.18224	353.32307	98.18224
700.00000	99.97672	340.83645	99.97672
750.00000	101.85447	319.36663	101.85447
800.00000	102.42125	297.20803	102.42125
850.00000	102.11951	279.97586	102.11951
900.00000	100.65491	261.57804	100.65491
950.00000	98.86854	259.54785	98.86854
1000.00000	97.36163	259.50185	97.36163
1050.00000	95.13798	273.78639	95.13798
1100.00000	96.64454	296.80882	96.64454
1150.00000	99.40898	301.67696	99.40898
1200.00000	102.38769	301.35613	102.38769
1250.00000	103.94738	293.22645	103.94738
1300.00000	105.67325	288.64213	105.67325
1350.00000	107.01323	278.98878	107.01323
1400.00000	107.85664	272.50189	107.85664
1450.00000	108.98595	264.59248	108.98595
1500.00000	110.08906	257.82786	110.08906
1550.00000	110.97197	248.81392	110.97197
1600.00000	112.35985	238.67637	112.35985
1650.00000	113.34496	222.30444	113.34496
1700.00000	112.19325	212.03583	112.19325
1750.00000	111.93981	206.26461	111.93981
1800.00000	111.68405	201.95855	111.68405
1850.00000	111.86678	200.41022	111.86678
1900.00000	113.03659	196.20575	113.03659
1950.00000	113.73797	182.73372	113.73797
2000.00000	112.79699	170.28133	112.79699
2050.00000	111.38898	174.77904	111.38898
2100.00000	113.25220	174.54337	113.25220
2150.00000	113.95108	163.57300	113.95108
2200.00000	113.84972	153.30235	113.84972
2250.00000	113.25223	145.48727	113.25223
2300.00000	113.34577	140.53745	113.34577
2350.00000	113.04373	133.52665	113.04373
2400.00000	112.66005	128.02964	112.66005
2450.00000	112.47233	121.76860	112.47233
2500.00000	111.98740	116.49093	111.98740
2550.00000	111.59688	111.53404	111.59688
2600.00000	111.05673	107.31422	111.05673
2650.00000	110.51574	103.61230	110.51574
2700.00000	110.03812	99.70808	110.03812
2750.00000	109.33314	96.12724	109.33314
2800.00000	108.66077	93.80258	108.66077
2850.00000	107.98504	92.15594	107.98504
2900.00000	107.30193	90.48576	107.30193
2950.00000	106.53352	90.17380	106.53352
3000.00000	105.64759	90.42782	105.64759
3050.00000	104.76636	92.32681	104.76636
3100.00000	103.94916	95.80162	103.94916
3150.00000	102.93323	101.52443	102.93323
3200.00000	102.16035	111.87304	102.16035
3250.00000	102.38110	125.76360	102.38110
3300.00000	103.26891	137.21995	103.26891
3350.00000	104.76065	147.78898	104.76065
3400.00000	106.94457	155.42679	106.94457
3450.00000	109.26475	157.71087	109.26475
3500.00000	111.55347	155.49919	111.55347
3550.00000	113.28675	149.95982	113.28675
3600.00000	114.87124	144.44562	114.87124
3650.00000	116.22123	137.57050	116.22123
3700.00000	117.41139	130.82436	117.41139
3750.00000	118.53148	123.30058	118.53148
3800.00000	119.46352	115.17724	119.46352
3850.00000	120.17602	107.20854	120.17602
3900.00000	120.84032	100.01294	120.84032
3950.00000	121.52310	92.70507	121.52310
4000.00000	122.16050	85.10647	122.16050
4050.00000	122.78362	77.61709	122.78362
4100.00000	123.42904	69.83260	123.42904
4150.00000	124.22920	61.13979	124.22920
4200.00000	124.69456	51.07221	124.69456
4250.00000	125.11695	40.29655	125.11695
4300.00000	125.30300	29.16541	125.30300
4350.00000	125.25485	17.95470	125.25485
4400.00000	125.02616	 7.64647	125.02616
4450.00000	124.67429	-1.78681	124.67429
4500.00000	124.28180	-10.58785	124.28180
4550.00000	123.86040	-18.83637	123.86040
4600.00000	123.39845	-26.81074	123.39845
4650.00000	122.96277	-34.50403	122.96277
4700.00000	122.44606	-42.63672	122.44606
4750.00000	121.77725	-50.86427	121.77725
4800.00000	120.90856	-58.79565	120.90856
4850.00000	119.78059	-65.48041	119.78059
4900.00000	118.51015	-70.05121	118.51015
4950.00000	117.28962	-72.29922	117.28962
5000.00000	116.21321	-72.89555	116.21321
5050.00000	115.25832	-72.47625	115.25832
5100.00000	114.26551	-68.95333	114.26551
5150.00000	114.32322	-64.28189	114.32322
5200.00000	113.94125	-59.89365	113.94125
5250.00000	115.62104	-54.73270	115.62104
5300.00000	116.74961	-65.44324	116.74961
5350.00000	116.38920	-74.08210	116.38920
5400.00000	115.84711	-78.60457	115.84711
5450.00000	115.43403	-81.42517	115.43403
5500.00000	115.13563	-83.81219	115.13563
5550.00000	114.89917	-85.91605	114.89917
5600.00000	114.70655	-88.01888	114.70655
5650.00000	114.56536	-90.08568	114.56536
5700.00000	114.41874	-92.31727	114.41874
5750.00000	114.31093	-94.35463	114.31093
5800.00000	114.20308	-96.46247	114.20308
5850.00000	114.13329	-98.44868	114.13329
5900.00000	114.09979	-100.43428	114.09979
5950.00000	114.09203	-102.58031	114.09203
6000.00000	114.12719	-104.80849	114.12719
6050.00000	114.14632	-107.43401	114.14632
6100.00000	114.16240	-110.38859	114.16240
6150.00000	114.16179	-113.35968	114.16179
6200.00000	114.11517	-116.29741	114.11517
6250.00000	114.07091	-119.23553	114.07091
6300.00000	114.03925	-122.03885	114.03925
6350.00000	113.96895	-124.97634	113.96895
6400.00000	113.89882	-127.72575	113.89882
6450.00000	113.88937	-130.49086	113.88937
6500.00000	113.82429	-133.31500	113.82429
6550.00000	113.77582	-136.12688	113.77582
6600.00000	113.73506	-138.79390	113.73506
6650.00000	113.71982	-141.43954	113.71982
6700.00000	113.72140	-144.34922	113.72140
6750.00000	113.72165	-147.24049	113.72165
6800.00000	113.71844	-150.04564	113.71844
6850.00000	113.73588	-152.94585	113.73588
6900.00000	113.75493	-155.79428	113.75493
6950.00000	113.77233	-158.79420	113.77233
7000.00000	113.81029	-161.84329	113.81029
7050.00000	113.84030	-165.18114	113.84030
7100.00000	113.89246	-168.57858	113.89246
7150.00000	113.92906	-171.92604	113.92906
7200.00000	113.96716	-175.54853	113.96716
7250.00000	113.97781	-179.30176	113.97781
7300.00000	114.02170	-183.22780	114.02170
7350.00000	114.02346	-187.15673	114.02346
7400.00000	114.03263	-191.37577	114.03263
7450.00000	114.01971	-195.79651	114.01971
7500.00000	113.99584	-200.13075	113.99584
7550.00000	113.92278	-204.77349	113.92278
7600.00000	113.81102	-209.48507	113.81102
7650.00000	113.68986	-214.11183	113.68986
7700.00000	113.58249	-218.95004	113.58249
7750.00000	113.37298	-223.87519	113.37298
7800.00000	113.13908	-228.69089	113.13908
7850.00000	112.86515	-233.34890	112.86515
7900.00000	112.57960	-237.86633	112.57960
7950.00000	112.26254	-242.39169	112.26254
8000.00000	111.90645	-246.78682	111.90645
8050.00000	111.52311	-251.18995	111.52311
8100.00000	111.12622	-254.71366	111.12622
8150.00000	110.65591	-258.23341	110.65591
8200.00000	110.20958	-261.52602	110.20958
8250.00000	109.70535	-264.90819	109.70535
8300.00000	109.23639	-267.94471	109.23639
8350.00000	108.72318	-270.78783	108.72318
8400.00000	108.22971	-273.88323	108.22971
8450.00000	107.67324	-276.72636	107.67324
8500.00000	107.17096	-279.45844	107.17096
8550.00000	106.73841	-281.73120	106.73841
8600.00000	106.30855	-284.28952	106.30855
8650.00000	105.89991	-286.28396	105.89991
8700.00000	105.55263	-288.58602	105.55263
8750.00000	105.15292	-289.28863	105.15292
8800.00000	104.84794	-290.88206	104.84794
8850.00000	104.46804	-291.99319	104.46804
8900.00000	104.13925	-292.75226	104.13925
8950.00000	103.77098	-293.79217	103.77098
9000.00000	103.32741	-294.99805	103.32741
9050.00000	102.92561	-296.80123	102.92561
9100.00000	102.51860	-298.18947	102.51860
9150.00000	102.18642	-300.14811	102.18642
9200.00000	101.90777	-302.09450	101.90777
9250.00000	101.65211	-304.10053	101.65211
9300.00000	101.47367	-306.07724	101.47367
9350.00000	101.41542	-307.65961	101.41542
9400.00000	101.22949	-308.32115	101.22949
9450.00000	101.15176	-308.77188	101.15176
9500.00000	101.04066	-308.11834	101.04066
9550.00000	101.00284	-307.91076	101.00284
9600.00000	100.91682	-308.84411	100.91682
9650.00000	100.66536	-310.03578	100.66536
9700.00000	100.38602	-310.71658	100.38602
9750.00000	100.20252	-312.87809	100.20252
9800.00000	99.95563	-314.43109	99.95563
9850.00000	99.80886	-316.25793	99.80886
9900.00000	99.61176	-318.50894	99.61176
9950.00000	99.56349	-319.74057	99.56349
10000.00000	99.53637	-321.55892	99.53637
10050.00000	99.48382	-322.50936	99.48382
10100.00000	99.36824	-323.16139	99.36824
10150.00000	99.16039	-324.57802	99.16039
10200.00000	98.94589	-325.54863	98.94589
10250.00000	98.68886	-327.18790	98.68886
10300.00000	98.55382	-329.11735	98.55382
10350.00000	98.31498	-331.09967	98.31498
10400.00000	98.09195	-333.83684	98.09195
10450.00000	98.10901	-336.46449	98.10901
10500.00000	98.10581	-338.56609	98.10581
10550.00000	98.12565	-340.67172	98.12565
10600.00000	98.08052	-342.05464	98.08052
10650.00000	98.01431	-343.04223	98.01431
10700.00000	97.91366	-345.13605	97.91366
10750.00000	97.79821	-346.70597	97.79821
10800.00000	97.57144	-348.25981	97.57144
10850.00000	97.38543	-351.04681	97.38543
10900.00000	97.23506	-353.18894	97.23506
10950.00000	97.09321	-355.26738	97.09321
11000.00000	96.98437	-357.58937	96.98437
11050.00000	96.74840	-359.63517	96.74840
11100.00000	96.61091	-361.96761	96.61091
11150.00000	96.33296	-363.51248	96.33296
11200.00000	96.18141	-365.08958	96.18141
11250.00000	95.90442	-367.07562	95.90442
11300.00000	95.56497	-369.12595	95.56497
11350.00000	95.28204	-370.54151	95.28204
11400.00000	94.94406	-372.58631	94.94406
11450.00000	94.71315	-374.95657	94.71315
11500.00000	94.59679	-376.04352	94.59679
11550.00000	94.27976	-377.35428	94.27976
11600.00000	94.15798	-379.55729	94.15798
11650.00000	93.91844	-379.72021	93.91844
11700.00000	93.75401	-380.93283	93.75401
11750.00000	93.60859	-382.19489	93.60859
11800.00000	93.45014	-383.90622	93.45014
11850.00000	93.32086	-384.26420	93.32086
11900.00000	93.00451	-386.10413	93.00451
11950.00000	92.82783	-387.06502	92.82783
12000.00000	92.54740	-388.03828	92.54740
12050.00000	92.27700	-389.20437	92.27700
12100.00000	92.11432	-391.59464	92.11432
12150.00000	91.88293	-392.86659	91.88293
12200.00000	91.81940	-394.95058	91.81940
12250.00000	91.61721	-395.87225	91.61721
12300.00000	92.53976	-396.82410	92.53976
12350.00000	91.13484	-398.07465	91.13484
12400.00000	90.91692	-398.07369	90.91692
12450.00000	90.62279	-398.84069	90.62279
12500.00000	90.28642	-400.71066	90.28642
12550.00000	90.00746	-402.09661	90.00746
12600.00000	89.77945	-403.64611	89.77945
12650.00000	89.75078	-404.62554	89.75078
12700.00000	89.50616	-404.99518	89.50616
12750.00000	89.26632	-405.98792	89.26632
12800.00000	88.97292	-406.24727	88.97292
12850.00000	88.36343	-406.54787	88.36343
12900.00000	88.15452	-407.65854	88.15452
12950.00000	87.95847	-408.62320	87.95847
13000.00000	87.68841	-409.62808	87.68841
13050.00000	87.52591	-409.38642	87.52591
13100.00000	87.24009	-409.89422	87.24009
13150.00000	87.10222	-410.29159	87.10222
13200.00000	86.81313	-408.71235	86.81313
13250.00000	86.60247	-408.65274	86.60247
13300.00000	86.16763	-406.08201	86.16763
13350.00000	85.89629	-406.94602	85.89629
13400.00000	85.80993	-407.13995	85.80993
13450.00000	85.51334	-405.76760	85.51334
13500.00000	85.60094	-404.67268	85.60094
13550.00000	85.44416	-404.31626	85.44416
13600.00000	85.42371	-401.48746	85.42371
13650.00000	85.09545	-400.17134	85.09545
13700.00000	84.59541	-399.19026	84.59541
13750.00000	84.43299	-399.72638	84.43299
13800.00000	84.27522	-401.13672	84.27522
13850.00000	84.36391	-402.40936	84.36391
13900.00000	84.40313	-400.71108	84.40313
13950.00000	84.59962	-398.41594	84.59962
14000.00000	84.85658	-393.39590	84.85658
14050.00000	84.58823	-392.04197	84.58823
14100.00000	84.17239	-390.80481	84.17239
14150.00000	84.25919	-390.92272	84.25919
14200.00000	84.55738	-390.16327	84.55738
14250.00000	85.12284	-388.78204	85.12284
14300.00000	85.36532	-386.20966	85.36532
14350.00000	85.56552	-382.23159	85.56552
14400.00000	85.17584	-381.24827	85.17584
14450.00000	85.23744	-379.13795	85.23744
14500.00000	85.31830	-379.30441	85.31830
14550.00000	85.73673	-378.42289	85.73673
14600.00000	85.92437	-379.88877	85.92437
14650.00000	86.41604	-375.99055	86.41604
14700.00000	86.84699	-377.89619	86.84699
14750.00000	87.12926	-376.17378	87.12926
14800.00000	87.24388	-374.64789	87.24388
14850.00000	87.83436	-374.58969	87.83436
14900.00000	88.12159	-374.43849	88.12159
14950.00000	88.58493	-374.30105	88.58493
15000.00000	89.05011	-374.76581	89.05011
15050.00000	89.49270	-372.64442	89.49270
15100.00000	89.84776	-371.78240	89.84776
15150.00000	90.31148	-372.13123	90.31148
15200.00000	90.48323	-370.14544	90.48323
15250.00000	90.79365	-373.05350	90.79365
15300.00000	91.44429	-374.05072	91.44429
15350.00000	91.94072	-375.76542	91.94072
15400.00000	92.45114	-374.92533	92.45114
15450.00000	92.94002	-375.79433	92.94002
15500.00000	93.54217	-375.98786	93.54217
15550.00000	93.87372	-377.47731	93.87372
15600.00000	94.31010	-379.57353	94.31010
15650.00000	94.93486	-380.24188	94.93486
15700.00000	95.35548	-383.08150	95.35548
15750.00000	96.08084	-384.38625	96.08084
15800.00000	96.58500	-385.13396	96.58500
15850.00000	96.94527	-386.96910	96.94527
15900.00000	97.24727	-390.10560	97.24727
15950.00000	97.72440	-393.04158	97.72440
16000.00000	98.19654	-395.95039	98.19654
16050.00000	98.74914	-398.21748	98.74914
16100.00000	98.99616	-401.17375	98.99616
16150.00000	99.28571	-403.63895	99.28571
16200.00000	99.62407	-407.66731	99.62407
16250.00000	99.95302	-410.57134	99.95302
16300.00000	100.49480	-413.92979	100.49480
16350.00000	100.73196	-416.93509	100.73196
16400.00000	101.03159	-419.47340	101.03159
16450.00000	101.31927	-422.48595	101.31927
16500.00000	101.55559	-425.98509	101.55559
16550.00000	101.82036	-429.47264	101.82036
16600.00000	102.04553	-432.66683	102.04553
16650.00000	102.24993	-435.87709	102.24993
16700.00000	102.55257	-438.52254	102.55257
16750.00000	102.65471	-441.86854	102.65471
16800.00000	102.88437	-445.39467	102.88437
16850.00000	103.09812	-448.62699	103.09812
16900.00000	103.29321	-452.01949	103.29321
16950.00000	103.47151	-455.32761	103.47151
17000.00000	103.56975	-458.58250	103.56975
17050.00000	103.76061	-460.94427	103.76061
17100.00000	103.78972	-463.21846	103.78972
17150.00000	104.07410	-467.14839	104.07410
17200.00000	104.18774	-470.08752	104.18774
17250.00000	104.30003	-473.67982	104.30003
17300.00000	104.55392	-476.45612	104.55392
17350.00000	104.52158	-479.40193	104.52158
17400.00000	104.73049	-482.41338	104.73049
17450.00000	104.78616	-485.85284	104.78616
17500.00000	104.93324	-488.95627	104.93324
17550.00000	105.06165	-492.08148	105.06165
17600.00000	105.27230	-494.43943	105.27230
17650.00000	105.35433	-498.55080	105.35433
17700.00000	105.45932	-501.75984	105.45932
17750.00000	105.64974	-504.35331	105.64974
17800.00000	105.66316	-508.23564	105.66316
17850.00000	105.79686	-510.99055	105.79686
17900.00000	105.89772	-514.44692	105.89772
17950.00000	106.06112	-518.05752	106.06112
18000.00000	106.12618	-521.68107	106.12618
18050.00000	106.32860	-524.80069	106.32860
18100.00000	106.33129	-528.64393	106.33129
18150.00000	106.39373	-531.57232	106.39373
18200.00000	106.39332	-535.55983	106.39332
18250.00000	106.51943	-538.24507	106.51943
18300.00000	106.61469	-541.89642	106.61469
18350.00000	106.65582	-545.31418	106.65582
18400.00000	106.63658	-549.10656	106.63658
18450.00000	106.60642	-553.76737	106.60642
18500.00000	106.63251	-556.99440	106.63251
18550.00000	106.62100	-559.99770	106.62100
18600.00000	106.68128	-564.02476	106.68128
18650.00000	106.51697	-567.23650	106.51697
18700.00000	106.47030	-571.01299	106.47030
18750.00000	106.48462	-574.37912	106.48462
18800.00000	106.53042	-577.12534	106.53042
18850.00000	106.33996	-580.76681	106.33996
18900.00000	106.23436	-583.83156	106.23436
18950.00000	106.18370	-587.44692	106.18370
19000.00000	105.97782	-589.96969	105.97782
19050.00000	106.02541	-593.12628	106.02541
19100.00000	105.91297	-596.01330	105.91297
19150.00000	105.96760	-598.79311	105.96760
19200.00000	105.87482	-601.30897	105.87482
19250.00000	105.76654	-605.28105	105.76654
19300.00000	105.64096	-607.42587	105.64096
19350.00000	105.61244	-610.28449	105.61244
19400.00000	105.48752	-612.88996	105.48752
19450.00000	105.52907	-615.12248	105.52907
19500.00000	105.36685	-618.83720	105.36685
19550.00000	105.33471	-621.50773	105.33471
19600.00000	105.35443	-624.75598	105.35443
19650.00000	105.21634	-626.90906	105.21634
19700.00000	105.04213	-629.92815	105.04213
19750.00000	104.95837	-632.10589	104.95837
19800.00000	104.97269	-635.65691	104.97269
19850.00000	104.89401	-638.13522	104.89401
19900.00000	104.76004	-641.53935	104.76004
19950.00000	104.63877	-644.16259	104.63877
20000.00000	104.56732	-646.80358	104.56732
20050.00000	104.45859	-649.46824	104.45859
20100.00000	104.26001	-652.26809	104.26001
20150.00000	104.22435	-653.98691	104.22435
20200.00000	104.06835	-657.23772	104.06835
20250.00000	103.88295	-659.60384	103.88295
20300.00000	103.67786	-662.13564	103.67786
20350.00000	103.60226	-664.75879	103.60226
20400.00000	103.40346	-666.16173	103.40346
20450.00000	103.17786	-668.59195	103.17786
20500.00000	103.09057	-670.93515	103.09057
20550.00000	102.69619	-672.26794	102.69619
20600.00000	102.62479	-673.81396	102.62479
20650.00000	102.47751	-675.50873	102.47751
20700.00000	102.27084	-676.93429	102.27084
20750.00000	102.16255	-678.28030	102.16255
20800.00000	101.97816	-679.05645	101.97816
20850.00000	101.91796	-680.26934	101.91796
20900.00000	101.77114	-681.06342	101.77114
20950.00000	101.70167	-681.38292	101.70167
21000.00000	101.65652	-681.97913	101.65652
21050.00000	101.79977	-682.37776	101.79977
21100.00000	101.82497	-682.74897	101.82497
21150.00000	101.97575	-683.70751	101.97575
21200.00000	102.13326	-684.25500	102.13326
21250.00000	102.28129	-686.54725	102.28129
21300.00000	102.50793	-687.42601	102.50793
21350.00000	102.65975	-688.87000	102.65975
21400.00000	102.81635	-691.21809	102.81635
21450.00000	103.00003	-693.40755	103.00003
21500.00000	103.16180	-696.00734	103.16180
21550.00000	103.19295	-698.23872	103.19295
21600.00000	103.36254	-701.07549	103.36254
21650.00000	103.40958	-703.86615	103.40958
21700.00000	103.45761	-706.30671	103.45761
21750.00000	103.51723	-709.05173	103.51723
21800.00000	103.53229	-711.70420	103.53229
21850.00000	103.46745	-714.20653	103.46745
21900.00000	103.49756	-716.66244	103.49756
21950.00000	103.48307	-718.95390	103.48307
22000.00000	103.49532	-721.21715	103.49532
22050.00000	103.46719	-723.42674	103.46719
22100.00000	103.42225	-725.73506	103.42225
22150.00000	103.38061	-727.80614	103.38061
22200.00000	103.45514	-729.92602	103.45514
22250.00000	103.40072	-731.69333	103.40072
22300.00000	103.29982	-733.95344	103.29982
22350.00000	103.40209	-736.37701	103.40209
22400.00000	103.42859	-738.47799	103.42859
22450.00000	103.37031	-740.42262	103.37031
22500.00000	103.31563	-741.63914	103.31563
22550.00000	103.33683	-744.07999	103.33683
22600.00000	103.34604	-747.03195	103.34604
22650.00000	103.33956	-749.03199	103.33956
22700.00000	103.34159	-751.03946	103.34159
22750.00000	103.35205	-751.31048	103.35205
22800.00000	103.40603	-755.96718	103.40603
22850.00000	103.49435	-758.98428	103.49435
22900.00000	103.47321	-759.42170	103.47321
22950.00000	103.55002	-762.00189	103.55002
23000.00000	103.49690	-763.62168	103.49690
23050.00000	103.47625	-767.02527	103.47625
23100.00000	103.62127	-768.16963	103.62127
23150.00000	103.47230	-770.24838	103.47230
23200.00000	103.65772	-773.44236	103.65772
23250.00000	103.48026	-776.62490	103.48026
23300.00000	103.74679	-779.35959	103.74679
23350.00000	103.45044	-781.99073	103.45044
23400.00000	103.49971	-784.59671	103.49971
23450.00000	103.62646	-787.00498	103.62646
23500.00000	103.51575	-789.10233	103.51575
23550.00000	103.49067	-790.50959	103.49067
23600.00000	103.37041	-794.76020	103.37041
23650.00000	103.43464	-796.97614	103.43464
23700.00000	103.59018	-801.76184	103.59018
23750.00000	103.54929	-803.45072	103.54929
23800.00000	103.27481	-805.11147	103.27481
23850.00000	103.33031	-807.70100	103.33031
23900.00000	103.67700	-811.03914	103.67700
23950.00000	103.32562	-815.00787	103.32562
24000.00000	103.10859	-818.10395	103.10859
24050.00000	103.18123	-820.26329	103.18123
24100.00000	103.29060	-824.09691	103.29060
24150.00000	103.13434	-827.41277	103.13434
24200.00000	103.06704	-831.74162	103.06704
24250.00000	102.51549	-833.19979	102.51549
24300.00000	102.82939	-836.34808	102.82939
24350.00000	102.38255	-839.46743	102.38255
24400.00000	102.25998	-843.79710	102.25998
24450.00000	101.70411	-846.06095	101.70411
24500.00000	101.99793	-847.85279	101.99793
24550.00000	101.66532	-493.41932	101.66532
24600.00000	101.82024	-494.41250	101.82024
24650.00000	101.29232	-138.68428	101.29232
24700.00000	101.11064	221.21335	101.11064
24750.00000	100.74038	576.62569	100.74038
24800.00000	100.48456	934.66433	100.48456
24850.00000	99.98271	1293.10135	99.98271
24900.00000	99.82292	1652.15555	99.82292
24950.00000	99.53083	2007.02911	99.53083
25000.00000	99.36859	1644.03971	99.36859
25050.00000	99.94797	1642.58564	99.94797
25100.00000	98.64538	1641.84603	98.64538
25150.00000	98.72377	1642.55686	98.72377
25200.00000	98.40975	1640.77088	98.40975
25250.00000	98.10975	1641.29939	98.10975
25300.00000	98.02070	1638.33753	98.02070
25350.00000	98.10268	1634.12601	98.10268
25400.00000	97.69290	1631.74222	97.69290
25450.00000	97.94515	1631.89774	97.94515
25500.00000	97.63056	1632.04005	97.63056
25550.00000	97.24319	1629.93230	97.24319
25600.00000	97.27282	1629.67056	97.27282
25650.00000	97.32475	1630.35088	97.32475
25700.00000	97.21772	1629.13461	97.21772
25750.00000	96.90975	1626.13820	96.90975
25800.00000	96.95877	1625.30295	96.95877
25850.00000	97.04071	1623.92480	97.04071
25900.00000	96.96971	1622.13146	96.96971
25950.00000	96.78003	1624.50935	96.78003
26000.00000	96.94921	1621.10451	96.94921
26050.00000	96.80315	1619.32250	96.80315
26100.00000	96.66267	1617.92737	96.66267
26150.00000	96.98206	1616.57931	96.98206
26200.00000	96.94580	1615.36363	96.94580
26250.00000	97.00538	1614.23163	97.00538
26300.00000	97.02343	1611.20443	97.02343
26350.00000	96.63424	1610.91677	96.63424
26400.00000	96.70860	1608.53170	96.70860
26450.00000	97.17125	1606.45173	97.17125
26500.00000	96.91173	1604.47854	96.91173
26550.00000	96.77690	1599.94691	96.77690
26600.00000	96.76097	1598.47230	96.76097
26650.00000	96.87958	1599.39083	96.87958
26700.00000	96.84147	1596.69268	96.84147
26750.00000	96.66505	1594.22945	96.66505
26800.00000	96.52182	1589.86187	96.52182
26850.00000	96.72615	1591.36322	96.72615
26900.00000	96.85238	1589.63375	96.85238
26950.00000	96.84395	1585.90875	96.84395
27000.00000	96.39006	1585.53830	96.39006
27050.00000	96.60085	1582.90922	96.60085
27100.00000	96.38175	1582.80346	96.38175
27150.00000	96.39117	1579.46615	96.39117
27200.00000	96.39336	1578.36198	96.39336
27250.00000	96.19379	1578.13764	96.19379
27300.00000	95.82677	1575.03406	95.82677
27350.00000	95.96919	1576.28675	95.96919
27400.00000	95.60173	1573.05731	95.60173
27450.00000	95.55629	1572.17299	95.55629
27500.00000	95.56098	1570.91308	95.56098
27550.00000	95.62216	1569.20188	95.62216
27600.00000	95.89551	1566.82656	95.89551
27650.00000	95.30672	1567.69440	95.30672
27700.00000	95.47464	1563.93109	95.47464
27750.00000	95.51710	1562.83801	95.51710
27800.00000	95.45298	1559.75640	95.45298
27850.00000	95.69933	1562.95120	95.69933
27900.00000	95.41037	1562.17245	95.41037
27950.00000	94.68252	1560.46266	94.68252
28000.00000	95.07490	1560.82468	95.07490
28050.00000	95.62989	1557.26950	95.62989
28100.00000	94.86039	1557.48430	94.86039
28150.00000	95.03088	1557.19949	95.03088
28200.00000	95.25300	1554.33481	95.25300
28250.00000	94.92064	1552.27503	94.92064
28300.00000	94.68190	1553.30868	94.68190
28350.00000	94.90886	1552.66202	94.90886
28400.00000	94.86760	1552.84148	94.86760
28450.00000	95.36195	1550.23147	95.36195
28500.00000	94.73860	1550.87640	94.73860
28550.00000	94.76250	1552.48711	94.76250
28600.00000	95.08944	1551.22323	95.08944
28650.00000	95.26502	1547.47093	95.26502
28700.00000	95.14205	1549.34525	95.14205
28750.00000	95.84184	1549.44703	95.84184
28800.00000	95.87254	1548.30012	95.87254
28850.00000	95.25439	1544.98974	95.25439
28900.00000	95.34032	1545.09518	95.34032
28950.00000	95.39400	1546.12491	95.39400
29000.00000	95.73011	1543.79255	95.73011
29050.00000	95.59931	1544.99646	95.59931
29100.00000	95.71785	1545.64457	95.71785
29150.00000	95.67962	1544.47109	95.67962
29200.00000	95.60483	1542.13394	95.60483
29250.00000	96.27786	1541.01969	96.27786
29300.00000	96.01003	1540.94914	96.01003
29350.00000	96.55203	1538.88690	96.55203
29400.00000	96.39561	1537.90551	96.39561
29450.00000	96.72486	1538.00408	96.72486
29500.00000	97.16969	1538.08601	97.16969
29550.00000	96.89994	1534.31009	96.89994
29600.00000	96.93462	1534.55631	96.93462
29650.00000	97.19107	1533.00999	97.19107
29700.00000	97.30194	1533.74747	97.30194
29750.00000	97.29036	1533.79931	97.29036
29800.00000	97.20935	1531.12881	97.20935
29850.00000	97.43149	1528.69658	97.43149
29900.00000	97.94693	1530.43347	97.94693
29950.00000	97.18510	1528.20384	97.18510
30000.00000	97.70475	1529.34766	97.70475
30050.00000	97.91659	1526.60903	97.91659
30100.00000	97.76475	1526.90762	97.76475
30150.00000	98.14739	1524.19149	98.14739
30200.00000	98.15608	1522.85775	98.15608
30250.00000	98.11608	1522.86344	98.11608
30300.00000	97.94613	1523.08311	97.94613
30350.00000	98.21861	1523.78441	98.21861
30400.00000	98.28082	1521.80392	98.28082
30450.00000	98.03602	1520.77225	98.03602
30500.00000	98.22790	1519.38447	98.22790
30550.00000	98.26225	1521.14255	98.26225
30600.00000	98.37219	1520.88009	98.37219
30650.00000	98.51780	1520.96810	98.51780
30700.00000	98.72068	1519.86570	98.72068
30750.00000	98.61739	1521.44236	98.61739
30800.00000	98.84271	1521.25797	98.84271
30850.00000	99.16423	1522.67980	99.16423
30900.00000	99.17587	1523.95585	99.17587
30950.00000	99.65712	1523.12785	99.65712
31000.00000	100.02487	1522.52358	100.02487
31050.00000	100.38881	1523.83614	100.38881
31100.00000	100.94063	1524.09695	100.94063
31150.00000	101.11065	1523.20401	101.11065
31200.00000	101.88008	1522.62458	101.88008
31250.00000	102.31630	1522.10260	102.31630
31300.00000	102.83618	1520.57927	102.83618
31350.00000	103.49313	1519.36279	103.49313
31400.00000	103.81909	1516.63172	103.81909
31450.00000	104.48241	1514.74820	104.48241
31500.00000	104.86425	1511.28533	104.86425
31550.00000	105.44819	1509.10157	105.44819
31600.00000	106.08712	1504.84649	106.08712
31650.00000	106.49218	1501.77903	106.49218
31700.00000	106.90123	1499.07216	106.90123
31750.00000	107.36030	1496.00864	107.36030
31800.00000	107.73016	1491.43676	107.73016
31850.00000	108.16694	1487.16269	108.16694
31900.00000	108.34678	1483.87047	108.34678
31950.00000	108.77479	1479.84550	108.77479
32000.00000	109.06633	1475.28903	109.06633
32050.00000	109.37272	1471.18108	109.37272
32100.00000	109.58831	1466.75336	109.58831
32150.00000	109.89135	1463.45142	109.89135
32200.00000	110.11522	1458.60403	110.11522
32250.00000	110.29105	1454.23941	110.29105
32300.00000	110.49181	1450.26215	110.49181
32350.00000	110.61270	1446.64624	110.61270
32400.00000	110.84760	1442.53146	110.84760
32450.00000	110.96428	1438.01031	110.96428
32500.00000	111.15577	1434.53603	111.15577
32550.00000	111.38171	1429.59957	111.38171
32600.00000	111.45286	1426.34062	111.45286
32650.00000	111.68820	1422.07401	111.68820
32700.00000	111.65649	1417.84817	111.65649
32750.00000	111.78869	1413.63175	111.78869
32800.00000	112.06981	1410.35274	112.06981
32850.00000	112.20645	1405.90872	112.20645
32900.00000	112.21098	1400.64173	112.21098
32950.00000	112.20594	1396.12207	112.20594
33000.00000	112.34001	1393.93006	112.34001
33050.00000	112.32672	1388.26699	112.32672
33100.00000	112.50933	1384.24343	112.50933
33150.00000	112.54619	1380.74268	112.54619
33200.00000	112.74598	1377.62727	112.74598
33250.00000	112.64794	1373.38633	112.64794
33300.00000	112.67794	1368.26819	112.67794
33350.00000	112.61619	1364.27081	112.61619
33400.00000	112.57049	1361.60721	112.57049
33450.00000	112.66508	1356.05829	112.66508
33500.00000	112.80876	1353.85323	112.80876
33550.00000	112.45572	1347.61358	112.45572
33600.00000	112.66892	1344.58770	112.66892
33650.00000	112.62046	1340.41076	112.62046
33700.00000	112.48180	1336.65870	112.48180
33750.00000	112.27804	1332.54701	112.27804
33800.00000	112.27116	1328.52303	112.27116
33850.00000	111.80543	1325.37135	111.80543
33900.00000	111.91452	1321.44940	111.91452
33950.00000	111.80213	1318.53280	111.80213
34000.00000	111.70147	1314.39450	111.70147
34050.00000	111.45271	1311.19366	111.45271
34100.00000	111.07406	1309.20322	111.07406
34150.00000	111.09857	1305.00186	111.09857
34200.00000	110.92774	1304.32917	110.92774
34250.00000	110.76971	1300.11769	110.76971
34300.00000	110.58670	1296.91762	110.58670
34350.00000	110.46851	1294.55877	110.46851
34400.00000	110.01256	1293.57201	110.01256
34450.00000	109.99531	1288.27221	109.99531
34500.00000	109.67304	1287.08349	109.67304
34550.00000	109.50521	1285.67856	109.50521
34600.00000	109.11424	1282.46194	109.11424
34650.00000	109.28739	1283.83411	109.28739
34700.00000	108.61383	1282.76751	108.61383
34750.00000	108.81908	1277.91837	108.81908
34800.00000	108.82624	1279.79914	108.82624
34850.00000	108.70184	1279.73632	108.70184
34900.00000	108.78206	1276.01358	108.78206
34950.00000	108.59217	1276.30572	108.59217
35000.00000	108.48587	1274.30335	108.48587
35050.00000	108.64234	1274.45995	108.64234
35100.00000	108.70675	1271.87152	108.70675
35150.00000	108.53094	1273.05300	108.53094
35200.00000	108.48655	1269.14419	108.48655
35250.00000	108.51912	1269.06562	108.51912
35300.00000	108.66426	1266.49803	108.66426
35350.00000	108.83101	1264.43363	108.83101
35400.00000	108.77301	1263.37784	108.77301
35450.00000	108.77393	1263.24653	108.77393
35500.00000	108.61529	1262.47441	108.61529
35550.00000	108.76029	1261.33062	108.76029
35600.00000	108.74985	1259.21808	108.74985
35650.00000	108.96854	1256.93877	108.96854
35700.00000	109.12705	1256.00144	109.12705
35750.00000	108.99656	1255.10368	108.99656
35800.00000	109.24373	1254.66893	109.24373
35850.00000	109.38186	1251.94934	109.38186
35900.00000	109.52663	1251.01086	109.52663
35950.00000	109.64960	1248.89305	109.64960
36000.00000	109.50091	1247.57300	109.50091
36050.00000	109.82865	1245.26641	109.82865
36100.00000	110.04842	1243.69798	110.04842
36150.00000	110.03428	1242.51663	110.03428
36200.00000	109.95880	1240.80619	109.95880
36250.00000	110.06293	1238.97947	110.06293
36300.00000	110.06671	1238.64772	110.06671
36350.00000	110.42379	1236.10342	110.42379
36400.00000	110.30670	1233.71577	110.30670
36450.00000	110.27078	1232.41368	110.27078
36500.00000	110.64767	1231.99267	110.64767
36550.00000	110.59539	1227.52867	110.59539
36600.00000	110.65828	1226.74554	110.65828
36650.00000	110.96375	1225.89222	110.96375
36700.00000	111.17154	1221.97980	111.17154
36750.00000	111.17256	1220.18565	111.17256
36800.00000	111.14746	1217.66679	111.14746
36850.00000	111.03224	1216.35341	111.03224
36900.00000	111.30447	1214.21139	111.30447
36950.00000	111.26120	1211.75901	111.26120
37000.00000	110.97764	1210.73087	110.97764
37050.00000	110.90022	1209.61833	110.90022
37100.00000	111.27337	1207.19841	111.27337
37150.00000	111.44405	1205.36023	111.44405
37200.00000	111.78846	1204.20635	111.78846
37250.00000	111.46116	1202.92308	111.46116
37300.00000	111.69256	1200.83194	111.69256
37350.00000	112.06671	1199.00320	112.06671
37400.00000	112.13350	1197.24082	112.13350
37450.00000	112.09029	1196.37713	112.09029
37500.00000	112.64610	1192.32018	112.64610
37550.00000	112.40741	1190.27243	112.40741
37600.00000	112.64557	1189.37934	112.64557
37650.00000	112.79993	1188.53902	112.79993
37700.00000	113.09818	1185.95734	113.09818
37750.00000	113.36984	1183.94028	113.36984
37800.00000	113.52359	1181.41141	113.52359
37850.00000	113.72429	1177.38172	113.72429
37900.00000	114.06631	1175.37309	114.06631
37950.00000	114.27049	1173.19494	114.27049
38000.00000	114.46029	1170.87033	114.46029
38050.00000	114.85637	1167.82277	114.85637
38100.00000	115.20263	1164.47713	115.20263
38150.00000	115.39180	1160.78776	115.39180
38200.00000	115.92627	1157.12503	115.92627
38250.00000	115.99641	1153.76089	115.99641
38300.00000	116.41417	1148.89358	116.41417
38350.00000	116.59588	1145.93663	116.59588
38400.00000	116.84671	1141.50468	116.84671
38450.00000	117.10844	1136.62245	117.10844
38500.00000	117.39699	1132.02676	117.39699
38550.00000	117.67229	1128.46670	117.67229
38600.00000	117.88673	1123.57977	117.88673
38650.00000	118.06098	1118.87361	118.06098
38700.00000	118.25000	1113.82213	118.25000
38750.00000	118.41878	1109.29230	118.41878
38800.00000	118.62841	1104.59968	118.62841
38850.00000	118.72375	1099.30446	118.72375
38900.00000	118.91001	1094.58735	118.91001
38950.00000	119.00186	1089.32804	119.00186
39000.00000	119.11319	1084.07314	119.11319
39050.00000	119.23404	1078.82654	119.23404
39100.00000	119.16518	1074.13680	119.16518
39150.00000	119.22555	1068.79510	119.22555
39200.00000	119.23424	1063.80114	119.23424
39250.00000	119.28370	1058.56445	119.28370
39300.00000	119.23910	1053.36908	119.23910
39350.00000	119.18199	1049.00803	119.18199
39400.00000	119.17717	1043.51031	119.17717
39450.00000	119.03289	1038.87367	119.03289
39500.00000	119.02440	1033.73169	119.02440
39550.00000	118.81801	1028.22396	118.81801
39600.00000	118.55464	1023.65152	118.55464
39650.00000	118.47045	1019.18676	118.47045
39700.00000	118.23771	1014.69052	118.23771
39750.00000	118.03727	1009.74410	118.03727
39800.00000	117.82600	1005.36887	117.82600
39850.00000	117.50724	1001.37758	117.50724
39900.00000	117.27214	997.67412	117.27214
39950.00000	117.00135	993.93514	117.00135
40000.00000	116.58214	991.22100	116.58214
40050.00000	116.37408	986.75500	116.37408
40100.00000	116.14561	983.08483	116.14561
40150.00000	115.75951	979.90647	115.75951
40200.00000	115.48237	976.65650	115.48237
40250.00000	115.18445	973.99508	115.18445
40300.00000	115.02470	971.41584	115.02470
40350.00000	114.50536	968.95023	114.50536
40400.00000	114.16348	966.60159	114.16348
40450.00000	113.94064	964.56005	113.94064
40500.00000	113.73808	963.37968	113.73808
40550.00000	113.43310	960.50960	113.43310
40600.00000	113.14730	959.13455	113.14730
40650.00000	112.84413	957.35710	112.84413
40700.00000	112.49936	956.83069	112.49936
40750.00000	112.42723	955.32240	112.42723
40800.00000	112.23175	953.65140	112.23175
40850.00000	111.93845	953.07639	111.93845
40900.00000	111.74323	951.88592	111.74323
40950.00000	111.43668	951.92307	111.43668
41000.00000	111.13479	951.45527	111.13479
41050.00000	111.16038	950.98229	111.16038
41100.00000	111.08885	949.84446	111.08885
41150.00000	111.03018	950.75025	111.03018
41200.00000	110.99666	950.24985	110.99666
41250.00000	110.84055	947.98290	110.84055
41300.00000	110.56190	949.16013	110.56190
41350.00000	110.76304	950.04474	110.76304
41400.00000	110.64840	945.81869	110.64840
41450.00000	110.90341	947.44098	110.90341
41500.00000	110.69298	946.95511	110.69298
41550.00000	110.64344	950.18498	110.64344
41600.00000	110.29000	948.41088	110.29000
41650.00000	110.83081	946.65788	110.83081
41700.00000	110.96062	947.14919	110.96062
41750.00000	110.90005	950.51563	110.90005
41800.00000	110.10796	944.44176	110.10796
41850.00000	110.24344	946.03627	110.24344
41900.00000	110.09546	946.56620	110.09546
41950.00000	111.35707	949.94466	111.35707
42000.00000	110.57689	944.03894	110.57689
42050.00000	109.49638	944.20885	109.49638
42100.00000	110.19717	942.82216	110.19717
42150.00000	109.74856	938.03215	109.74856
42200.00000	109.82967	942.87815	109.82967
42250.00000	109.84247	942.56565	109.84247
42300.00000	109.05147	937.79254	109.05147
42350.00000	109.58271	939.16918	109.58271
42400.00000	109.38615	939.73396	109.38615
42450.00000	110.10263	932.81670	110.10263
42500.00000	109.50447	932.44085	109.50447
42550.00000	109.69951	942.40594	109.69951
42600.00000	109.50523	932.41403	109.50523
42650.00000	109.26442	934.43654	109.26442
42700.00000	108.94562	929.73007	108.94562
42750.00000	109.93449	926.36285	109.93449
42800.00000	109.25986	919.11460	109.25986
42850.00000	109.04231	918.06098	109.04231
42900.00000	110.10062	921.44549	110.10062
42950.00000	109.43121	915.67765	109.43121
43000.00000	110.08542	905.35979	110.08542
43050.00000	109.48462	903.56001	109.48462
43100.00000	110.00963	904.40289	110.00963
43150.00000	108.42658	900.92436	108.42658
43200.00000	109.49420	894.04814	109.49420
43250.00000	109.71826	892.53945	109.71826
43300.00000	109.64923	887.86357	109.64923
43350.00000	110.39292	883.66064	110.39292
43400.00000	109.88678	880.39441	109.88678
43450.00000	110.78024	879.41040	110.78024
43500.00000	109.34894	870.11551	109.34894
43550.00000	109.88846	867.25328	109.88846
43600.00000	109.68465	862.45663	109.68465
43650.00000	110.52589	853.52606	110.52589
43700.00000	110.13833	853.73594	110.13833
43750.00000	109.67823	852.04129	109.67823
43800.00000	110.12391	844.30807	110.12391
43850.00000	110.75647	838.66255	110.75647
43900.00000	110.76665	836.97314	110.76665
43950.00000	110.74964	830.88107	110.74964
44000.00000	110.48266	826.23471	110.48266
44050.00000	110.66543	821.20700	110.66543
44100.00000	110.90615	809.21220	110.90615
44150.00000	110.63164	810.37789	110.63164
44200.00000	110.39238	809.71014	110.39238
44250.00000	111.11218	802.42817	111.11218
44300.00000	111.11433	795.54466	111.11433
44350.00000	110.13721	791.42135	110.13721
44400.00000	110.76966	788.41268	110.76966
44450.00000	111.45142	785.29113	111.45142
44500.00000	110.55506	781.47565	110.55506
44550.00000	112.00564	769.75411	112.00564
44600.00000	110.79521	771.99195	110.79521
44650.00000	110.49030	762.20958	110.49030
44700.00000	110.30156	759.66754	110.30156
44750.00000	110.15900	757.42298	110.15900
44800.00000	110.63398	751.23167	110.63398
44850.00000	110.25008	745.06183	110.25008
44900.00000	110.01291	743.93567	110.01291
44950.00000	110.13394	738.17474	110.13394
45000.00000	110.04981	728.29293	110.04981
45050.00000	108.57450	734.55018	108.57450
45100.00000	109.00339	725.60682	109.00339
45150.00000	109.00526	714.77572	109.00526
45200.00000	108.40239	717.61670	108.40239
45250.00000	108.34443	712.42113	108.34443
45300.00000	108.13467	709.68799	108.13467
45350.00000	107.62612	700.98333	107.62612
45400.00000	107.43569	701.31771	107.43569
45450.00000	107.25196	692.93881	107.25196
45500.00000	105.53861	691.00980	105.53861
45550.00000	105.90829	692.27317	105.90829
45600.00000	106.72043	683.14466	106.72043
45650.00000	105.04255	676.87850	105.04255
45700.00000	104.76735	675.76175	104.76735
45750.00000	105.41715	678.55915	105.41715
45800.00000	104.04843	671.23152	104.04843
45850.00000	103.72150	669.61127	103.72150
45900.00000	103.42958	668.80270	103.42958
45950.00000	102.82288	670.90872	102.82288
46000.00000	101.39682	651.43778	101.39682
46050.00000	101.94738	654.18813	101.94738
46100.00000	100.89993	659.51215	100.89993
46150.00000	100.40977	657.07217	100.40977
46200.00000	98.37871	647.16938	98.37871
46250.00000	99.16188	648.29211	99.16188
46300.00000	98.54638	652.57514	98.54638
46350.00000	99.22542	644.37017	99.22542
46400.00000	97.72431	642.17055	97.72431
46450.00000	95.86964	644.53126	95.86964
46500.00000	96.71064	645.20876	96.71064
46550.00000	96.61810	653.22696	96.61810
46600.00000	97.27977	654.79774	97.27977
46650.00000	94.03148	650.44224	94.03148
46700.00000	93.96872	661.37702	93.96872
46750.00000	95.12240	666.75444	95.12240
46800.00000	92.85054	654.93144	92.85054
46850.00000	95.07199	313.40740	95.07199
46900.00000	94.34240	303.95426	94.34240
46950.00000	95.21541	303.65157	95.21541
47000.00000	94.67489	310.22082	94.67489
47050.00000	96.45729	303.49857	96.45729
47100.00000	95.33391	300.60871	95.33391
47150.00000	96.51506	299.00687	96.51506
47200.00000	95.32766	302.75263	95.32766
47250.00000	97.13274	297.44675	97.13274
47300.00000	96.30252	288.04611	96.30252
47350.00000	96.05616	-59.32923	96.05616
47400.00000	95.29248	-61.04623	95.29248
47450.00000	97.00404	-61.70087	97.00404
47500.00000	95.07413	-73.35891	95.07413
47550.00000	94.80430	-423.42576	94.80430
47600.00000	95.18245	-429.80638	95.18245
47650.00000	96.94099	-431.17869	96.94099
47700.00000	95.81008	-431.50485	95.81008
47750.00000	93.51107	-428.48693	93.51107
47800.00000	94.17519	-446.97439	94.17519
47850.00000	95.05778	-795.06444	95.05778
47900.00000	95.24321	-1145.32015	95.24321
47950.00000	94.31292	-1149.95532	94.31292
48000.00000	94.67615	-1147.23199	94.67615
48050.00000	95.80327	-1159.58611	95.80327
48100.00000	94.21911	-1160.22024	94.21911
48150.00000	94.62086	-1516.34831	94.62086
48200.00000	95.19886	-1511.62121	95.19886
48250.00000	94.26142	-1520.52010	94.26142
48300.00000	95.01199	-1518.47643	95.01199
48350.00000	95.37300	-1527.81279	95.37300
48400.00000	95.86591	-1870.44449	95.86591
48450.00000	96.55055	-1878.23719	96.55055
48500.00000	95.94346	-1884.15758	95.94346
48550.00000	94.55042	-1887.50889	94.55042
48600.00000	96.38133	-2242.73998	96.38133
48650.00000	97.18243	-2243.41379	97.18243
48700.00000	97.06083	-2253.50299	97.06083
48750.00000	95.63458	-2605.31603	95.63458
48800.00000	96.45379	-2615.00293	96.45379
48850.00000	96.72644	-2618.34641	96.72644
48900.00000	95.71027	-2977.88042	95.71027
48950.00000	96.21062	-2992.62868	96.21062
49000.00000	96.58139	-2989.82442	96.58139
49050.00000	95.69812	-2995.19839	95.69812
49100.00000	95.15621	-3354.49793	95.15621
49150.00000	96.11525	-3717.85207	96.11525
49200.00000	95.63475	-3731.79941	95.63475
49250.00000	95.28237	-4075.83705	95.28237
49300.00000	95.93688	-3735.59663	95.93688
49350.00000	92.74111	-3719.11476	92.74111
49400.00000	93.55510	-3377.02409	93.55510
49450.00000	91.95466	-3022.32032	91.95466
49500.00000	92.60186	-2668.27608	92.60186
49550.00000	93.27975	-2314.29643	93.27975
49600.00000	90.29164	-2308.75902	90.29164
49650.00000	91.53660	-2306.83002	91.53660
49700.00000	91.64597	-1982.47553	91.64597
49750.00000	90.15105	-1978.34433	90.15105
49800.00000	87.78066	-1981.21270	87.78066
49850.00000	86.56022	-1945.53701	86.56022
49900.00000	81.61076	-1606.03464	81.61076
49950.00000	80.32514	-1282.11315	80.32514
