---ACOUSTIC CALIBRATION---
Filename: C:\Data\AZH DATA\AZH71\RightPrimary.calib
Date: 8/27/2019 5:31:23 PM
Format: 4
Probe Tube Correction File: C:\Data\Probe Tube Calibrations\50_ProbeTube.calib
Experiment VIs: 850
EPL_CFTS.exe V12.0.1 (2012)
DAQmx V9.6

Attenuation (dB): 40.000000
Min Freq (Hz): 50.000000
Max Freq (Hz): 49950.000000
Freq Step (Hz): 50.000000
Sample Rate (Hz): 100000.000000
[Smoothing]
Method=None
MA.Iterations=0
MA.Length=0
Loess.Length=0
Loess.Type=Linear
Loess.Robust=FALSE


Freq(Hz)	Mag(dB)	Phase(deg)	Unsmoothed(dB)

50.00000	100.89333	471.14084	100.89333
100.00000	75.95675	431.91667	75.95675
150.00000	80.38720	491.69058	80.38720
200.00000	83.37503	456.76132	83.37503
250.00000	89.45491	428.48702	89.45491
300.00000	89.37929	379.01172	89.37929
350.00000	85.62044	382.97845	85.62044
400.00000	88.14513	351.21576	88.14513
450.00000	87.74247	348.51465	87.74247
500.00000	90.64673	357.91956	90.64673
550.00000	93.05738	355.55544	93.05738
600.00000	95.33378	353.75033	95.33378
650.00000	97.86110	339.71354	97.86110
700.00000	100.29130	323.25911	100.29130
750.00000	101.94901	310.65280	101.94901
800.00000	102.87152	288.82984	102.87152
850.00000	102.44044	271.75889	102.44044
900.00000	101.40344	256.64695	101.40344
950.00000	99.53653	251.07789	99.53653
1000.00000	97.82086	250.52713	97.82086
1050.00000	96.21840	262.21355	96.21840
1100.00000	96.70772	281.58626	96.70772
1150.00000	99.46583	290.09691	99.46583
1200.00000	102.02496	292.10947	102.02496
1250.00000	104.15113	285.61302	104.15113
1300.00000	105.80437	280.13862	105.80437
1350.00000	107.31254	271.64450	107.31254
1400.00000	108.26438	263.69165	108.26438
1450.00000	109.21441	257.37760	109.21441
1500.00000	110.39377	251.74043	110.39377
1550.00000	111.09089	243.28526	111.09089
1600.00000	112.67745	234.16849	112.67745
1650.00000	113.81646	217.55038	113.81646
1700.00000	112.69287	207.54520	112.69287
1750.00000	112.48465	201.62657	112.48465
1800.00000	112.32104	196.20287	112.32104
1850.00000	112.38229	194.08734	112.38229
1900.00000	113.33885	190.59703	113.33885
1950.00000	114.12807	178.41598	114.12807
2000.00000	113.33562	165.82149	113.33562
2050.00000	111.85723	167.59205	111.85723
2100.00000	113.45913	169.71658	113.45913
2150.00000	114.28024	159.83961	114.28024
2200.00000	114.27137	149.60610	114.27137
2250.00000	113.74373	142.61499	113.74373
2300.00000	113.84939	136.69784	113.84939
2350.00000	113.60745	130.33414	113.60745
2400.00000	113.37360	124.77975	113.37360
2450.00000	113.07890	118.30632	113.07890
2500.00000	112.73886	113.10403	112.73886
2550.00000	112.29638	107.98383	112.29638
2600.00000	111.82151	103.40095	111.82151
2650.00000	111.36841	99.64732	111.36841
2700.00000	110.84509	95.55814	110.84509
2750.00000	110.38035	92.32883	110.38035
2800.00000	109.81437	89.47392	109.81437
2850.00000	109.27558	87.30846	109.27558
2900.00000	108.71090	84.80436	108.71090
2950.00000	108.15626	83.75144	108.15626
3000.00000	107.59402	81.87508	107.59402
3050.00000	106.98703	81.20894	106.98703
3100.00000	106.49915	80.76286	106.49915
3150.00000	105.66284	78.44349	105.66284
3200.00000	104.35947	79.56099	104.35947
3250.00000	103.14435	85.07980	103.14435
3300.00000	102.06584	92.17061	102.06584
3350.00000	100.98565	105.45103	100.98565
3400.00000	101.30660	126.56809	101.30660
3450.00000	103.48876	142.81982	103.48876
3500.00000	106.26575	149.55297	106.26575
3550.00000	108.62978	149.59588	108.62978
3600.00000	110.71153	147.11748	110.71153
3650.00000	112.35924	142.30614	112.35924
3700.00000	113.74281	137.77862	113.74281
3750.00000	115.05116	133.07513	115.05116
3800.00000	116.28496	127.59228	116.28496
3850.00000	117.40570	121.80230	117.40570
3900.00000	118.47866	115.88740	118.47866
3950.00000	119.53589	109.25368	119.53589
4000.00000	120.46851	102.17138	120.46851
4050.00000	121.35197	95.27273	121.35197
4100.00000	122.28457	88.23771	122.28457
4150.00000	123.40720	80.23839	123.40720
4200.00000	124.26111	70.60628	124.26111
4250.00000	125.10899	59.63715	125.10899
4300.00000	125.72617	47.34220	125.72617
4350.00000	126.01029	34.35302	126.01029
4400.00000	125.98312	21.86252	125.98312
4450.00000	125.73326	10.22704	125.73326
4500.00000	125.32268	-0.19427	125.32268
4550.00000	124.86459	-9.99351	124.86459
4600.00000	124.32820	-18.80900	124.32820
4650.00000	123.85062	-26.97921	123.85062
4700.00000	123.33686	-35.36050	123.33686
4750.00000	122.72570	-43.89706	122.72570
4800.00000	121.95324	-52.63857	121.95324
4850.00000	120.93565	-60.87941	120.93565
4900.00000	119.64007	-67.62669	119.64007
4950.00000	118.18434	-71.86076	118.18434
5000.00000	116.74868	-73.11581	116.74868
5050.00000	115.57439	-73.04007	115.57439
5100.00000	114.31105	-70.23588	114.31105
5150.00000	113.91801	-63.55932	113.91801
5200.00000	113.22575	-61.76395	113.22575
5250.00000	113.28105	-46.81489	113.28105
5300.00000	116.28704	-44.34902	116.28704
5350.00000	117.58992	-58.78048	117.58992
5400.00000	117.25606	-69.94044	117.25606
5450.00000	116.64091	-76.09388	116.64091
5500.00000	116.12993	-80.02236	116.12993
5550.00000	115.73794	-82.89743	115.73794
5600.00000	115.44425	-85.48510	115.44425
5650.00000	115.20647	-87.96511	115.20647
5700.00000	114.98350	-90.57149	114.98350
5750.00000	114.80602	-92.82898	114.80602
5800.00000	114.64179	-95.26033	114.64179
5850.00000	114.49353	-97.75200	114.49353
5900.00000	114.36089	-100.25736	114.36089
5950.00000	114.21963	-102.71918	114.21963
6000.00000	114.09981	-105.06423	114.09981
6050.00000	113.96615	-107.43045	113.96615
6100.00000	113.86173	-109.88451	113.86173
6150.00000	113.75925	-112.12961	113.75925
6200.00000	113.66641	-114.52451	113.66641
6250.00000	113.59746	-116.92145	113.59746
6300.00000	113.54283	-119.49982	113.54283
6350.00000	113.47178	-122.18529	113.47178
6400.00000	113.39820	-124.77709	113.39820
6450.00000	113.33050	-127.54750	113.33050
6500.00000	113.23191	-130.32662	113.23191
6550.00000	113.14112	-132.97632	113.14112
6600.00000	113.06156	-135.56465	113.06156
6650.00000	112.98398	-138.23944	112.98398
6700.00000	112.91208	-140.93027	112.91208
6750.00000	112.84169	-143.55807	112.84169
6800.00000	112.78487	-146.21068	112.78487
6850.00000	112.71928	-148.84107	112.71928
6900.00000	112.66199	-151.52406	112.66199
6950.00000	112.61022	-154.25839	112.61022
7000.00000	112.56110	-156.97742	112.56110
7050.00000	112.51325	-159.82107	112.51325
7100.00000	112.48051	-162.81442	112.48051
7150.00000	112.43771	-165.71431	112.43771
7200.00000	112.37304	-168.82906	112.37304
7250.00000	112.29445	-172.00164	112.29445
7300.00000	112.24867	-175.13847	112.24867
7350.00000	112.16983	-178.40251	112.16983
7400.00000	112.09253	-181.84001	112.09253
7450.00000	111.98054	-185.37724	111.98054
7500.00000	111.84575	-188.53473	111.84575
7550.00000	111.72771	-192.15038	111.72771
7600.00000	111.56527	-195.54447	111.56527
7650.00000	111.39609	-199.03031	111.39609
7700.00000	111.25403	-202.44478	111.25403
7750.00000	111.01890	-205.82131	111.01890
7800.00000	110.81814	-209.02464	110.81814
7850.00000	110.59316	-212.22390	110.59316
7900.00000	110.39023	-215.17740	110.39023
7950.00000	110.16539	-218.32166	110.16539
8000.00000	109.94623	-221.38397	109.94623
8050.00000	109.71499	-224.55589	109.71499
8100.00000	109.46997	-226.90277	109.46997
8150.00000	109.18076	-229.63151	109.18076
8200.00000	108.90093	-231.89124	108.90093
8250.00000	108.60233	-234.57843	108.60233
8300.00000	108.29454	-237.08784	108.29454
8350.00000	107.97712	-239.31543	107.97712
8400.00000	107.65258	-242.15614	107.65258
8450.00000	107.27705	-244.65856	107.27705
8500.00000	106.94202	-247.29015	106.94202
8550.00000	106.66915	-249.61888	106.66915
8600.00000	106.39342	-252.31617	106.39342
8650.00000	106.13781	-254.52673	106.13781
8700.00000	105.91652	-257.26835	105.91652
8750.00000	105.68631	-257.96105	105.68631
8800.00000	105.49544	-259.79752	105.49544
8850.00000	105.22156	-261.05807	105.22156
8900.00000	104.98897	-261.85187	104.98897
8950.00000	104.69957	-263.00894	104.69957
9000.00000	104.33265	-264.01533	104.33265
9050.00000	104.00849	-265.72527	104.00849
9100.00000	103.66073	-267.29900	103.66073
9150.00000	103.31751	-269.11594	103.31751
9200.00000	103.06616	-271.34644	103.06616
9250.00000	102.79667	-273.63728	102.79667
9300.00000	102.68846	-275.67575	102.68846
9350.00000	102.63368	-277.61051	102.63368
9400.00000	102.54027	-278.60775	102.54027
9450.00000	102.52003	-279.26602	102.52003
9500.00000	102.46578	-278.77810	102.46578
9550.00000	102.47498	-277.85870	102.47498
9600.00000	102.55141	-278.13619	102.55141
9650.00000	102.40918	-279.14099	102.40918
9700.00000	102.21966	-279.45283	102.21966
9750.00000	102.08952	-281.33751	102.08952
9800.00000	101.89606	-282.55062	101.89606
9850.00000	101.81560	-284.15001	101.81560
9900.00000	101.65620	-286.37202	101.65620
9950.00000	101.74455	-287.82715	101.74455
10000.00000	101.85232	-289.86071	101.85232
10050.00000	101.92252	-291.15034	101.92252
10100.00000	101.97555	-292.10553	101.97555
10150.00000	101.91336	-293.70619	101.91336
10200.00000	101.90481	-294.94238	101.90481
10250.00000	101.76574	-296.79581	101.76574
10300.00000	101.75270	-298.89259	101.75270
10350.00000	101.60981	-301.21496	101.60981
10400.00000	101.47568	-304.36881	101.47568
10450.00000	101.53899	-307.63687	101.53899
10500.00000	101.63180	-310.47799	101.63180
10550.00000	101.67141	-313.62435	101.67141
10600.00000	101.68705	-316.02671	101.68705
10650.00000	101.66941	-317.91333	101.66941
10700.00000	101.62242	-320.96217	101.62242
10750.00000	101.53545	-323.36036	101.53545
10800.00000	101.31961	-325.69372	101.31961
10850.00000	101.10493	-329.36596	101.10493
10900.00000	100.90694	-332.17334	100.90694
10950.00000	100.70973	-334.92636	100.70973
11000.00000	100.53033	-337.90126	100.53033
11050.00000	100.19769	-340.58543	100.19769
11100.00000	99.96395	-343.32608	99.96395
11150.00000	99.60122	-345.38201	99.60122
11200.00000	99.33698	-347.11064	99.33698
11250.00000	98.92061	-349.21949	98.92061
11300.00000	98.50380	-351.07426	98.50380
11350.00000	98.12091	-352.49178	98.12091
11400.00000	97.66010	-354.11083	97.66010
11450.00000	97.34301	-356.02720	97.34301
11500.00000	97.14114	-356.52749	97.14114
11550.00000	96.78931	-357.20950	96.78931
11600.00000	96.63081	-358.63472	96.63081
11650.00000	96.35278	-358.10616	96.35278
11700.00000	96.19772	-358.39876	96.19772
11750.00000	96.02562	-358.86386	96.02562
11800.00000	95.85731	-359.61845	95.85731
11850.00000	95.76228	-359.22330	95.76228
11900.00000	95.48024	-360.23737	95.48024
11950.00000	95.38949	-360.31423	95.38949
12000.00000	95.25524	-360.35555	95.25524
12050.00000	95.07061	-360.73898	95.07061
12100.00000	95.05781	-362.48967	95.05781
12150.00000	94.94954	-363.59717	94.94954
12200.00000	94.97629	-364.99562	94.97629
12250.00000	94.93612	-365.50143	94.93612
12300.00000	96.04173	-366.70185	96.04173
12350.00000	94.86885	-367.56381	94.86885
12400.00000	94.78220	-367.51720	94.78220
12450.00000	94.67515	-368.05680	94.67515
12500.00000	94.54714	-369.34378	94.54714
12550.00000	94.46013	-370.70656	94.46013
12600.00000	94.28824	-372.64873	94.28824
12650.00000	94.40428	-374.17502	94.40428
12700.00000	94.24106	-375.55420	94.24106
12750.00000	94.18601	-376.99705	94.18601
12800.00000	94.15927	-377.62959	94.15927
12850.00000	93.71931	-378.51155	93.71931
12900.00000	93.56037	-379.83324	93.56037
12950.00000	93.49620	-381.39764	93.49620
13000.00000	93.30315	-383.23685	93.30315
13050.00000	93.23636	-383.87187	93.23636
13100.00000	93.00296	-385.30901	93.00296
13150.00000	92.95355	-386.66305	92.95355
13200.00000	92.83828	-386.38127	92.83828
13250.00000	92.61027	-387.09684	92.61027
13300.00000	92.36636	-385.62646	92.36636
13350.00000	92.14438	-386.58227	92.14438
13400.00000	92.15508	-387.92062	92.15508
13450.00000	91.84039	-387.34774	91.84039
13500.00000	91.87613	-387.11043	91.87613
13550.00000	91.60334	-387.02210	91.60334
13600.00000	91.51872	-386.42612	91.51872
13650.00000	91.27459	-385.94866	91.27459
13700.00000	91.05032	-386.33382	91.05032
13750.00000	90.87728	-386.33822	90.87728
13800.00000	90.71180	-388.52164	90.71180
13850.00000	90.72123	-389.38536	90.72123
13900.00000	90.55845	-388.40280	90.55845
13950.00000	90.59132	-386.95102	90.59132
14000.00000	90.68168	-384.53096	90.68168
14050.00000	90.59598	-383.58385	90.59598
14100.00000	90.51165	-381.86502	90.51165
14150.00000	90.62865	-383.18985	90.62865
14200.00000	90.76570	-382.28945	90.76570
14250.00000	91.19408	-380.55059	91.19408
14300.00000	91.16728	-379.16065	91.16728
14350.00000	91.28006	-376.37960	91.28006
14400.00000	90.97494	-375.97522	90.97494
14450.00000	91.05794	-374.14518	91.05794
14500.00000	91.18592	-374.04978	91.18592
14550.00000	91.46068	-372.88062	91.46068
14600.00000	91.62296	-373.36223	91.62296
14650.00000	92.22180	-370.64189	92.22180
14700.00000	92.45868	-374.06830	92.45868
14750.00000	92.92599	-371.89303	92.92599
14800.00000	93.12570	-370.34720	93.12570
14850.00000	93.57967	-368.93152	93.57967
14900.00000	93.95159	-369.76028	93.95159
14950.00000	94.40892	-370.04332	94.40892
15000.00000	94.95346	-370.40953	94.95346
15050.00000	95.23770	-368.95923	95.23770
15100.00000	95.71031	-368.41994	95.71031
15150.00000	96.23797	-369.37063	96.23797
15200.00000	96.57750	-368.66964	96.57750
15250.00000	96.93719	-370.88608	96.93719
15300.00000	97.52745	-371.79940	97.52745
15350.00000	98.16903	-374.41377	98.16903
15400.00000	98.59085	-374.59688	98.59085
15450.00000	99.08902	-376.31302	99.08902
15500.00000	99.63982	-377.99284	99.63982
15550.00000	100.17507	-380.56488	100.17507
15600.00000	100.56715	-383.10976	100.56715
15650.00000	101.19291	-384.13480	101.19291
15700.00000	101.44987	-387.77991	101.44987
15750.00000	102.05875	-390.09202	102.05875
15800.00000	102.49916	-392.08974	102.49916
15850.00000	102.84426	-394.55108	102.84426
15900.00000	103.12484	-397.69853	103.12484
15950.00000	103.59412	-401.41532	103.59412
16000.00000	103.95213	-404.44744	103.95213
16050.00000	104.36583	-407.43597	104.36583
16100.00000	104.55081	-411.13145	104.55081
16150.00000	104.80348	-414.38148	104.80348
16200.00000	105.05314	-418.42117	105.05314
16250.00000	105.35779	-421.47806	105.35779
16300.00000	105.79040	-424.98967	105.79040
16350.00000	105.94590	-428.53030	105.94590
16400.00000	106.14806	-431.45842	106.14806
16450.00000	106.29933	-434.71279	106.29933
16500.00000	106.38925	-438.30211	106.38925
16550.00000	106.71514	-442.30079	106.71514
16600.00000	106.86296	-445.09700	106.86296
16650.00000	106.98842	-448.36858	106.98842
16700.00000	107.15298	-451.18173	107.15298
16750.00000	107.18382	-454.83698	107.18382
16800.00000	107.35348	-458.24186	107.35348
16850.00000	107.54490	-461.30661	107.54490
16900.00000	107.69397	-464.60004	107.69397
16950.00000	107.83458	-467.59423	107.83458
17000.00000	107.80600	-470.89977	107.80600
17050.00000	107.96524	-473.33758	107.96524
17100.00000	107.96011	-475.99762	107.96011
17150.00000	108.25285	-479.37381	108.25285
17200.00000	108.36135	-482.31604	108.36135
17250.00000	108.42495	-485.71558	108.42495
17300.00000	108.60944	-488.58549	108.60944
17350.00000	108.58224	-491.40827	108.58224
17400.00000	108.77357	-494.62708	108.77357
17450.00000	108.79911	-498.16890	108.79911
17500.00000	108.94969	-501.25856	108.94969
17550.00000	109.04432	-504.38781	109.04432
17600.00000	109.23621	-507.21949	109.23621
17650.00000	109.28805	-511.27126	109.28805
17700.00000	109.39105	-514.49985	109.39105
17750.00000	109.55940	-517.40359	109.55940
17800.00000	109.51551	-521.37160	109.51551
17850.00000	109.59567	-524.38202	109.59567
17900.00000	109.62398	-527.84448	109.62398
17950.00000	109.75319	-531.61521	109.75319
18000.00000	109.76330	-535.65955	109.76330
18050.00000	109.93188	-538.70000	109.93188
18100.00000	109.86776	-542.65533	109.86776
18150.00000	109.86033	-545.61013	109.86033
18200.00000	109.79010	-549.72462	109.79010
18250.00000	109.83811	-552.49565	109.83811
18300.00000	109.81936	-556.21447	109.81936
18350.00000	109.83590	-559.39100	109.83590
18400.00000	109.75762	-563.23947	109.75762
18450.00000	109.64420	-567.72616	109.64420
18500.00000	109.61651	-570.94676	109.61651
18550.00000	109.52670	-573.82019	109.52670
18600.00000	109.54348	-577.50665	109.54348
18650.00000	109.32458	-580.42532	109.32458
18700.00000	109.21344	-584.16191	109.21344
18750.00000	109.16955	-587.26533	109.16955
18800.00000	109.16896	-589.75187	109.16896
18850.00000	108.94154	-593.05241	108.94154
18900.00000	108.80103	-595.58583	108.80103
18950.00000	108.73364	-599.26309	108.73364
19000.00000	108.48559	-601.68960	108.48559
19050.00000	108.51298	-604.64334	108.51298
19100.00000	108.36023	-607.31532	108.36023
19150.00000	108.38796	-609.74811	108.38796
19200.00000	108.24043	-612.26053	108.24043
19250.00000	108.13461	-615.92636	108.13461
19300.00000	107.97752	-617.88203	107.97752
19350.00000	107.91107	-620.65580	107.91107
19400.00000	107.76063	-623.09661	107.76063
19450.00000	107.78223	-625.12736	107.78223
19500.00000	107.64007	-628.43456	107.64007
19550.00000	107.55026	-631.09791	107.55026
19600.00000	107.53729	-634.22460	107.53729
19650.00000	107.38369	-636.36905	107.38369
19700.00000	107.18742	-639.03601	107.18742
19750.00000	107.09531	-641.24967	107.09531
19800.00000	107.08255	-644.64141	107.08255
19850.00000	107.00689	-646.85501	107.00689
19900.00000	106.86025	-650.24601	106.86025
19950.00000	106.73245	-652.69756	106.73245
20000.00000	106.62955	-655.28063	106.62955
20050.00000	106.53915	-657.91158	106.53915
20100.00000	106.37456	-660.41366	106.37456
20150.00000	106.28552	-662.26663	106.28552
20200.00000	106.12592	-665.54150	106.12592
20250.00000	105.94174	-667.93306	105.94174
20300.00000	105.73479	-670.46671	105.73479
20350.00000	105.66384	-673.13968	105.66384
20400.00000	105.43680	-674.73114	105.43680
20450.00000	105.18901	-677.14741	105.18901
20500.00000	105.09373	-679.79594	105.09373
20550.00000	104.69515	-681.14903	104.69515
20600.00000	104.60145	-682.90265	104.60145
20650.00000	104.41453	-684.87102	104.41453
20700.00000	104.16738	-686.44240	104.16738
20750.00000	104.04465	-688.06736	104.04465
20800.00000	103.82456	-689.22369	103.82456
20850.00000	103.70792	-690.60670	103.70792
20900.00000	103.47741	-691.76403	103.47741
20950.00000	103.30583	-692.36825	103.30583
21000.00000	103.18896	-693.10155	103.18896
21050.00000	103.22262	-693.58474	103.22262
21100.00000	103.10758	-693.99635	103.10758
21150.00000	103.13689	-694.97807	103.13689
21200.00000	103.17571	-695.40126	103.17571
21250.00000	103.19447	-697.42282	103.19447
21300.00000	103.29061	-697.96891	103.29061
21350.00000	103.32432	-698.82490	103.32432
21400.00000	103.36615	-700.46513	103.36615
21450.00000	103.45576	-702.08242	103.45576
21500.00000	103.53908	-703.96890	103.53908
21550.00000	103.50889	-705.21561	103.50889
21600.00000	103.61250	-707.15381	103.61250
21650.00000	103.61211	-709.24219	103.61211
21700.00000	103.64695	-710.80288	103.64695
21750.00000	103.70186	-712.78506	103.70186
21800.00000	103.70269	-714.57236	103.70269
21850.00000	103.62353	-716.40153	103.62353
21900.00000	103.69106	-718.26950	103.69106
21950.00000	103.63085	-719.95407	103.63085
22000.00000	103.68688	-721.55679	103.68688
22050.00000	103.66553	-722.83576	103.66553
22100.00000	103.62535	-724.65670	103.62535
22150.00000	103.60676	-726.25575	103.60676
22200.00000	103.70557	-728.01668	103.70557
22250.00000	103.66319	-728.99263	103.66319
22300.00000	103.53584	-730.59530	103.53584
22350.00000	103.70831	-732.44326	103.70831
22400.00000	103.74344	-734.27279	103.74344
22450.00000	103.67826	-735.57165	103.67826
22500.00000	103.66227	-736.25675	103.66227
22550.00000	103.68482	-738.23578	103.68482
22600.00000	103.69745	-740.47130	103.69745
22650.00000	103.72396	-742.01357	103.72396
22700.00000	103.74817	-743.22282	103.74817
22750.00000	103.73667	-742.93882	103.73667
22800.00000	103.78185	-746.55001	103.78185
22850.00000	103.91771	-749.05661	103.91771
22900.00000	103.94303	-749.36056	103.94303
22950.00000	104.03720	-750.71466	104.03720
23000.00000	104.02432	-751.83276	104.02432
23050.00000	104.00005	-754.48130	104.00005
23100.00000	104.18556	-754.60734	104.18556
23150.00000	104.06166	-755.67181	104.06166
23200.00000	104.28618	-758.46041	104.28618
23250.00000	104.14959	-761.09600	104.14959
23300.00000	104.49003	-762.85535	104.49003
23350.00000	104.27338	-765.09269	104.27338
23400.00000	104.34297	-766.23035	104.34297
23450.00000	104.55295	-768.06764	104.55295
23500.00000	104.38774	-769.48669	104.38774
23550.00000	104.44116	-769.66392	104.44116
23600.00000	104.42486	-772.92774	104.42486
23650.00000	104.50832	-774.37769	104.50832
23700.00000	104.80258	-778.07925	104.80258
23750.00000	104.73349	-779.04746	104.73349
23800.00000	104.51978	-779.55086	104.51978
23850.00000	104.76805	-780.59662	104.76805
23900.00000	105.20552	-782.69961	105.20552
23950.00000	104.91454	-785.56508	104.91454
24000.00000	104.90417	-787.94652	104.90417
24050.00000	105.09026	-788.07221	105.09026
24100.00000	105.43487	-791.65285	105.43487
24150.00000	105.46947	-793.61607	105.46947
24200.00000	105.54692	-796.75135	105.54692
24250.00000	105.29926	-797.33179	105.29926
24300.00000	105.82178	-799.94773	105.82178
24350.00000	105.68289	-802.28469	105.68289
24400.00000	105.67183	-805.78998	105.67183
24450.00000	105.54966	-807.36611	105.54966
24500.00000	106.05420	-808.85501	106.05420
24550.00000	105.94500	-814.01238	105.94500
24600.00000	106.44385	-814.84462	106.44385
24650.00000	106.15357	-459.68110	106.15357
24700.00000	106.09289	-100.13319	106.09289
24750.00000	106.19592	255.00616	106.19592
24800.00000	106.23786	612.75684	106.23786
24850.00000	105.91813	971.15619	105.91813
24900.00000	106.09492	1329.11488	106.09492
24950.00000	106.26058	1685.39180	106.26058
25000.00000	106.30009	1676.76921	106.30009
25050.00000	106.26978	1677.11810	106.26978
25100.00000	105.78520	1673.93715	105.78520
25150.00000	106.14956	1672.63872	106.14956
25200.00000	105.89860	1668.37481	105.89860
25250.00000	105.97613	1666.98448	105.97613
25300.00000	105.88653	1665.40743	105.88653
25350.00000	105.80225	1658.58479	105.80225
25400.00000	105.67561	1655.13892	105.67561
25450.00000	105.73660	1653.52307	105.73660
25500.00000	105.53691	1651.59608	105.53691
25550.00000	105.42412	1648.04523	105.42412
25600.00000	105.43452	1645.74694	105.43452
25650.00000	105.27225	1644.02177	105.27225
25700.00000	105.24088	1641.16225	105.24088
25750.00000	105.02794	1638.30808	105.02794
25800.00000	104.95571	1635.20824	104.95571
25850.00000	104.90581	1632.59914	104.90581
25900.00000	104.79801	1629.17377	104.79801
25950.00000	104.54858	1630.57357	104.54858
26000.00000	104.62347	1625.80140	104.62347
26050.00000	104.50336	1623.48994	104.50336
26100.00000	104.30915	1620.45160	104.30915
26150.00000	104.38801	1618.86958	104.38801
26200.00000	104.44493	1616.46014	104.44493
26250.00000	104.31696	1614.55469	104.31696
26300.00000	104.42298	1611.17102	104.42298
26350.00000	104.01055	1610.37547	104.01055
26400.00000	104.01314	1607.58460	104.01314
26450.00000	104.28022	1604.27459	104.28022
26500.00000	104.05885	1601.63043	104.05885
26550.00000	104.04349	1596.62969	104.04349
26600.00000	103.93821	1594.84673	103.93821
26650.00000	104.06938	1595.16719	104.06938
26700.00000	103.95680	1591.59591	103.95680
26750.00000	103.78845	1588.52418	103.78845
26800.00000	103.78232	1583.27298	103.78232
26850.00000	104.04721	1582.11474	104.04721
26900.00000	104.03585	1580.12663	104.03585
26950.00000	104.13812	1575.32553	104.13812
27000.00000	103.65884	1574.20073	103.65884
27050.00000	103.95817	1570.34904	103.95817
27100.00000	103.67982	1568.36053	103.67982
27150.00000	103.65074	1563.42840	103.65074
27200.00000	103.72263	1561.39341	103.72263
27250.00000	103.27495	1559.21517	103.27495
27300.00000	102.86656	1554.84222	102.86656
27350.00000	103.15938	1553.87328	103.15938
27400.00000	102.73789	1550.06487	102.73789
27450.00000	102.53979	1547.31092	102.53979
27500.00000	102.44530	1544.36220	102.44530
27550.00000	102.36100	1541.16653	102.36100
27600.00000	102.38766	1536.61814	102.38766
27650.00000	101.78320	1536.43861	101.78320
27700.00000	101.69434	1531.11152	101.69434
27750.00000	101.54642	1528.24020	101.54642
27800.00000	101.37877	1523.77603	101.37877
27850.00000	101.41572	1525.30027	101.41572
27900.00000	100.69683	1522.40261	100.69683
27950.00000	99.91703	1520.00270	99.91703
28000.00000	99.97324	1519.07912	99.97324
28050.00000	100.33564	1515.85825	100.33564
28100.00000	99.42273	1514.36931	99.42273
28150.00000	99.30112	1512.78443	99.30112
28200.00000	99.54378	1509.04598	99.54378
28250.00000	98.68129	1506.93139	98.68129
28300.00000	98.31897	1507.03114	98.31897
28350.00000	98.21555	1507.38415	98.21555
28400.00000	97.98133	1507.50806	97.98133
28450.00000	98.33487	1503.69802	98.33487
28500.00000	97.49029	1503.98642	97.49029
28550.00000	97.48150	1505.62695	97.48150
28600.00000	97.30147	1504.96948	97.30147
28650.00000	97.36608	1500.33411	97.36608
28700.00000	97.13773	1503.16389	97.13773
28750.00000	97.43493	1504.34068	97.43493
28800.00000	97.24693	1502.75764	97.24693
28850.00000	96.48265	1500.36087	96.48265
28900.00000	96.62830	1498.98661	96.62830
28950.00000	96.52673	1501.31002	96.52673
29000.00000	96.60401	1500.13717	96.60401
29050.00000	96.38610	1501.89111	96.38610
29100.00000	96.41809	1504.19389	96.41809
29150.00000	96.15893	1501.94141	96.15893
29200.00000	96.18348	1501.98318	96.18348
29250.00000	96.48637	1501.69555	96.48637
29300.00000	96.22578	1500.53057	96.22578
29350.00000	96.81442	1499.59291	96.81442
29400.00000	96.51452	1499.60485	96.51452
29450.00000	96.61607	1499.71432	96.61607
29500.00000	96.96492	1500.81261	96.96492
29550.00000	96.83617	1497.57900	96.83617
29600.00000	96.78273	1498.80475	96.78273
29650.00000	97.02299	1496.45776	97.02299
29700.00000	97.27017	1497.93130	97.27017
29750.00000	97.18103	1498.87492	97.18103
29800.00000	97.20031	1497.08707	97.20031
29850.00000	97.50128	1496.09821	97.50128
29900.00000	97.85613	1496.50650	97.85613
29950.00000	97.29281	1496.11414	97.29281
30000.00000	97.77335	1497.49534	97.77335
30050.00000	98.02429	1495.04108	98.02429
30100.00000	97.94322	1496.60066	97.94322
30150.00000	98.27176	1492.53317	98.27176
30200.00000	98.32701	1491.60441	98.32701
30250.00000	98.30416	1491.93816	98.30416
30300.00000	98.23416	1492.31892	98.23416
30350.00000	98.39906	1493.93817	98.39906
30400.00000	98.59572	1491.98679	98.59572
30450.00000	98.42376	1491.86030	98.42376
30500.00000	98.57169	1490.97170	98.57169
30550.00000	98.73649	1492.67510	98.73649
30600.00000	98.87804	1493.45088	98.87804
30650.00000	99.01763	1493.56891	99.01763
30700.00000	99.25726	1492.88874	99.25726
30750.00000	99.24761	1494.91849	99.24761
30800.00000	99.50689	1494.93180	99.50689
30850.00000	99.94834	1496.78771	99.94834
30900.00000	99.96964	1498.77294	99.96964
30950.00000	100.55212	1497.66716	100.55212
31000.00000	100.98435	1497.26690	100.98435
31050.00000	101.42222	1498.31957	101.42222
31100.00000	102.03858	1498.76173	102.03858
31150.00000	102.19475	1498.30741	102.19475
31200.00000	103.05790	1497.15779	103.05790
31250.00000	103.53867	1496.38233	103.53867
31300.00000	104.05663	1494.98893	104.05663
31350.00000	104.68535	1493.38748	104.68535
31400.00000	105.08169	1490.75163	105.08169
31450.00000	105.66751	1488.50730	105.66751
31500.00000	106.06026	1485.30906	106.06026
31550.00000	106.60657	1482.46654	106.60657
31600.00000	107.18900	1478.28882	107.18900
31650.00000	107.53380	1474.76774	107.53380
31700.00000	107.96148	1472.10626	107.96148
31750.00000	108.33439	1469.29599	108.33439
31800.00000	108.65868	1464.65902	108.65868
31850.00000	109.00615	1459.83297	109.00615
31900.00000	109.10817	1456.19773	109.10817
31950.00000	109.41362	1452.19587	109.41362
32000.00000	109.65114	1447.87453	109.65114
32050.00000	109.85928	1443.95860	109.85928
32100.00000	109.95436	1439.18949	109.95436
32150.00000	110.14708	1435.98478	110.14708
32200.00000	110.34947	1430.96383	110.34947
32250.00000	110.38369	1426.05541	110.38369
32300.00000	110.42894	1422.68477	110.42894
32350.00000	110.47555	1418.83253	110.47555
32400.00000	110.52356	1414.98939	110.52356
32450.00000	110.50600	1410.16811	110.50600
32500.00000	110.59711	1406.52316	110.59711
32550.00000	110.63784	1401.70786	110.63784
32600.00000	110.53954	1398.37066	110.53954
32650.00000	110.61975	1394.04642	110.61975
32700.00000	110.45799	1390.00238	110.45799
32750.00000	110.30284	1385.29146	110.30284
32800.00000	110.31524	1382.19488	110.31524
32850.00000	110.31964	1378.19865	110.31964
32900.00000	110.09644	1373.83785	110.09644
32950.00000	109.81322	1369.14097	109.81322
33000.00000	109.70659	1368.23217	109.70659
33050.00000	109.48104	1363.00657	109.48104
33100.00000	109.40730	1359.94958	109.40730
33150.00000	109.15556	1356.93476	109.15556
33200.00000	109.12366	1355.42852	109.12366
33250.00000	108.86086	1351.76133	108.86086
33300.00000	108.78693	1347.56935	108.78693
33350.00000	108.30429	1345.21452	108.30429
33400.00000	108.03976	1344.10302	108.03976
33450.00000	107.99671	1341.03275	107.99671
33500.00000	108.01590	1340.24670	108.01590
33550.00000	107.51295	1336.78072	107.51295
33600.00000	107.59607	1335.45262	107.59607
33650.00000	107.34610	1333.06354	107.34610
33700.00000	107.19683	1331.81354	107.19683
33750.00000	106.99971	1329.53441	106.99971
33800.00000	106.98624	1327.97039	106.98624
33850.00000	106.66674	1326.84354	106.66674
33900.00000	106.74760	1324.97640	106.74760
33950.00000	106.58312	1323.67777	106.58312
34000.00000	106.57463	1322.65145	106.57463
34050.00000	106.47608	1320.54659	106.47608
34100.00000	106.30881	1321.13704	106.30881
34150.00000	106.44874	1318.95456	106.44874
34200.00000	106.36788	1320.37019	106.36788
34250.00000	106.56143	1316.77924	106.56143
34300.00000	106.49479	1315.05757	106.49479
34350.00000	106.70373	1313.80934	106.70373
34400.00000	106.40531	1314.02318	106.40531
34450.00000	106.47696	1311.64769	106.47696
34500.00000	106.67160	1312.33845	106.67160
34550.00000	106.90235	1311.32941	106.90235
34600.00000	106.91558	1308.87470	106.91558
34650.00000	107.38195	1308.59548	107.38195
34700.00000	107.03139	1308.23256	107.03139
34750.00000	107.40583	1303.30601	107.40583
34800.00000	107.54000	1304.55487	107.54000
34850.00000	107.93259	1304.46471	107.93259
34900.00000	108.40530	1300.79390	108.40530
34950.00000	108.36870	1299.99149	108.36870
35000.00000	108.52881	1297.46010	108.52881
35050.00000	108.85009	1296.89047	108.85009
35100.00000	109.07535	1293.20309	109.07535
35150.00000	109.09677	1293.08511	109.09677
35200.00000	109.35935	1289.76600	109.35935
35250.00000	109.66450	1287.30344	109.66450
35300.00000	109.89306	1285.67110	109.89306
35350.00000	110.22155	1282.69468	110.22155
35400.00000	110.37882	1280.36532	110.37882
35450.00000	110.51808	1278.52360	110.51808
35500.00000	110.36665	1276.73520	110.36665
35550.00000	110.93505	1274.83195	110.93505
35600.00000	111.03537	1271.43806	111.03537
35650.00000	111.26769	1269.51054	111.26769
35700.00000	111.43722	1266.34960	111.43722
35750.00000	111.43535	1265.41141	111.43535
35800.00000	111.67332	1263.73943	111.67332
35850.00000	112.06162	1260.03550	112.06162
35900.00000	112.20216	1257.61178	112.20216
35950.00000	112.52803	1254.88662	112.52803
36000.00000	112.45323	1252.35802	112.45323
36050.00000	112.77627	1250.10406	112.77627
36100.00000	113.11004	1247.54817	113.11004
36150.00000	113.08939	1244.65342	113.08939
36200.00000	113.28981	1243.28024	113.28981
36250.00000	113.36273	1239.52293	113.36273
36300.00000	113.42695	1237.31602	113.42695
36350.00000	113.81307	1234.88292	113.81307
36400.00000	114.06568	1232.42212	114.06568
36450.00000	113.95301	1229.32067	113.95301
36500.00000	114.30730	1227.71621	114.30730
36550.00000	114.34090	1224.15962	114.34090
36600.00000	114.41794	1221.74762	114.41794
36650.00000	114.65053	1219.25343	114.65053
36700.00000	114.83124	1215.91827	114.83124
36750.00000	114.91527	1213.33544	114.91527
36800.00000	114.94252	1211.01944	114.94252
36850.00000	114.95617	1208.05326	114.95617
36900.00000	115.23792	1205.62098	115.23792
36950.00000	115.17522	1202.86035	115.17522
37000.00000	115.06512	1200.74735	115.06512
37050.00000	115.16380	1198.53572	115.16380
37100.00000	115.44329	1194.91690	115.44329
37150.00000	115.52202	1191.88615	115.52202
37200.00000	115.74140	1190.42232	115.74140
37250.00000	115.51482	1188.04857	115.51482
37300.00000	115.61686	1185.63077	115.61686
37350.00000	115.96316	1183.60535	115.96316
37400.00000	115.76727	1181.87066	115.76727
37450.00000	115.79322	1179.44001	115.79322
37500.00000	116.14758	1177.22624	116.14758
37550.00000	116.05531	1175.14254	116.05531
37600.00000	116.21032	1172.73293	116.21032
37650.00000	116.33295	1171.52351	116.33295
37700.00000	116.46127	1167.84837	116.46127
37750.00000	116.69362	1166.60210	116.69362
37800.00000	116.62779	1163.32118	116.62779
37850.00000	116.83187	1159.84738	116.83187
37900.00000	116.95583	1158.46173	116.95583
37950.00000	117.20306	1156.73703	117.20306
38000.00000	117.22031	1154.77909	117.22031
38050.00000	117.53814	1151.85189	117.53814
38100.00000	117.86856	1148.46127	117.86856
38150.00000	117.94262	1145.16418	117.94262
38200.00000	118.21281	1141.88049	118.21281
38250.00000	118.35710	1138.93397	118.35710
38300.00000	118.65536	1134.91816	118.65536
38350.00000	118.78847	1131.98292	118.78847
38400.00000	119.04427	1128.38569	119.04427
38450.00000	119.23315	1123.81277	119.23315
38500.00000	119.45582	1119.54398	119.45582
38550.00000	119.73031	1115.86157	119.73031
38600.00000	119.90162	1111.48605	119.90162
38650.00000	120.12005	1106.82984	120.12005
38700.00000	120.18110	1101.69407	120.18110
38750.00000	120.34790	1097.11140	120.34790
38800.00000	120.51561	1092.45705	120.51561
38850.00000	120.60022	1087.22750	120.60022
38900.00000	120.71055	1082.00794	120.71055
38950.00000	120.70240	1076.59879	120.70240
39000.00000	120.72315	1071.30802	120.72315
39050.00000	120.83352	1066.15516	120.83352
39100.00000	120.68348	1060.88886	120.68348
39150.00000	120.60699	1055.18368	120.60699
39200.00000	120.59215	1050.02396	120.59215
39250.00000	120.47540	1044.42336	120.47540
39300.00000	120.29844	1039.03700	120.29844
39350.00000	120.15477	1034.68811	120.15477
39400.00000	119.99798	1029.10055	119.99798
39450.00000	119.75634	1024.57707	119.75634
39500.00000	119.61546	1019.49928	119.61546
39550.00000	119.33737	1014.22741	119.33737
39600.00000	119.01077	1009.79269	119.01077
39650.00000	118.76727	1005.44449	118.76727
39700.00000	118.46793	1000.88495	118.46793
39750.00000	118.14211	996.37820	118.14211
39800.00000	117.89554	992.15028	117.89554
39850.00000	117.50166	988.09382	117.50166
39900.00000	117.15275	984.25341	117.15275
39950.00000	116.85523	980.52396	116.85523
40000.00000	116.34812	978.66530	116.34812
40050.00000	116.09868	973.73390	116.09868
40100.00000	115.81076	970.58385	115.81076
40150.00000	115.43171	967.29661	115.43171
40200.00000	115.02191	963.82454	115.02191
40250.00000	114.65994	961.18638	114.65994
40300.00000	114.43919	958.73476	114.43919
40350.00000	113.89705	956.29092	113.89705
40400.00000	113.56919	954.34557	113.56919
40450.00000	113.24528	952.02316	113.24528
40500.00000	113.02135	950.28802	113.02135
40550.00000	112.63889	947.90057	112.63889
40600.00000	112.26272	946.40611	112.26272
40650.00000	111.99277	945.20275	111.99277
40700.00000	111.50019	944.34070	111.50019
40750.00000	111.43272	942.70763	111.43272
40800.00000	111.10645	941.22779	111.10645
40850.00000	110.79112	940.91172	110.79112
40900.00000	110.45964	939.68334	110.45964
40950.00000	110.21347	939.96456	110.21347
41000.00000	109.74187	939.01936	109.74187
41050.00000	109.73486	938.97248	109.73486
41100.00000	109.69845	938.26282	109.69845
41150.00000	109.60112	939.88760	109.60112
41200.00000	109.62636	939.21151	109.62636
41250.00000	109.23798	937.13452	109.23798
41300.00000	109.09003	938.36033	109.09003
41350.00000	109.15185	939.85393	109.15185
41400.00000	109.03043	936.36412	109.03043
41450.00000	109.09641	939.56054	109.09641
41500.00000	109.00464	936.66071	109.00464
41550.00000	108.79662	942.44376	108.79662
41600.00000	108.56897	939.96339	108.56897
41650.00000	108.99001	938.31259	108.99001
41700.00000	109.12250	940.29271	109.12250
41750.00000	109.05262	943.97646	109.05262
41800.00000	108.23348	939.41076	108.23348
41850.00000	108.50230	940.86228	108.50230
41900.00000	108.36067	941.85597	108.36067
41950.00000	109.63159	946.90824	109.63159
42000.00000	108.98625	939.62669	108.98625
42050.00000	107.85495	940.85209	107.85495
42100.00000	108.42275	941.26731	108.42275
42150.00000	108.00832	937.28036	108.00832
42200.00000	108.11937	942.63124	108.11937
42250.00000	108.14838	943.48051	108.14838
42300.00000	107.43726	939.92377	107.43726
42350.00000	108.02195	940.65332	108.02195
42400.00000	108.10415	945.44838	108.10415
42450.00000	108.57875	936.53408	108.57875
42500.00000	108.01052	937.83116	108.01052
42550.00000	108.18889	947.76652	108.18889
42600.00000	108.27503	939.45223	108.27503
42650.00000	107.77873	942.00826	107.77873
42700.00000	108.15568	940.70896	108.15568
42750.00000	108.78226	937.70490	108.78226
42800.00000	108.16929	928.82889	108.16929
42850.00000	108.09769	930.04249	108.09769
42900.00000	109.10494	932.99864	109.10494
42950.00000	108.36612	929.49146	108.36612
43000.00000	109.17183	919.10561	109.17183
43050.00000	108.35539	917.76388	108.35539
43100.00000	108.85921	921.57659	108.85921
43150.00000	108.11267	915.92555	108.11267
43200.00000	108.08760	912.38332	108.08760
43250.00000	108.77401	909.91802	108.77401
43300.00000	108.89619	906.49083	108.89619
43350.00000	109.68661	901.41033	109.68661
43400.00000	108.68506	897.98551	108.68506
43450.00000	110.03156	897.25269	110.03156
43500.00000	108.35530	890.43453	108.35530
43550.00000	108.99259	885.81766	108.99259
43600.00000	108.86780	881.34402	108.86780
43650.00000	109.12244	872.13468	109.12244
43700.00000	108.85492	873.50164	108.85492
43750.00000	108.39635	871.67152	108.39635
43800.00000	108.61072	860.96602	108.61072
43850.00000	109.33677	857.27221	109.33677
43900.00000	109.49972	856.05590	109.49972
43950.00000	109.56129	849.79645	109.56129
44000.00000	108.74276	845.19479	108.74276
44050.00000	109.32240	840.38149	109.32240
44100.00000	109.47401	827.93056	109.47401
44150.00000	109.13237	830.11293	109.13237
44200.00000	108.99533	828.17903	108.99533
44250.00000	109.40425	821.07483	109.40425
44300.00000	109.32272	812.88868	109.32272
44350.00000	108.26195	808.66689	108.26195
44400.00000	109.27291	803.66594	109.27291
44450.00000	109.47006	802.01887	109.47006
44500.00000	109.14691	798.18612	109.14691
44550.00000	110.35335	787.95264	110.35335
44600.00000	109.12456	786.52246	109.12456
44650.00000	108.45118	780.22145	108.45118
44700.00000	108.66163	775.98314	108.66163
44750.00000	108.45330	773.42055	108.45330
44800.00000	108.83952	767.56582	108.83952
44850.00000	108.25090	759.82321	108.25090
44900.00000	107.90122	758.23721	107.90122
44950.00000	108.29941	753.23589	108.29941
45000.00000	108.23086	742.92053	108.23086
45050.00000	106.64567	749.55701	106.64567
45100.00000	107.03461	740.08158	107.03461
45150.00000	106.77415	731.23742	106.77415
45200.00000	106.50992	733.51179	106.50992
45250.00000	106.31044	727.59020	106.31044
45300.00000	106.41726	720.00236	106.41726
45350.00000	105.67691	714.34755	105.67691
45400.00000	105.68486	714.43069	105.68486
45450.00000	105.86883	706.73582	105.86883
45500.00000	104.03414	700.91827	104.03414
45550.00000	104.01032	704.13006	104.01032
45600.00000	104.50625	694.68371	104.50625
45650.00000	103.12979	687.83496	103.12979
45700.00000	102.71546	687.47549	102.71546
45750.00000	103.57783	689.36180	103.57783
45800.00000	102.15223	681.82661	102.15223
45850.00000	101.87010	681.47007	101.87010
45900.00000	101.51014	679.00456	101.51014
45950.00000	101.03589	680.26114	101.03589
46000.00000	99.71497	660.12870	99.71497
46050.00000	99.82699	664.50469	99.82699
46100.00000	98.32268	664.70327	98.32268
46150.00000	98.54212	666.70564	98.54212
46200.00000	95.80009	653.15846	95.80009
46250.00000	97.53591	655.40494	97.53591
46300.00000	96.32110	657.71469	96.32110
46350.00000	97.62626	650.56768	97.62626
46400.00000	95.53692	646.33598	95.53692
46450.00000	93.50386	647.42712	93.50386
46500.00000	94.32843	653.50877	94.32843
46550.00000	93.64536	654.87339	93.64536
46600.00000	94.62868	660.34628	94.62868
46650.00000	91.43354	653.45274	91.43354
46700.00000	91.64021	666.09664	91.64021
46750.00000	91.69460	676.22508	91.69460
46800.00000	90.41460	665.07654	90.41460
46850.00000	91.20689	321.62229	91.20689
46900.00000	92.21733	308.17502	92.21733
46950.00000	92.11785	315.89504	92.11785
47000.00000	92.53878	322.47594	92.53878
47050.00000	94.10660	310.51556	94.10660
47100.00000	93.26308	310.50992	93.26308
47150.00000	93.91971	309.93704	93.91971
47200.00000	92.84430	309.42237	92.84430
47250.00000	94.78423	311.02064	94.78423
47300.00000	93.77210	296.33372	93.77210
47350.00000	93.87560	-50.46490	93.87560
47400.00000	93.39076	-55.05559	93.39076
47450.00000	94.88358	-50.67171	94.88358
47500.00000	93.03491	-68.55034	93.03491
47550.00000	93.11564	-416.88362	93.11564
47600.00000	92.64278	-425.86884	92.64278
47650.00000	94.61126	-425.78498	94.61126
47700.00000	92.29437	-426.35148	92.29437
47750.00000	90.79679	-423.86919	90.79679
47800.00000	92.21996	-440.13214	92.21996
47850.00000	93.17838	-791.11409	93.17838
47900.00000	93.35453	-1139.73035	93.35453
47950.00000	92.04175	-1144.53204	92.04175
48000.00000	92.87833	-1137.54688	92.87833
48050.00000	94.10163	-1150.46959	94.10163
48100.00000	92.41334	-1152.25377	92.41334
48150.00000	93.59803	-1511.09320	93.59803
48200.00000	93.82652	-1505.96221	93.82652
48250.00000	93.04603	-1513.22030	93.04603
48300.00000	93.13053	-1514.76398	93.13053
48350.00000	93.93561	-1520.46022	93.93561
48400.00000	94.77398	-1864.15800	94.77398
48450.00000	95.74889	-1875.88187	95.74889
48500.00000	94.75168	-1876.13007	94.75168
48550.00000	93.92494	-1883.57947	93.92494
48600.00000	95.44466	-2242.82669	95.44466
48650.00000	96.21111	-2245.85527	96.21111
48700.00000	96.22626	-2255.60393	96.22626
48750.00000	95.30641	-2607.75978	95.30641
48800.00000	95.51991	-2615.88024	95.51991
48850.00000	96.25234	-2622.96043	96.25234
48900.00000	94.59887	-2975.08717	94.59887
48950.00000	95.82166	-2995.68937	95.82166
49000.00000	96.96096	-2995.78470	96.96096
49050.00000	95.77997	-3002.60618	95.77997
49100.00000	95.99745	-3363.13324	95.99745
49150.00000	96.87943	-3731.84143	96.87943
49200.00000	95.58088	-3736.65405	95.58088
49250.00000	96.05915	-4091.23770	96.05915
49300.00000	97.01401	-3750.59462	97.01401
49350.00000	95.37685	-3737.35921	95.37685
49400.00000	94.73917	-3396.28287	94.73917
49450.00000	92.99936	-3045.18248	92.99936
49500.00000	93.48655	-2695.67917	93.48655
49550.00000	94.31878	-2350.10440	94.31878
49600.00000	94.02653	-2346.89534	94.02653
49650.00000	94.14546	-2346.05469	94.14546
49700.00000	93.62595	-2022.64256	93.62595
49750.00000	94.40919	-2029.93294	94.40919
49800.00000	92.98721	-2028.26269	92.98721
49850.00000	92.34065	-2026.90957	92.34065
49900.00000	93.09825	-1683.80624	93.09825
49950.00000	94.34291	-1369.84280	94.34291
