---ACOUSTIC CALIBRATION---
Filename: C:\Data\AZH DATA\AZH71\RightSecondary.calib
Date: 8/27/2019 5:31:31 PM
Format: 4
Probe Tube Correction File: C:\Data\Probe Tube Calibrations\50_ProbeTube.calib
Experiment VIs: 850
EPL_CFTS.exe V12.0.1 (2012)
DAQmx V9.6

Attenuation (dB): 40.000000
Min Freq (Hz): 50.000000
Max Freq (Hz): 49950.000000
Freq Step (Hz): 50.000000
Sample Rate (Hz): 100000.000000
[Smoothing]
Method=None
MA.Iterations=0
MA.Length=0
Loess.Length=0
Loess.Type=Linear
Loess.Robust=FALSE


Freq(Hz)	Mag(dB)	Phase(deg)	Unsmoothed(dB)

50.00000	99.64174	596.23913	99.64174
100.00000	81.59591	581.48031	81.59591
150.00000	78.77224	498.06101	78.77224
200.00000	80.46868	406.19482	80.46868
250.00000	90.81433	390.47133	90.81433
300.00000	89.80774	302.41712	89.80774
350.00000	83.38222	302.21180	83.38222
400.00000	88.42987	312.04692	88.42987
450.00000	85.95588	273.46684	85.95588
500.00000	84.82332	324.18277	84.82332
550.00000	89.69009	322.87711	89.69009
600.00000	90.66824	333.16841	90.66824
650.00000	94.13530	322.82866	94.13530
700.00000	96.23688	318.00551	96.23688
750.00000	98.53008	312.72688	98.53008
800.00000	101.41739	307.10600	101.41739
850.00000	103.33360	294.72445	103.33360
900.00000	104.93408	277.87290	104.93408
950.00000	106.17956	261.39606	106.17956
1000.00000	106.24937	243.12517	106.24937
1050.00000	105.73516	233.24889	105.73516
1100.00000	105.87582	222.56682	105.87582
1150.00000	105.05000	213.48267	105.05000
1200.00000	104.93311	209.58085	104.93311
1250.00000	105.00772	200.81787	105.00772
1300.00000	104.46696	194.15992	104.46696
1350.00000	103.75355	188.50153	103.75355
1400.00000	102.99869	188.65871	102.99869
1450.00000	102.93745	188.41722	102.93745
1500.00000	102.76715	185.83694	102.76715
1550.00000	103.02089	184.79672	103.02089
1600.00000	103.78690	182.88818	103.78690
1650.00000	104.66393	174.31499	104.66393
1700.00000	103.35962	171.13681	103.35962
1750.00000	103.40837	169.81487	103.40837
1800.00000	103.31785	168.69178	103.31785
1850.00000	103.08116	169.06817	103.08116
1900.00000	104.01257	170.41257	104.01257
1950.00000	104.91884	161.74790	104.91884
2000.00000	104.73397	151.70997	104.73397
2050.00000	103.78578	148.57182	103.78578
2100.00000	103.14117	146.14059	103.14117
2150.00000	103.38678	142.82619	103.38678
2200.00000	102.90053	139.44111	102.90053
2250.00000	102.06142	139.23518	102.06142
2300.00000	102.06640	140.28159	102.06640
2350.00000	101.85017	142.11438	101.85017
2400.00000	102.04084	142.98815	102.04084
2450.00000	102.19466	140.47010	102.19466
2500.00000	101.95266	140.45841	101.95266
2550.00000	101.59038	142.67253	101.59038
2600.00000	101.70759	146.83268	101.70759
2650.00000	102.59773	151.70557	102.59773
2700.00000	103.97571	152.66587	103.97571
2750.00000	105.40950	145.99428	105.40950
2800.00000	106.06623	136.94230	106.06623
2850.00000	106.06211	129.03800	106.06211
2900.00000	105.84636	123.00490	105.84636
2950.00000	105.52008	118.90272	105.52008
3000.00000	105.30515	114.81976	105.30515
3050.00000	105.00974	111.93790	105.00974
3100.00000	104.90553	109.16474	104.90553
3150.00000	104.62648	104.13529	104.62648
3200.00000	104.01054	100.20489	104.01054
3250.00000	103.32282	97.78850	103.32282
3300.00000	102.48166	94.26614	102.48166
3350.00000	101.20988	93.59100	101.20988
3400.00000	99.82287	98.86119	99.82287
3450.00000	99.02946	107.27805	99.02946
3500.00000	99.03610	117.49091	99.03610
3550.00000	99.60695	124.59837	99.60695
3600.00000	100.41056	128.96569	100.41056
3650.00000	100.76707	130.40200	100.76707
3700.00000	100.68610	133.56409	100.68610
3750.00000	100.54624	142.63986	100.54624
3800.00000	101.53202	154.10085	101.53202
3850.00000	103.23132	161.59959	103.23132
3900.00000	105.26810	164.72730	105.26810
3950.00000	107.21272	163.69186	107.21272
4000.00000	108.78203	160.47037	108.78203
4050.00000	110.07660	156.36978	110.07660
4100.00000	111.14618	152.85266	111.14618
4150.00000	112.33174	149.45107	112.33174
4200.00000	113.22079	145.36481	113.22079
4250.00000	114.14574	141.46119	114.14574
4300.00000	115.04290	137.82589	115.04290
4350.00000	115.89254	134.29710	115.89254
4400.00000	116.82911	131.62114	116.82911
4450.00000	117.91992	128.77399	117.91992
4500.00000	119.17878	125.05000	119.17878
4550.00000	120.53289	120.20275	120.53289
4600.00000	121.90288	113.96240	121.90288
4650.00000	123.32733	106.25062	123.32733
4700.00000	124.69832	96.52220	124.69832
4750.00000	125.93555	84.84966	125.93555
4800.00000	126.93002	71.08299	126.93002
4850.00000	127.53204	55.89732	127.53204
4900.00000	127.65191	39.99796	127.65191
4950.00000	127.25082	24.66073	127.25082
5000.00000	126.31789	11.35810	126.31789
5050.00000	125.20681	 1.67918	125.20681
5100.00000	124.02209	-8.17852	124.02209
5150.00000	121.57194	-13.17653	121.57194
5200.00000	119.55587	 2.13456	119.55587
5250.00000	122.22069	16.07012	122.22069
5300.00000	124.66467	 5.31417	124.66467
5350.00000	125.36874	-8.86323	125.36874
5400.00000	125.32666	-20.98166	125.32666
5450.00000	124.99161	-30.84719	124.99161
5500.00000	124.55044	-39.24177	124.55044
5550.00000	124.08000	-46.38921	124.08000
5600.00000	123.60171	-52.83982	123.60171
5650.00000	123.14213	-58.60927	123.14213
5700.00000	122.67079	-64.19847	122.67079
5750.00000	122.23551	-69.08773	122.23551
5800.00000	121.78569	-73.85605	121.78569
5850.00000	121.37195	-78.37884	121.37195
5900.00000	120.97407	-82.63845	120.97407
5950.00000	120.58652	-86.66008	120.58652
6000.00000	120.20638	-90.52203	120.20638
6050.00000	119.83048	-94.42926	119.83048
6100.00000	119.46814	-98.20497	119.46814
6150.00000	119.10828	-101.87805	119.10828
6200.00000	118.73581	-105.36197	118.73581
6250.00000	118.38765	-108.71209	118.38765
6300.00000	118.05177	-112.03012	118.05177
6350.00000	117.69941	-115.32480	117.69941
6400.00000	117.36386	-118.46735	117.36386
6450.00000	117.04752	-121.56127	117.04752
6500.00000	116.69796	-124.51481	116.69796
6550.00000	116.35746	-127.28435	116.35746
6600.00000	116.01941	-130.09337	116.01941
6650.00000	115.68113	-132.69680	115.68113
6700.00000	115.34557	-135.39186	115.34557
6750.00000	115.00643	-137.78970	115.00643
6800.00000	114.68445	-139.96614	114.68445
6850.00000	114.35437	-142.07593	114.35437
6900.00000	114.05036	-144.02432	114.05036
6950.00000	113.75218	-145.89801	113.75218
7000.00000	113.49539	-147.57201	113.49539
7050.00000	113.25582	-149.27566	113.25582
7100.00000	113.04580	-150.89379	113.04580
7150.00000	112.85704	-152.40244	112.85704
7200.00000	112.66979	-154.00962	112.66979
7250.00000	112.46131	-155.62812	112.46131
7300.00000	112.35530	-156.80440	112.35530
7350.00000	112.21139	-158.20115	112.21139
7400.00000	112.12644	-159.65846	112.12644
7450.00000	112.03688	-161.14803	112.03688
7500.00000	112.01515	-162.59923	112.01515
7550.00000	112.00243	-164.24522	112.00243
7600.00000	111.97297	-165.96073	111.97297
7650.00000	111.98889	-167.93293	111.98889
7700.00000	112.05035	-170.08022	112.05035
7750.00000	112.03711	-172.47936	112.03711
7800.00000	112.06388	-175.03878	112.06388
7850.00000	112.06928	-177.68155	112.06928
7900.00000	112.08906	-180.51020	112.08906
7950.00000	112.07262	-183.76629	112.07262
8000.00000	112.01064	-187.00066	112.01064
8050.00000	111.92478	-190.53558	111.92478
8100.00000	111.82889	-193.41743	111.82889
8150.00000	111.64311	-196.62166	111.64311
8200.00000	111.49009	-199.55537	111.49009
8250.00000	111.26812	-202.77549	111.26812
8300.00000	111.07644	-205.63373	111.07644
8350.00000	110.86397	-208.23051	110.86397
8400.00000	110.63818	-211.25454	110.63818
8450.00000	110.33201	-213.83828	110.33201
8500.00000	110.07450	-216.25560	110.07450
8550.00000	109.84031	-218.37460	109.84031
8600.00000	109.55774	-220.84996	109.55774
8650.00000	109.27836	-222.79231	109.27836
8700.00000	109.01726	-225.35679	109.01726
8750.00000	108.72039	-226.46578	108.72039
8800.00000	108.48587	-228.69410	108.48587
8850.00000	108.22626	-230.63726	108.22626
8900.00000	108.01516	-232.18542	108.01516
8950.00000	107.82579	-234.12686	107.82579
9000.00000	107.57406	-235.93000	107.57406
9050.00000	107.45370	-237.46929	107.45370
9100.00000	107.36366	-238.78392	107.36366
9150.00000	107.26694	-240.21310	107.26694
9200.00000	107.20149	-241.77490	107.20149
9250.00000	107.07499	-242.90050	107.07499
9300.00000	107.02061	-244.28650	107.02061
9350.00000	106.96425	-245.77803	106.96425
9400.00000	106.77609	-246.72642	106.77609
9450.00000	106.70444	-248.18740	106.70444
9500.00000	106.64490	-249.39284	106.64490
9550.00000	106.57306	-250.74211	106.57306
9600.00000	106.64215	-252.50549	106.64215
9650.00000	106.66373	-254.75368	106.66373
9700.00000	106.72795	-255.98174	106.72795
9750.00000	106.84965	-258.38892	106.84965
9800.00000	106.91153	-259.51541	106.91153
9850.00000	106.96133	-260.68518	106.96133
9900.00000	106.84613	-262.34896	106.84613
9950.00000	106.82072	-263.40507	106.82072
10000.00000	106.76934	-265.50861	106.76934
10050.00000	106.64458	-267.49353	106.64458
10100.00000	106.52798	-269.76335	106.52798
10150.00000	106.37254	-273.16290	106.37254
10200.00000	106.36776	-276.21740	106.36776
10250.00000	106.32217	-279.64873	106.32217
10300.00000	106.43569	-282.61374	106.43569
10350.00000	106.45146	-285.23517	106.45146
10400.00000	106.41537	-287.78983	106.41537
10450.00000	106.48993	-290.38624	106.48993
10500.00000	106.46718	-292.57715	106.46718
10550.00000	106.38565	-295.05911	106.38565
10600.00000	106.22564	-297.70665	106.22564
10650.00000	106.05429	-300.26122	106.05429
10700.00000	105.93081	-304.38208	105.93081
10750.00000	105.86728	-307.96386	105.86728
10800.00000	105.73489	-311.17220	105.73489
10850.00000	105.65111	-315.32663	105.65111
10900.00000	105.54791	-317.94779	105.54791
10950.00000	105.40580	-320.23614	105.40580
11000.00000	105.20059	-322.67172	105.20059
11050.00000	104.74309	-325.10064	104.74309
11100.00000	104.40114	-328.11508	104.40114
11150.00000	103.91180	-330.80388	103.91180
11200.00000	103.59910	-333.62077	103.59910
11250.00000	103.16337	-336.80105	103.16337
11300.00000	102.80051	-339.46173	102.80051
11350.00000	102.51608	-341.02742	102.51608
11400.00000	102.11123	-342.53108	102.11123
11450.00000	101.76412	-343.90913	101.76412
11500.00000	101.50798	-343.86702	101.50798
11550.00000	101.03983	-344.36042	101.03983
11600.00000	100.74073	-346.02514	100.74073
11650.00000	100.38252	-345.99565	100.38252
11700.00000	100.18834	-347.33704	100.18834
11750.00000	100.05925	-348.46177	100.05925
11800.00000	99.98318	-349.68695	99.98318
11850.00000	99.95740	-349.28032	99.95740
11900.00000	99.70937	-350.11752	99.70937
11950.00000	99.61865	-350.29114	99.61865
12000.00000	99.37155	-350.36515	99.37155
12050.00000	99.12316	-350.96770	99.12316
12100.00000	98.93987	-353.35607	98.93987
12150.00000	98.73735	-355.46814	98.73735
12200.00000	98.70822	-357.48992	98.70822
12250.00000	98.64521	-358.57206	98.64521
12300.00000	99.68318	-360.26022	99.68318
12350.00000	98.46306	-360.99109	98.46306
12400.00000	98.25835	-360.74093	98.25835
12450.00000	97.96985	-361.03729	97.96985
12500.00000	97.68416	-362.13795	97.68416
12550.00000	97.43298	-363.68044	97.43298
12600.00000	97.17201	-364.99166	97.17201
12650.00000	97.18717	-366.18275	97.18717
12700.00000	96.96077	-366.95015	96.96077
12750.00000	96.87120	-367.82054	96.87120
12800.00000	96.69136	-367.25697	96.69136
12850.00000	96.22276	-367.32816	96.22276
12900.00000	96.16250	-368.00559	96.16250
12950.00000	96.02304	-369.12073	96.02304
13000.00000	95.82514	-370.61177	95.82514
13050.00000	95.95849	-370.31310	95.95849
13100.00000	95.83709	-371.20252	95.83709
13150.00000	95.83987	-371.93340	95.83987
13200.00000	95.64807	-370.16900	95.64807
13250.00000	95.55316	-370.89957	95.55316
13300.00000	95.22939	-369.46802	95.22939
13350.00000	95.06660	-371.64461	95.06660
13400.00000	95.11815	-373.27290	95.11815
13450.00000	94.85924	-373.16238	94.85924
13500.00000	95.10971	-372.97346	95.10971
13550.00000	94.83046	-373.01686	94.83046
13600.00000	94.71858	-371.71021	94.71858
13650.00000	94.62548	-370.93937	94.62548
13700.00000	94.30487	-370.51084	94.30487
13750.00000	93.98959	-370.68610	93.98959
13800.00000	93.83001	-372.43161	93.83001
13850.00000	93.83365	-373.15421	93.83365
13900.00000	93.75046	-373.22187	93.75046
13950.00000	93.84004	-372.67728	93.84004
14000.00000	94.02497	-370.42181	94.02497
14050.00000	94.17310	-370.08966	94.17310
14100.00000	93.86511	-368.20767	93.86511
14150.00000	94.11230	-367.59031	94.11230
14200.00000	94.26430	-366.40729	94.26430
14250.00000	94.56779	-364.56277	94.56779
14300.00000	94.54752	-363.68497	94.54752
14350.00000	94.58837	-361.41233	94.58837
14400.00000	94.27779	-360.58236	94.27779
14450.00000	94.50539	-359.86771	94.50539
14500.00000	94.68900	-360.62010	94.68900
14550.00000	95.18278	-358.77468	95.18278
14600.00000	95.39653	-358.76497	95.39653
14650.00000	96.04829	-355.22559	96.04829
14700.00000	96.40641	-357.63081	96.40641
14750.00000	96.69643	-357.16986	96.69643
14800.00000	96.91170	-355.92690	96.91170
14850.00000	97.41880	-355.46095	97.41880
14900.00000	97.86617	-356.43894	97.86617
14950.00000	98.30796	-357.43173	98.30796
15000.00000	98.80947	-358.61961	98.80947
15050.00000	99.09988	-358.06504	99.09988
15100.00000	99.60602	-358.33222	99.60602
15150.00000	100.25409	-359.76481	100.25409
15200.00000	100.57768	-358.76532	100.57768
15250.00000	100.86976	-360.33889	100.86976
15300.00000	101.46571	-361.45098	101.46571
15350.00000	101.79534	-364.33068	101.79534
15400.00000	102.17233	-364.96870	102.17233
15450.00000	102.62331	-367.28579	102.62331
15500.00000	103.17002	-369.28091	103.17002
15550.00000	103.65832	-372.09231	103.65832
15600.00000	104.12314	-374.84800	104.12314
15650.00000	104.69593	-375.75578	104.69593
15700.00000	105.00105	-379.36935	105.00105
15750.00000	105.44257	-381.13769	105.44257
15800.00000	105.76762	-383.16716	105.76762
15850.00000	106.08376	-386.35424	106.08376
15900.00000	106.34717	-389.87469	106.34717
15950.00000	106.75931	-393.01219	106.75931
16000.00000	107.05608	-395.85998	107.05608
16050.00000	107.40264	-398.89643	107.40264
16100.00000	107.50607	-402.90850	107.50607
16150.00000	107.79315	-405.79502	107.79315
16200.00000	108.07062	-409.61527	108.07062
16250.00000	108.28543	-412.14749	108.28543
16300.00000	108.58982	-415.03304	108.58982
16350.00000	108.68623	-418.33791	108.68623
16400.00000	108.83173	-421.34077	108.83173
16450.00000	108.99734	-424.31654	108.99734
16500.00000	109.15494	-427.62490	109.15494
16550.00000	109.32488	-431.11960	109.32488
16600.00000	109.48501	-433.74985	109.48501
16650.00000	109.58653	-436.40082	109.58653
16700.00000	109.72567	-438.53094	109.72567
16750.00000	109.72710	-441.57923	109.72710
16800.00000	109.89222	-444.54112	109.89222
16850.00000	110.08162	-447.22343	110.08162
16900.00000	110.25634	-449.86631	110.25634
16950.00000	110.38394	-452.28491	110.38394
17000.00000	110.37844	-455.02149	110.37844
17050.00000	110.58069	-457.16379	110.58069
17100.00000	110.65862	-458.72591	110.65862
17150.00000	110.98327	-462.18029	110.98327
17200.00000	111.15389	-464.44743	111.15389
17250.00000	111.23607	-467.53044	111.23607
17300.00000	111.45479	-470.22827	111.45479
17350.00000	111.51382	-472.73946	111.51382
17400.00000	111.78686	-475.56447	111.78686
17450.00000	111.87159	-478.81672	111.87159
17500.00000	112.07212	-481.62569	112.07212
17550.00000	112.23268	-484.71025	112.23268
17600.00000	112.47579	-487.42623	112.47579
17650.00000	112.60114	-491.31444	112.60114
17700.00000	112.73987	-494.42035	112.73987
17750.00000	112.96353	-497.04842	112.96353
17800.00000	112.99353	-500.85735	112.99353
17850.00000	113.12588	-503.68265	113.12588
17900.00000	113.19375	-507.06529	113.19375
17950.00000	113.36719	-510.83581	113.36719
18000.00000	113.45871	-514.66702	113.45871
18050.00000	113.67708	-517.46041	113.67708
18100.00000	113.67953	-521.34075	113.67953
18150.00000	113.71289	-524.20886	113.71289
18200.00000	113.71317	-528.29624	113.71317
18250.00000	113.84868	-530.96235	113.84868
18300.00000	113.97333	-534.54389	113.97333
18350.00000	113.98588	-537.66198	113.98588
18400.00000	113.96969	-541.32235	113.96969
18450.00000	113.95597	-545.91763	113.95597
18500.00000	114.01156	-549.14232	114.01156
18550.00000	114.00383	-551.96149	114.00383
18600.00000	114.09221	-555.88213	114.09221
18650.00000	113.97137	-558.88615	113.97137
18700.00000	113.94881	-562.76283	113.94881
18750.00000	114.01091	-566.14420	114.01091
18800.00000	114.10464	-568.93941	114.10464
18850.00000	113.97746	-572.51099	113.97746
18900.00000	113.94563	-575.89597	113.94563
18950.00000	113.92285	-579.77775	113.92285
19000.00000	113.75119	-582.79425	113.75119
19050.00000	113.85533	-586.27377	113.85533
19100.00000	113.75152	-589.43544	113.75152
19150.00000	113.82584	-592.64095	113.82584
19200.00000	113.71958	-595.76186	113.71958
19250.00000	113.65075	-600.20372	113.65075
19300.00000	113.51095	-602.88939	113.51095
19350.00000	113.45058	-606.27041	113.45058
19400.00000	113.32061	-609.37859	113.32061
19450.00000	113.30895	-612.21272	113.30895
19500.00000	113.15474	-616.39809	113.15474
19550.00000	113.04864	-619.46441	113.04864
19600.00000	113.00789	-623.12856	113.00789
19650.00000	112.82424	-625.81651	112.82424
19700.00000	112.58605	-629.22889	112.58605
19750.00000	112.44492	-631.80428	112.44492
19800.00000	112.40123	-635.70121	112.40123
19850.00000	112.27180	-638.40864	112.27180
19900.00000	112.05390	-642.15352	112.05390
19950.00000	111.87250	-645.04083	111.87250
20000.00000	111.70219	-647.99638	111.70219
20050.00000	111.55248	-650.90596	111.55248
20100.00000	111.29677	-653.75903	111.29677
20150.00000	111.17278	-655.74472	111.17278
20200.00000	110.91998	-659.24248	110.91998
20250.00000	110.67654	-661.87921	110.67654
20300.00000	110.40149	-664.54420	110.40149
20350.00000	110.26303	-667.16035	110.26303
20400.00000	109.97612	-668.81085	109.97612
20450.00000	109.65030	-671.27894	109.65030
20500.00000	109.49856	-673.87322	109.49856
20550.00000	109.04189	-675.14606	109.04189
20600.00000	108.88380	-676.82666	108.88380
20650.00000	108.63128	-678.62418	108.63128
20700.00000	108.33506	-680.20832	108.33506
20750.00000	108.17119	-681.48062	108.17119
20800.00000	107.91423	-682.42537	107.91423
20850.00000	107.76869	-683.56124	107.76869
20900.00000	107.49441	-684.42553	107.49441
20950.00000	107.31264	-684.87868	107.31264
21000.00000	107.18077	-685.40366	107.18077
21050.00000	107.20198	-685.56344	107.20198
21100.00000	107.07773	-685.70119	107.07773
21150.00000	107.09766	-686.48734	107.09766
21200.00000	107.13458	-686.74816	107.13458
21250.00000	107.15742	-688.45520	107.15742
21300.00000	107.26266	-688.47133	107.26266
21350.00000	107.29162	-689.32181	107.29162
21400.00000	107.34661	-690.83553	107.34661
21450.00000	107.44213	-692.16826	107.44213
21500.00000	107.55827	-693.90440	107.55827
21550.00000	107.52921	-694.85959	107.52921
21600.00000	107.65515	-696.57686	107.65515
21650.00000	107.66885	-698.51473	107.66885
21700.00000	107.75416	-699.95375	107.75416
21750.00000	107.81225	-701.51571	107.81225
21800.00000	107.86068	-703.19657	107.86068
21850.00000	107.81080	-704.84316	107.81080
21900.00000	107.91974	-706.78839	107.91974
21950.00000	107.94902	-708.17037	107.94902
22000.00000	108.04129	-709.71776	108.04129
22050.00000	108.03008	-710.87695	108.03008
22100.00000	108.03207	-712.93784	108.03207
22150.00000	108.07965	-714.63433	108.07965
22200.00000	108.20717	-716.33028	108.20717
22250.00000	108.18765	-717.33438	108.18765
22300.00000	108.07649	-719.10584	108.07649
22350.00000	108.24611	-721.12082	108.24611
22400.00000	108.30207	-722.95506	108.30207
22450.00000	108.31228	-724.25735	108.31228
22500.00000	108.24971	-724.68616	108.24971
22550.00000	108.25234	-726.73214	108.25234
22600.00000	108.27839	-729.19612	108.27839
22650.00000	108.39102	-730.53689	108.39102
22700.00000	108.40268	-731.46986	108.40268
22750.00000	108.40101	-730.90814	108.40101
22800.00000	108.43847	-734.63288	108.43847
22850.00000	108.60674	-736.96819	108.60674
22900.00000	108.70174	-736.59917	108.70174
22950.00000	108.78302	-737.97440	108.78302
23000.00000	108.78711	-738.56094	108.78711
23050.00000	108.82992	-741.30109	108.82992
23100.00000	109.01974	-741.87869	109.01974
23150.00000	109.04700	-742.08443	109.04700
23200.00000	109.23319	-744.54273	109.23319
23250.00000	109.15754	-747.09550	109.15754
23300.00000	109.54978	-748.60508	109.54978
23350.00000	109.40865	-750.39091	109.40865
23400.00000	109.52069	-751.45859	109.52069
23450.00000	109.73752	-753.64818	109.73752
23500.00000	109.73393	-754.45830	109.73393
23550.00000	109.86919	-754.75185	109.86919
23600.00000	109.90885	-757.98912	109.90885
23650.00000	110.09895	-759.15502	110.09895
23700.00000	110.36768	-763.25227	110.36768
23750.00000	110.47213	-764.00291	110.47213
23800.00000	110.33915	-764.24648	110.33915
23850.00000	110.63166	-765.46077	110.63166
23900.00000	111.08586	-768.01279	111.08586
23950.00000	110.95294	-771.05625	110.95294
24000.00000	110.96552	-773.70181	110.96552
24050.00000	111.27723	-773.96074	111.27723
24100.00000	111.64713	-777.67332	111.64713
24150.00000	111.80066	-779.89363	111.80066
24200.00000	111.96635	-783.52153	111.96635
24250.00000	111.74546	-784.04856	111.74546
24300.00000	112.23874	-787.03134	112.23874
24350.00000	112.27196	-790.04911	112.27196
24400.00000	112.34171	-793.59745	112.34171
24450.00000	112.23085	-795.73865	112.23085
24500.00000	112.80560	-797.88594	112.80560
24550.00000	112.78797	-443.32376	112.78797
24600.00000	113.35648	-85.06381	113.35648
24650.00000	113.13817	270.09314	113.13817
24700.00000	113.07122	628.99028	113.07122
24750.00000	113.26456	983.37978	113.26456
24800.00000	113.31177	1340.18126	113.31177
24850.00000	113.02611	1698.04538	113.02611
24900.00000	113.19911	2055.68358	113.19911
24950.00000	113.48524	2410.18668	113.48524
25000.00000	113.41122	2401.80818	113.41122
25050.00000	113.51253	2401.45465	113.51253
25100.00000	112.93353	2396.89441	112.93353
25150.00000	113.24728	2395.40493	113.24728
25200.00000	113.02199	2390.47518	113.02199
25250.00000	113.05434	2388.28918	113.05434
25300.00000	113.01674	2385.18474	113.01674
25350.00000	112.85458	2377.77896	112.85458
25400.00000	112.73481	2373.63336	112.73481
25450.00000	112.69037	2370.98672	112.69037
25500.00000	112.42221	2368.25471	112.42221
25550.00000	112.26600	2363.80263	112.26600
25600.00000	112.19781	2360.97586	112.19781
25650.00000	111.99479	2358.46617	111.99479
25700.00000	111.86322	2354.93177	111.86322
25750.00000	111.55585	2351.26386	111.55585
25800.00000	111.36145	2347.29503	111.36145
25850.00000	111.22050	2344.36001	111.22050
25900.00000	110.98842	2339.84921	110.98842
25950.00000	110.67622	2340.78194	110.67622
26000.00000	110.55581	2335.21948	110.55581
26050.00000	110.41527	2332.57625	110.41527
26100.00000	110.08396	2329.55808	110.08396
26150.00000	110.01249	2327.35882	110.01249
26200.00000	109.94986	2324.36180	109.94986
26250.00000	109.65023	2321.75967	109.65023
26300.00000	109.61425	2317.74950	109.61425
26350.00000	109.04306	2317.06688	109.04306
26400.00000	108.96145	2314.38394	108.96145
26450.00000	109.11507	2310.36417	109.11507
26500.00000	108.77672	2307.99769	108.77672
26550.00000	108.56967	2302.70090	108.56967
26600.00000	108.34120	2300.69270	108.34120
26650.00000	108.32765	2300.77591	108.32765
26700.00000	108.14961	2297.16050	108.14961
26750.00000	107.86226	2295.10929	107.86226
26800.00000	107.67216	2289.22999	107.67216
26850.00000	107.86661	2289.19186	107.86661
26900.00000	107.78142	2286.91322	107.78142
26950.00000	107.74996	2282.91649	107.74996
27000.00000	107.23042	2282.03424	107.23042
27050.00000	107.45834	2278.14880	107.45834
27100.00000	107.07481	2276.86957	107.07481
27150.00000	106.94721	2272.77795	106.94721
27200.00000	106.98084	2271.08101	106.98084
27250.00000	106.54056	2269.31081	106.54056
27300.00000	106.32995	2265.68319	106.32995
27350.00000	106.38083	2264.60678	106.38083
27400.00000	105.96710	2261.49998	105.96710
27450.00000	105.89809	2259.05742	105.89809
27500.00000	105.75314	2256.68583	105.75314
27550.00000	105.79974	2253.63107	105.79974
27600.00000	105.85022	2249.46658	105.85022
27650.00000	105.19751	2249.94738	105.19751
27700.00000	105.26342	2243.98965	105.26342
27750.00000	105.01685	2241.35508	105.01685
27800.00000	105.09459	2237.51148	105.09459
27850.00000	105.14001	2238.74629	105.14001
27900.00000	104.38226	2236.98350	104.38226
27950.00000	103.85480	2233.37349	103.85480
28000.00000	103.85447	2232.42191	103.85447
28050.00000	104.31573	2229.19869	104.31573
28100.00000	103.53988	2226.96115	103.53988
28150.00000	103.46312	2225.71928	103.46312
28200.00000	103.49224	2220.55812	103.49224
28250.00000	102.98985	2218.09176	102.98985
28300.00000	102.61085	2218.79461	102.61085
28350.00000	102.67606	2217.28722	102.67606
28400.00000	102.46040	2217.39073	102.46040
28450.00000	102.84284	2213.61215	102.84284
28500.00000	102.07382	2213.54140	102.07382
28550.00000	101.98927	2214.34336	101.98927
28600.00000	101.92610	2212.29987	101.92610
28650.00000	102.07972	2208.38640	102.07972
28700.00000	101.67384	2209.20987	101.67384
28750.00000	102.27597	2209.53630	102.27597
28800.00000	101.91463	2207.13857	101.91463
28850.00000	101.09204	2203.97934	101.09204
28900.00000	101.24682	2204.36445	101.24682
28950.00000	101.12215	2204.01733	101.12215
29000.00000	101.34375	2203.03915	101.34375
29050.00000	100.94516	2204.24405	100.94516
29100.00000	100.97372	2203.97148	100.97372
29150.00000	100.67802	2203.71804	100.67802
29200.00000	100.68631	2201.33479	100.68631
29250.00000	100.99530	2201.73808	100.99530
29300.00000	100.77518	2200.67596	100.77518
29350.00000	101.07735	2199.04524	101.07735
29400.00000	100.88648	2198.94753	100.88648
29450.00000	100.84547	2199.29547	100.84547
29500.00000	101.35477	2198.87851	101.35477
29550.00000	101.06258	2195.34702	101.06258
29600.00000	101.08604	2196.55767	101.08604
29650.00000	101.20959	2195.08892	101.20959
29700.00000	100.97105	2196.85498	100.97105
29750.00000	101.27904	2196.58363	101.27904
29800.00000	101.12299	2195.01572	101.12299
29850.00000	101.37587	2193.00459	101.37587
29900.00000	101.66331	2194.46071	101.66331
29950.00000	101.00557	2193.99482	101.00557
30000.00000	101.51544	2194.25669	101.51544
30050.00000	101.60709	2192.53004	101.60709
30100.00000	101.43792	2194.10385	101.43792
30150.00000	101.70132	2190.52406	101.70132
30200.00000	101.74711	2189.69881	101.74711
30250.00000	101.58987	2190.32349	101.58987
30300.00000	101.45011	2191.04728	101.45011
30350.00000	101.64840	2192.50174	101.64840
30400.00000	101.75634	2190.68893	101.75634
30450.00000	101.46114	2190.73879	101.46114
30500.00000	101.57972	2190.27268	101.57972
30550.00000	101.57237	2191.93667	101.57237
30600.00000	101.67057	2193.35715	101.67057
30650.00000	101.77405	2193.43583	101.77405
30700.00000	101.91341	2193.14768	101.91341
30750.00000	101.74216	2195.44163	101.74216
30800.00000	101.97824	2196.13927	101.97824
30850.00000	102.26621	2198.19408	102.26621
30900.00000	102.38617	2200.23186	102.38617
30950.00000	102.75428	2200.08340	102.75428
31000.00000	103.07147	2199.89217	103.07147
31050.00000	103.42850	2201.43877	103.42850
31100.00000	103.97619	2202.82064	103.97619
31150.00000	104.03302	2202.49842	104.03302
31200.00000	104.87471	2202.16062	104.87471
31250.00000	105.20490	2201.79431	105.20490
31300.00000	105.66790	2200.71060	105.66790
31350.00000	106.23374	2199.97609	106.23374
31400.00000	106.51647	2198.04180	106.51647
31450.00000	107.02992	2196.24756	107.02992
31500.00000	107.36119	2193.35958	107.36119
31550.00000	107.79068	2191.66762	107.79068
31600.00000	108.30903	2188.01830	108.30903
31650.00000	108.60550	2185.45332	108.60550
31700.00000	108.90508	2182.98759	108.90508
31750.00000	109.25547	2180.73062	109.25547
31800.00000	109.42555	2176.66257	109.42555
31850.00000	109.77569	2172.70982	109.77569
31900.00000	109.76948	2169.72965	109.76948
31950.00000	110.00172	2166.11964	110.00172
32000.00000	110.21063	2162.14702	110.21063
32050.00000	110.35096	2159.26733	110.35096
32100.00000	110.34321	2155.34112	110.34321
32150.00000	110.49689	2152.36469	110.49689
32200.00000	110.56423	2147.94401	110.56423
32250.00000	110.51941	2143.97648	110.51941
32300.00000	110.49528	2140.82169	110.49528
32350.00000	110.42553	2137.43588	110.42553
32400.00000	110.53368	2134.30382	110.53368
32450.00000	110.40013	2130.33178	110.40013
32500.00000	110.38105	2127.16239	110.38105
32550.00000	110.31283	2123.24089	110.31283
32600.00000	110.08380	2120.56997	110.08380
32650.00000	110.11358	2117.23618	110.11358
32700.00000	109.88394	2114.23529	109.88394
32750.00000	109.76555	2110.45096	109.76555
32800.00000	109.70893	2107.91474	109.70893
32850.00000	109.66375	2104.76372	109.66375
32900.00000	109.32529	2101.59950	109.32529
32950.00000	109.18199	2098.11685	109.18199
33000.00000	109.04397	2097.28605	109.04397
33050.00000	108.80938	2094.04568	108.80938
33100.00000	108.70860	2091.69243	108.70860
33150.00000	108.57965	2089.77616	108.57965
33200.00000	108.62716	2088.69705	108.62716
33250.00000	108.33962	2086.86252	108.33962
33300.00000	108.19463	2084.34557	108.19463
33350.00000	108.08821	2082.43665	108.08821
33400.00000	107.95745	2081.88968	107.95745
33450.00000	107.97279	2079.66613	107.97279
33500.00000	108.18477	2079.63434	108.18477
33550.00000	107.84986	2076.74081	107.84986
33600.00000	108.07767	2076.29482	108.07767
33650.00000	108.17051	2073.79643	108.17051
33700.00000	108.18147	2072.69866	108.18147
33750.00000	108.15611	2070.52835	108.15611
33800.00000	108.44185	2069.04543	108.44185
33850.00000	108.21751	2066.69659	108.21751
33900.00000	108.51607	2064.12929	108.51607
33950.00000	108.60616	2063.25042	108.60616
34000.00000	108.79487	2061.36235	108.79487
34050.00000	108.80649	2058.52833	108.80649
34100.00000	108.86905	2058.09259	108.86905
34150.00000	109.17082	2054.60529	109.17082
34200.00000	109.42879	2053.65843	109.42879
34250.00000	109.61962	2050.44549	109.61962
34300.00000	109.65746	2047.97925	109.65746
34350.00000	109.90106	2045.22902	109.90106
34400.00000	109.62072	2043.57694	109.62072
34450.00000	109.90439	2040.43941	109.90439
34500.00000	109.99930	2040.23774	109.99930
34550.00000	110.48005	2038.31964	110.48005
34600.00000	110.47720	2033.67453	110.47720
34650.00000	110.95245	2033.76157	110.95245
34700.00000	110.85523	2031.44203	110.85523
34750.00000	111.20143	2024.81462	111.20143
34800.00000	111.34586	2025.43124	111.34586
34850.00000	111.77086	2024.06566	111.77086
34900.00000	112.04211	2018.87436	112.04211
34950.00000	112.05455	2018.22499	112.05455
35000.00000	112.25130	2014.52691	112.25130
35050.00000	112.54827	2012.39338	112.54827
35100.00000	112.85917	2008.26917	112.85917
35150.00000	112.68514	2006.99973	112.68514
35200.00000	112.88975	2002.64266	112.88975
35250.00000	113.15209	1999.82865	113.15209
35300.00000	113.42232	1996.34400	113.42232
35350.00000	113.72353	1993.73660	113.72353
35400.00000	113.72472	1990.69128	113.72472
35450.00000	113.90780	1988.27937	113.90780
35500.00000	113.81736	1985.49670	113.81736
35550.00000	114.31656	1984.05973	114.31656
35600.00000	114.32577	1979.98113	114.32577
35650.00000	114.55341	1977.52719	114.55341
35700.00000	114.68665	1974.34156	114.68665
35750.00000	114.67234	1972.67326	114.67234
35800.00000	114.92871	1970.68582	114.92871
35850.00000	115.16616	1966.95453	115.16616
35900.00000	115.26754	1964.27379	115.26754
35950.00000	115.49945	1961.24494	115.49945
36000.00000	115.62903	1959.40615	115.62903
36050.00000	115.91677	1956.25042	115.91677
36100.00000	116.03105	1953.96110	116.03105
36150.00000	116.04440	1951.39971	116.04440
36200.00000	116.27584	1948.25238	116.27584
36250.00000	116.31182	1946.28044	116.31182
36300.00000	116.38899	1943.54124	116.38899
36350.00000	116.65844	1941.47992	116.65844
36400.00000	116.83561	1939.43448	116.83561
36450.00000	116.72270	1936.18884	116.72270
36500.00000	117.18524	1934.39048	117.18524
36550.00000	117.07166	1930.67435	117.07166
36600.00000	117.18423	1928.50528	117.18423
36650.00000	117.42426	1926.56349	117.42426
36700.00000	117.50592	1923.56646	117.50592
36750.00000	117.53664	1921.16216	117.53664
36800.00000	117.62932	1919.42688	117.62932
36850.00000	117.57777	1917.06886	117.57777
36900.00000	117.88421	1914.52121	117.88421
36950.00000	117.79097	1912.66701	117.79097
37000.00000	117.58450	1910.84853	117.58450
37050.00000	117.77496	1909.37017	117.77496
37100.00000	117.98619	1906.11634	117.98619
37150.00000	118.04596	1903.57295	118.04596
37200.00000	118.38922	1903.00804	118.38922
37250.00000	118.00317	1901.01085	118.00317
37300.00000	118.21181	1898.99290	118.21181
37350.00000	118.47522	1897.36011	118.47522
37400.00000	118.29947	1896.02970	118.29947
37450.00000	118.37630	1894.59442	118.37630
37500.00000	118.83034	1892.75990	118.83034
37550.00000	118.65569	1891.01386	118.65569
37600.00000	118.78470	1889.08877	118.78470
37650.00000	118.88388	1887.68137	118.88388
37700.00000	119.14706	1884.53042	119.14706
37750.00000	119.23905	1884.14872	119.23905
37800.00000	119.23277	1881.37492	119.23277
37850.00000	119.45381	1877.65372	119.45381
37900.00000	119.54273	1876.42676	119.54273
37950.00000	119.70628	1874.99234	119.70628
38000.00000	119.76143	1873.31034	119.76143
38050.00000	120.05590	1870.31709	120.05590
38100.00000	120.25626	1866.95260	120.25626
38150.00000	120.32517	1864.01261	120.32517
38200.00000	120.58717	1860.41283	120.58717
38250.00000	120.68516	1858.06118	120.68516
38300.00000	120.87690	1854.31028	120.87690
38350.00000	120.94958	1851.84027	120.94958
38400.00000	121.13942	1848.36381	121.13942
38450.00000	121.21547	1843.83265	121.21547
38500.00000	121.37867	1839.82227	121.37867
38550.00000	121.57941	1836.67220	121.57941
38600.00000	121.64089	1832.48992	121.64089
38650.00000	121.78244	1827.90157	121.78244
38700.00000	121.79564	1823.42910	121.79564
38750.00000	121.88322	1819.18504	121.88322
38800.00000	121.97535	1814.85822	121.97535
38850.00000	121.96661	1809.97675	121.96661
38900.00000	122.00096	1805.26489	122.00096
38950.00000	121.93899	1800.24383	121.93899
39000.00000	121.92846	1795.30258	121.92846
39050.00000	121.92250	1790.79149	121.92250
39100.00000	121.72025	1785.61903	121.72025
39150.00000	121.60438	1780.79150	121.60438
39200.00000	121.48302	1776.24358	121.48302
39250.00000	121.35018	1771.00769	121.35018
39300.00000	121.20221	1766.38026	121.20221
39350.00000	120.98697	1762.38942	120.98697
39400.00000	120.81804	1757.36592	120.81804
39450.00000	120.55502	1753.32861	120.55502
39500.00000	120.41366	1748.73637	120.41366
39550.00000	120.16998	1744.18159	120.16998
39600.00000	119.81688	1740.13695	119.81688
39650.00000	119.68307	1736.38877	119.68307
39700.00000	119.37119	1732.08433	119.37119
39750.00000	119.16256	1727.69425	119.16256
39800.00000	118.90193	1723.94415	118.90193
39850.00000	118.58645	1720.02531	118.58645
39900.00000	118.33160	1716.54937	118.33160
39950.00000	118.06892	1712.80732	118.06892
40000.00000	117.60813	1710.59037	117.60813
40050.00000	117.48848	1705.87167	117.48848
40100.00000	117.18110	1702.73415	117.18110
40150.00000	116.91213	1699.46594	116.91213
40200.00000	116.62755	1696.13198	116.62755
40250.00000	116.36050	1693.21959	116.36050
40300.00000	116.11420	1690.58635	116.11420
40350.00000	115.66185	1688.27636	115.66185
40400.00000	115.38700	1685.57444	115.38700
40450.00000	115.15635	1683.39059	115.15635
40500.00000	114.97750	1681.66578	114.97750
40550.00000	114.69690	1678.83979	114.69690
40600.00000	114.43645	1677.01626	114.43645
40650.00000	114.20350	1675.53689	114.20350
40700.00000	113.81793	1674.41157	113.81793
40750.00000	113.81811	1672.76483	113.81811
40800.00000	113.56786	1671.55365	113.56786
40850.00000	113.30860	1670.66413	113.30860
40900.00000	113.14876	1669.14475	113.14876
40950.00000	112.92668	1668.98103	112.92668
41000.00000	112.61077	1668.42393	112.61077
41050.00000	112.71696	1667.92622	112.71696
41100.00000	112.76229	1667.07031	112.76229
41150.00000	112.76031	1668.03602	112.76031
41200.00000	112.81929	1667.14054	112.81929
41250.00000	112.68157	1665.24112	112.68157
41300.00000	112.49399	1666.00705	112.49399
41350.00000	112.67815	1666.73007	112.67815
41400.00000	112.71497	1662.93054	112.71497
41450.00000	112.93071	1664.98265	112.93071
41500.00000	112.95297	1664.61975	112.95297
41550.00000	112.95991	1667.93646	112.95991
41600.00000	112.73638	1666.06845	112.73638
41650.00000	113.39253	1664.01244	113.39253
41700.00000	113.54903	1664.54990	113.54903
41750.00000	113.63660	1668.34449	113.63660
41800.00000	112.95487	1663.03638	112.95487
41850.00000	113.04714	1664.21059	113.04714
41900.00000	113.05357	1664.74849	113.05357
41950.00000	114.41314	1669.47898	114.41314
42000.00000	113.51458	1662.93558	113.51458
42050.00000	112.90765	1662.69291	112.90765
42100.00000	113.63046	1663.16285	113.63046
42150.00000	113.24256	1657.59042	113.24256
42200.00000	113.15250	1664.74637	113.15250
42250.00000	113.38159	1663.44728	113.38159
42300.00000	112.55925	1658.39054	112.55925
42350.00000	113.33271	1661.38424	113.33271
42400.00000	113.19825	1661.44109	113.19825
42450.00000	113.86136	1657.35980	113.86136
42500.00000	113.18518	1657.76378	113.18518
42550.00000	113.31395	1667.70377	113.31395
42600.00000	113.28168	1659.97216	113.28168
42650.00000	112.71288	1660.83418	112.71288
42700.00000	112.54706	1660.56878	112.54706
42750.00000	113.59098	1657.66149	113.59098
42800.00000	112.84655	1650.93035	112.84655
42850.00000	112.62283	1650.47968	112.62283
42900.00000	113.74308	1656.22054	113.74308
42950.00000	112.68803	1651.01791	112.68803
43000.00000	113.34634	1641.99878	113.34634
43050.00000	112.60389	1640.16688	112.60389
43100.00000	112.75983	1644.54088	112.75983
43150.00000	111.72569	1640.08720	111.72569
43200.00000	112.10199	1636.80262	112.10199
43250.00000	112.32093	1634.20080	112.32093
43300.00000	112.02375	1632.29093	112.02375
43350.00000	112.79610	1629.71859	112.79610
43400.00000	112.14486	1624.63578	112.14486
43450.00000	112.95177	1626.40178	112.95177
43500.00000	111.53773	1616.86634	111.53773
43550.00000	112.06505	1613.90324	112.06505
43600.00000	111.40531	1609.82941	111.40531
43650.00000	111.59014	1600.19806	111.59014
43700.00000	111.00811	1600.41683	111.00811
43750.00000	110.38204	1599.14217	110.38204
43800.00000	110.47194	1591.60645	110.47194
43850.00000	110.69241	1588.80070	110.69241
43900.00000	110.58319	1585.30072	110.58319
43950.00000	110.20588	1580.29591	110.20588
44000.00000	109.44226	1578.33924	109.44226
44050.00000	109.53541	1572.25019	109.53541
44100.00000	109.42389	1564.39603	109.42389
44150.00000	108.80054	1563.62227	108.80054
44200.00000	108.23903	1563.14495	108.23903
44250.00000	108.56803	1555.84900	108.56803
44300.00000	108.47275	1551.07188	108.47275
44350.00000	107.08176	1548.37995	107.08176
44400.00000	107.96971	1544.88556	107.96971
44450.00000	108.01214	1544.10751	108.01214
44500.00000	107.31197	1539.65331	107.31197
44550.00000	108.45032	1531.37711	108.45032
44600.00000	107.11413	1531.64322	107.11413
44650.00000	106.62246	1525.97385	106.62246
44700.00000	106.25647	1523.02853	106.25647
44750.00000	106.35152	1523.29998	106.35152
44800.00000	106.86418	1517.73991	106.86418
44850.00000	106.19891	1509.91409	106.19891
44900.00000	105.91317	1508.64646	105.91317
44950.00000	106.20427	1504.98154	106.20427
45000.00000	105.70605	1494.90016	105.70605
45050.00000	104.21164	1501.85566	104.21164
45100.00000	105.14407	1492.99636	105.14407
45150.00000	105.18564	1482.54335	105.18564
45200.00000	104.82270	1484.89599	104.82270
45250.00000	104.66187	1480.98398	104.66187
45300.00000	104.34668	1472.03792	104.34668
45350.00000	104.10096	1467.64378	104.10096
45400.00000	104.04453	1465.49267	104.04453
45450.00000	104.19074	1456.88765	104.19074
45500.00000	102.76215	1451.93520	102.76215
45550.00000	103.23361	1450.99922	103.23361
45600.00000	103.82364	1443.22877	103.82364
45650.00000	102.12771	1435.76688	102.12771
45700.00000	101.95859	1432.70723	101.95859
45750.00000	102.63590	1433.36023	102.63590
45800.00000	101.48149	1425.89376	101.48149
45850.00000	101.54736	1422.65440	101.54736
45900.00000	100.81725	1421.83715	100.81725
45950.00000	100.38719	1418.63536	100.38719
46000.00000	99.60551	1400.20272	99.60551
46050.00000	99.49750	1394.82661	99.49750
46100.00000	98.73267	1404.75882	98.73267
46150.00000	98.35410	1395.18493	98.35410
46200.00000	96.19835	1387.96884	96.19835
46250.00000	97.60359	1382.57967	97.60359
46300.00000	95.99259	1382.19147	95.99259
46350.00000	96.66974	1376.66912	96.66974
46400.00000	95.71536	1369.48948	95.71536
46450.00000	93.42820	1371.74351	93.42820
46500.00000	95.31189	1369.57908	95.31189
46550.00000	93.71747	1372.42235	93.71747
46600.00000	94.21829	1374.65129	94.21829
46650.00000	91.10548	1365.86549	91.10548
46700.00000	91.23222	1373.55578	91.23222
46750.00000	91.38772	1376.51424	91.38772
46800.00000	89.43373	1367.38860	89.43373
46850.00000	90.43168	1018.71397	90.43168
46900.00000	90.92910	1010.76861	90.92910
46950.00000	91.13994	1009.40751	91.13994
47000.00000	90.98585	1014.80981	90.98585
47050.00000	93.08338	1005.49368	93.08338
47100.00000	91.01156	1000.85173	91.01156
47150.00000	91.87127	997.79452	91.87127
47200.00000	90.36502	1000.41333	90.36502
47250.00000	91.94831	997.85667	91.94831
47300.00000	91.25713	994.10365	91.25713
47350.00000	90.23791	639.35708	90.23791
47400.00000	90.00264	642.44286	90.00264
47450.00000	90.75660	638.35597	90.75660
47500.00000	89.27588	629.05357	89.27588
47550.00000	88.49599	280.05321	88.49599
47600.00000	90.41438	270.80962	90.41438
47650.00000	91.77541	271.98849	91.77541
47700.00000	91.80238	259.86402	91.80238
47750.00000	89.39379	268.62989	89.39379
47800.00000	90.60359	250.31436	90.60359
47850.00000	91.25059	-97.49947	91.25059
47900.00000	92.72543	-450.61210	92.72543
47950.00000	91.03269	-466.14741	91.03269
48000.00000	91.88267	-455.28614	91.88267
48050.00000	92.91475	-474.28567	92.91475
48100.00000	91.77417	-475.03908	91.77417
48150.00000	92.79610	-835.31701	92.79610
48200.00000	92.85191	-832.48864	92.85191
48250.00000	92.34593	-843.90407	92.34593
48300.00000	93.36508	-851.57031	93.36508
48350.00000	92.11151	-860.07304	92.11151
48400.00000	93.30946	-1205.05406	93.30946
48450.00000	93.25263	-1214.52329	93.25263
48500.00000	92.53126	-1219.37853	92.53126
48550.00000	92.58247	-1225.97646	92.58247
48600.00000	93.45222	-1583.06310	93.45222
48650.00000	93.97585	-1583.90290	93.97585
48700.00000	93.91798	-1597.53503	93.91798
48750.00000	92.65780	-1949.05375	92.65780
48800.00000	93.42621	-1956.23436	93.42621
48850.00000	94.05089	-1964.10872	94.05089
48900.00000	90.94413	-2319.67134	90.94413
48950.00000	93.42617	-2333.81075	93.42617
49000.00000	94.10417	-2338.83783	94.10417
49050.00000	94.09696	-2343.71600	94.09696
49100.00000	93.80174	-2711.11714	93.80174
49150.00000	92.67126	-3069.80012	92.67126
49200.00000	94.61228	-3078.57037	94.61228
49250.00000	93.60318	-3425.58652	93.60318
49300.00000	95.16488	-3080.69476	95.16488
49350.00000	94.11940	-3077.17695	94.11940
49400.00000	94.08453	-2731.44406	94.08453
49450.00000	93.41948	-2372.92454	93.41948
49500.00000	94.60297	-2041.43993	94.60297
49550.00000	95.05960	-1683.58473	95.05960
49600.00000	94.65245	-1673.70850	94.65245
49650.00000	94.04840	-1670.90507	94.04840
49700.00000	95.98034	-1338.24529	95.98034
49750.00000	98.05894	-1337.61916	98.05894
49800.00000	96.68570	-1345.26607	96.68570
49850.00000	96.35730	-1339.30083	96.35730
49900.00000	96.03511	-1000.07313	96.03511
49950.00000	97.87791	-660.71376	97.87791
