---ACOUSTIC CALIBRATION---
Filename: C:\Data\AZH DATA\AZH32\RightSecondary.calib
Date: 8/27/2019 1:12:25 PM
Format: 4
Probe Tube Correction File: C:\Data\Probe Tube Calibrations\50_ProbeTube.calib
Experiment VIs: 850
EPL_CFTS.exe V12.0.1 (2012)
DAQmx V9.6

Attenuation (dB): 40.000000
Min Freq (Hz): 50.000000
Max Freq (Hz): 49950.000000
Freq Step (Hz): 50.000000
Sample Rate (Hz): 100000.000000
[Smoothing]
Method=None
MA.Iterations=0
MA.Length=0
Loess.Length=0
Loess.Type=Linear
Loess.Robust=FALSE


Freq(Hz)	Mag(dB)	Phase(deg)	Unsmoothed(dB)

50.00000	107.84263	429.92808	107.84263
100.00000	77.12410	533.33982	77.12410
150.00000	82.48826	460.66867	82.48826
200.00000	82.41550	393.53830	82.41550
250.00000	90.09868	456.05063	90.09868
300.00000	83.47602	344.75778	83.47602
350.00000	83.47976	358.42055	83.47976
400.00000	88.01923	297.92878	88.01923
450.00000	87.30699	291.12535	87.30699
500.00000	87.37711	340.61689	87.37711
550.00000	89.23552	322.15844	89.23552
600.00000	90.06408	322.02438	90.06408
650.00000	92.54837	330.53331	92.54837
700.00000	94.71870	317.71078	94.71870
750.00000	97.65831	315.68960	97.65831
800.00000	99.98501	304.70905	99.98501
850.00000	102.50711	295.52132	102.50711
900.00000	104.00379	277.50433	104.00379
950.00000	105.32228	260.13973	105.32228
1000.00000	105.16928	242.66495	105.16928
1050.00000	104.69928	234.62598	104.69928
1100.00000	104.92066	222.80552	104.92066
1150.00000	104.02507	213.20253	104.02507
1200.00000	104.05242	211.18673	104.05242
1250.00000	103.90206	199.51208	103.90206
1300.00000	103.07956	194.72954	103.07956
1350.00000	102.17685	191.24341	102.17685
1400.00000	101.44291	192.73898	101.44291
1450.00000	101.96906	192.04082	101.96906
1500.00000	101.85856	190.62394	101.85856
1550.00000	102.07679	188.64110	102.07679
1600.00000	102.89063	185.93697	102.89063
1650.00000	103.77779	177.06814	103.77779
1700.00000	102.40118	172.79122	102.40118
1750.00000	102.22164	171.05647	102.22164
1800.00000	102.07736	168.88077	102.07736
1850.00000	101.81504	171.50622	101.81504
1900.00000	102.93876	171.39720	102.93876
1950.00000	103.90104	163.08468	103.90104
2000.00000	103.49836	154.29009	103.49836
2050.00000	102.62138	152.41794	102.62138
2100.00000	102.78663	150.38857	102.78663
2150.00000	102.49657	145.28215	102.49657
2200.00000	101.91805	142.00983	101.91805
2250.00000	101.10088	142.21622	101.10088
2300.00000	101.11299	142.11035	101.11299
2350.00000	100.90824	142.62425	100.90824
2400.00000	100.68084	142.82629	100.68084
2450.00000	100.48540	141.17644	100.48540
2500.00000	100.16269	144.58093	100.16269
2550.00000	99.93691	149.47792	99.93691
2600.00000	100.53286	156.31076	100.53286
2650.00000	102.24596	160.05221	102.24596
2700.00000	103.92563	155.32940	103.92563
2750.00000	104.87146	145.15082	104.87146
2800.00000	104.86172	135.27466	104.86172
2850.00000	104.63167	128.54895	104.63167
2900.00000	104.16930	124.02640	104.16930
2950.00000	103.78221	120.89872	103.78221
3000.00000	103.29215	117.49461	103.29215
3050.00000	102.81377	114.91018	102.81377
3100.00000	102.59718	114.12899	102.59718
3150.00000	102.15053	110.47368	102.15053
3200.00000	101.52393	110.37077	101.52393
3250.00000	100.80701	108.78708	100.80701
3300.00000	99.92147	111.87242	99.92147
3350.00000	98.71946	115.01662	98.71946
3400.00000	98.44727	125.35229	98.44727
3450.00000	98.83328	132.49091	98.83328
3500.00000	99.54678	137.49889	99.54678
3550.00000	100.11979	138.62995	100.11979
3600.00000	100.16020	140.82302	100.16020
3650.00000	99.83571	146.97429	99.83571
3700.00000	100.10907	157.89748	100.10907
3750.00000	101.82054	169.20219	101.82054
3800.00000	103.97022	173.88063	103.97022
3850.00000	105.88543	175.13330	105.88543
3900.00000	107.69942	172.72063	107.69942
3950.00000	109.31540	168.65555	109.31540
4000.00000	110.52080	163.51940	110.52080
4050.00000	111.50689	158.29072	111.50689
4100.00000	112.32451	153.93545	112.32451
4150.00000	113.26587	150.64120	113.26587
4200.00000	113.96035	147.27115	113.96035
4250.00000	114.84266	144.81010	114.84266
4300.00000	115.83190	142.68684	115.83190
4350.00000	116.96270	139.66071	116.96270
4400.00000	118.18735	136.30387	118.18735
4450.00000	119.51793	131.86117	119.51793
4500.00000	120.89652	126.24365	120.89652
4550.00000	122.30969	119.10367	122.30969
4600.00000	123.65669	110.59215	123.65669
4650.00000	124.98619	100.50437	124.98619
4700.00000	126.17326	88.24374	126.17326
4750.00000	127.05781	74.19357	127.05781
4800.00000	127.56024	58.81357	127.56024
4850.00000	127.57643	43.47593	127.57643
4900.00000	127.16631	28.95293	127.16631
4950.00000	126.38496	16.15234	126.38496
5000.00000	125.26830	 5.96313	125.26830
5050.00000	124.26598	-1.14625	124.26598
5100.00000	122.91366	-9.34078	122.91366
5150.00000	120.53501	-7.59900	120.53501
5200.00000	120.85482	11.36351	120.85482
5250.00000	123.83133	 7.58332	123.83133
5300.00000	124.78461	-6.96372	124.78461
5350.00000	124.71232	-19.15523	124.71232
5400.00000	124.30896	-28.71187	124.30896
5450.00000	123.83433	-36.39625	123.83433
5500.00000	123.35090	-43.08019	123.35090
5550.00000	122.89584	-48.97019	122.89584
5600.00000	122.43028	-54.44431	122.43028
5650.00000	122.01315	-59.51020	122.01315
5700.00000	121.56324	-64.38199	121.56324
5750.00000	121.14787	-68.80761	121.14787
5800.00000	120.73126	-72.98856	120.73126
5850.00000	120.35167	-77.09725	120.35167
5900.00000	119.98575	-81.01955	119.98575
5950.00000	119.63650	-84.81866	119.63650
6000.00000	119.28922	-88.38917	119.28922
6050.00000	118.93283	-92.03543	118.93283
6100.00000	118.59703	-95.53176	118.59703
6150.00000	118.25956	-98.96237	118.25956
6200.00000	117.92071	-102.28880	117.92071
6250.00000	117.60105	-105.57717	117.60105
6300.00000	117.27917	-108.74872	117.27917
6350.00000	116.94299	-111.91771	116.94299
6400.00000	116.62375	-114.83622	116.62375
6450.00000	116.30686	-117.74761	116.30686
6500.00000	115.97319	-120.55572	115.97319
6550.00000	115.64311	-123.21503	115.64311
6600.00000	115.29059	-125.81266	115.29059
6650.00000	114.98890	-128.07577	114.98890
6700.00000	114.66682	-130.50276	114.66682
6750.00000	114.35130	-132.56660	114.35130
6800.00000	114.08032	-134.60698	114.08032
6850.00000	113.80007	-136.53603	113.80007
6900.00000	113.58339	-138.46432	113.58339
6950.00000	113.32347	-140.39275	113.32347
7000.00000	113.09254	-142.34679	113.09254
7050.00000	112.85998	-144.29643	112.85998
7100.00000	112.60367	-146.18514	112.60367
7150.00000	112.38292	-147.60929	112.38292
7200.00000	112.14146	-148.98239	112.14146
7250.00000	111.90177	-150.39932	111.90177
7300.00000	111.75966	-151.41205	111.75966
7350.00000	111.61218	-152.24563	111.61218
7400.00000	111.52426	-153.35973	111.52426
7450.00000	111.45536	-154.23148	111.45536
7500.00000	111.43362	-155.26143	111.43362
7550.00000	111.44810	-156.42184	111.44810
7600.00000	111.49810	-157.75369	111.49810
7650.00000	111.52467	-159.21998	111.52467
7700.00000	111.66120	-160.94694	111.66120
7750.00000	111.68832	-163.05984	111.68832
7800.00000	111.76390	-164.97813	111.76390
7850.00000	111.84079	-167.32969	111.84079
7900.00000	111.93370	-169.69697	111.93370
7950.00000	112.00805	-172.54002	112.00805
8000.00000	112.02344	-175.30194	112.02344
8050.00000	112.07060	-178.60932	112.07060
8100.00000	112.08718	-181.16468	112.08718
8150.00000	112.02775	-184.28661	112.02775
8200.00000	112.02548	-187.10616	112.02548
8250.00000	111.93520	-190.42778	111.93520
8300.00000	111.88422	-193.25995	111.88422
8350.00000	111.79478	-196.17965	111.79478
8400.00000	111.70156	-199.52822	111.70156
8450.00000	111.49279	-202.50980	111.49279
8500.00000	111.32245	-205.24655	111.32245
8550.00000	111.19934	-207.79090	111.19934
8600.00000	111.02435	-210.72718	111.02435
8650.00000	110.80390	-213.12691	110.80390
8700.00000	110.66620	-216.32398	110.66620
8750.00000	110.42912	-217.97888	110.42912
8800.00000	110.27443	-220.81911	110.27443
8850.00000	110.06144	-223.30139	110.06144
8900.00000	109.91459	-225.22866	109.91459
8950.00000	109.76563	-227.70190	109.76563
9000.00000	109.61358	-229.81248	109.61358
9050.00000	109.55517	-232.17596	109.55517
9100.00000	109.47060	-234.06358	109.47060
9150.00000	109.43615	-236.00442	109.43615
9200.00000	109.45345	-237.90429	109.45345
9250.00000	109.38890	-240.03477	109.38890
9300.00000	109.37047	-241.92335	109.37047
9350.00000	109.38297	-243.99599	109.38297
9400.00000	109.25737	-245.82113	109.25737
9450.00000	109.25810	-248.17398	109.25810
9500.00000	109.24981	-250.40900	109.24981
9550.00000	109.19518	-252.97521	109.19518
9600.00000	109.23135	-255.63899	109.23135
9650.00000	109.19441	-258.76490	109.19441
9700.00000	109.16733	-261.19714	109.16733
9750.00000	109.19138	-264.65524	109.19138
9800.00000	109.09166	-266.78927	109.09166
9850.00000	109.01672	-268.85069	109.01672
9900.00000	108.77606	-271.43507	108.77606
9950.00000	108.62358	-273.27559	108.62358
10000.00000	108.45191	-276.01886	108.45191
10050.00000	108.24509	-278.52047	108.24509
10100.00000	108.00500	-280.98599	108.00500
10150.00000	107.73279	-284.20229	107.73279
10200.00000	107.60169	-286.89010	107.60169
10250.00000	107.44592	-289.90353	107.44592
10300.00000	107.45861	-292.65571	107.45861
10350.00000	107.35656	-294.92292	107.35656
10400.00000	107.21053	-297.32800	107.21053
10450.00000	107.19276	-299.74420	107.19276
10500.00000	107.12216	-301.91932	107.12216
10550.00000	106.99115	-304.30825	106.99115
10600.00000	106.81967	-306.55229	106.81967
10650.00000	106.63945	-308.67917	106.63945
10700.00000	106.49003	-312.17479	106.49003
10750.00000	106.41030	-315.09073	106.41030
10800.00000	106.22216	-317.60492	106.22216
10850.00000	106.09346	-321.00355	106.09346
10900.00000	105.99057	-323.32224	105.99057
10950.00000	105.82752	-325.39450	105.82752
11000.00000	105.65773	-327.72591	105.65773
11050.00000	105.29692	-329.93614	105.29692
11100.00000	105.02508	-332.75951	105.02508
11150.00000	104.66250	-335.04267	104.66250
11200.00000	104.44188	-337.34981	104.44188
11250.00000	104.11559	-340.05683	104.11559
11300.00000	103.80605	-342.50453	103.80605
11350.00000	103.55402	-344.11712	103.55402
11400.00000	103.21942	-345.74964	103.21942
11450.00000	102.96636	-347.81691	102.96636
11500.00000	102.80536	-348.49424	102.80536
11550.00000	102.42008	-349.51690	102.42008
11600.00000	102.27819	-351.48080	102.27819
11650.00000	102.02085	-351.94637	102.02085
11700.00000	101.88477	-353.29893	101.88477
11750.00000	101.79380	-354.67134	101.79380
11800.00000	101.68995	-356.38240	101.68995
11850.00000	101.62839	-356.71613	101.62839
11900.00000	101.35812	-358.59151	101.35812
11950.00000	101.27631	-359.64442	101.27631
12000.00000	101.07009	-360.70537	101.07009
12050.00000	100.88456	-362.14899	100.88456
12100.00000	100.79002	-364.78497	100.79002
12150.00000	100.63973	-366.80652	100.63973
12200.00000	100.60373	-369.20633	100.60373
12250.00000	100.46044	-370.82736	100.46044
12300.00000	101.45001	-373.05412	101.45001
12350.00000	100.11226	-374.88689	100.11226
12400.00000	99.94804	-376.00134	99.94804
12450.00000	99.68075	-377.29431	99.68075
12500.00000	99.42127	-379.56485	99.42127
12550.00000	99.20602	-380.99355	99.20602
12600.00000	98.86630	-383.01829	98.86630
12650.00000	98.76872	-384.22727	98.76872
12700.00000	98.43589	-385.52820	98.43589
12750.00000	98.19190	-387.03361	98.19190
12800.00000	97.91507	-387.77713	97.91507
12850.00000	97.38252	-388.40813	97.38252
12900.00000	97.17875	-390.24356	97.17875
12950.00000	96.98494	-392.00318	96.98494
13000.00000	96.89363	-394.02334	96.89363
13050.00000	96.75542	-393.44736	96.75542
13100.00000	96.35023	-394.11106	96.35023
13150.00000	96.13532	-394.97009	96.13532
13200.00000	95.85400	-392.86899	95.85400
13250.00000	95.53479	-394.71685	95.53479
13300.00000	95.25921	-392.77677	95.25921
13350.00000	95.03486	-394.79192	95.03486
13400.00000	94.99439	-395.65408	94.99439
13450.00000	94.71898	-394.84382	94.71898
13500.00000	94.70956	-392.82692	94.70956
13550.00000	94.39905	-392.59529	94.39905
13600.00000	94.23483	-391.13513	94.23483
13650.00000	94.09857	-390.39583	94.09857
13700.00000	93.82345	-390.22915	93.82345
13750.00000	93.60643	-390.23772	93.60643
13800.00000	93.41613	-391.18319	93.41613
13850.00000	93.42149	-391.64935	93.42149
13900.00000	93.31992	-389.95038	93.31992
13950.00000	93.53311	-389.06705	93.53311
14000.00000	93.85404	-386.05970	93.85404
14050.00000	93.99191	-385.87844	93.99191
14100.00000	93.97865	-384.59559	93.97865
14150.00000	94.30983	-384.53657	94.30983
14200.00000	94.55523	-383.11186	94.55523
14250.00000	94.99181	-380.30466	94.99181
14300.00000	95.09447	-380.24857	95.09447
14350.00000	95.28344	-378.95180	95.28344
14400.00000	95.14065	-380.00585	95.14065
14450.00000	95.47905	-379.79312	95.47905
14500.00000	95.83711	-381.24923	95.83711
14550.00000	96.32359	-381.65003	96.32359
14600.00000	96.62291	-382.26358	96.62291
14650.00000	97.12434	-381.12020	97.12434
14700.00000	97.37221	-385.90519	97.37221
14750.00000	97.60541	-386.65033	97.60541
14800.00000	97.78567	-387.44649	97.78567
14850.00000	98.30736	-388.89648	98.30736
14900.00000	98.70429	-390.98799	98.70429
14950.00000	98.93520	-393.06944	98.93520
15000.00000	99.16802	-395.18649	99.16802
15050.00000	99.24204	-396.26026	99.24204
15100.00000	99.57455	-398.04775	99.57455
15150.00000	99.93147	-400.51600	99.93147
15200.00000	100.01535	-400.75016	100.01535
15250.00000	100.03426	-403.26376	100.03426
15300.00000	100.32759	-405.66214	100.32759
15350.00000	100.39369	-408.75622	100.39369
15400.00000	100.45952	-409.90512	100.45952
15450.00000	100.58446	-412.29066	100.58446
15500.00000	100.79478	-414.55887	100.79478
15550.00000	100.94432	-417.25960	100.94432
15600.00000	101.06826	-419.60584	101.06826
15650.00000	101.40091	-419.67250	101.40091
15700.00000	101.35957	-422.43883	101.35957
15750.00000	101.53575	-423.53483	101.53575
15800.00000	101.61221	-424.81450	101.61221
15850.00000	101.64136	-427.03544	101.64136
15900.00000	101.70918	-429.50136	101.70918
15950.00000	101.93333	-431.46399	101.93333
16000.00000	102.02070	-432.73575	102.02070
16050.00000	102.17888	-434.37559	102.17888
16100.00000	102.10357	-436.68094	102.10357
16150.00000	102.19603	-438.50756	102.19603
16200.00000	102.38866	-440.96417	102.38866
16250.00000	102.55200	-441.95957	102.55200
16300.00000	102.79495	-443.46048	102.79495
16350.00000	102.78042	-444.94174	102.78042
16400.00000	102.88342	-446.63896	102.88342
16450.00000	103.04228	-448.59871	103.04228
16500.00000	103.21220	-450.36935	103.21220
16550.00000	103.43139	-452.52063	103.43139
16600.00000	103.60369	-453.88821	103.60369
16650.00000	103.70677	-455.55799	103.70677
16700.00000	103.91184	-457.45818	103.91184
16750.00000	104.03267	-460.10759	104.03267
16800.00000	104.27621	-462.23638	104.27621
16850.00000	104.50495	-464.28465	104.50495
16900.00000	104.69586	-466.61340	104.69586
16950.00000	104.83303	-468.96406	104.83303
17000.00000	104.85312	-471.78786	104.85312
17050.00000	105.08829	-473.83259	105.08829
17100.00000	105.19071	-475.29817	105.19071
17150.00000	105.44690	-478.47916	105.44690
17200.00000	105.53012	-480.85325	105.53012
17250.00000	105.59377	-484.17741	105.59377
17300.00000	105.78238	-486.81076	105.78238
17350.00000	105.77885	-489.11837	105.77885
17400.00000	105.93665	-491.96484	105.93665
17450.00000	105.95236	-494.96332	105.95236
17500.00000	106.06194	-497.66749	106.06194
17550.00000	106.11417	-500.40231	106.11417
17600.00000	106.22821	-502.72401	106.22821
17650.00000	106.22794	-506.34443	106.22794
17700.00000	106.23525	-509.13416	106.23525
17750.00000	106.37922	-511.01392	106.37922
17800.00000	106.26260	-514.10769	106.26260
17850.00000	106.22741	-516.12978	106.22741
17900.00000	106.17856	-518.99050	106.17856
17950.00000	106.25537	-522.01423	106.25537
18000.00000	106.24974	-524.63430	106.24974
18050.00000	106.34706	-526.20845	106.34706
18100.00000	106.19323	-528.93857	106.19323
18150.00000	106.12733	-530.87360	106.12733
18200.00000	106.04694	-533.71779	106.04694
18250.00000	106.15174	-535.00153	106.15174
18300.00000	106.18225	-536.93590	106.18225
18350.00000	106.15415	-538.56736	106.15415
18400.00000	106.05661	-540.85832	106.05661
18450.00000	106.02317	-544.01697	106.02317
18500.00000	106.07783	-545.70683	106.07783
18550.00000	106.12669	-546.87879	106.12669
18600.00000	106.25475	-548.98926	106.25475
18650.00000	106.15295	-550.60047	106.15295
18700.00000	106.16963	-553.01356	106.16963
18750.00000	106.30019	-554.88034	106.30019
18800.00000	106.50674	-556.38726	106.50674
18850.00000	106.48627	-558.47244	106.48627
18900.00000	106.55841	-560.26072	106.55841
18950.00000	106.64751	-563.09260	106.64751
19000.00000	106.60540	-564.96243	106.60540
19050.00000	106.83343	-567.48212	106.83343
19100.00000	106.89600	-569.55909	106.89600
19150.00000	107.08629	-571.72508	107.08629
19200.00000	107.13711	-573.81645	107.13711
19250.00000	107.18612	-577.52895	107.18612
19300.00000	107.21601	-579.38222	107.21601
19350.00000	107.28770	-582.12837	107.28770
19400.00000	107.31826	-584.39103	107.31826
19450.00000	107.46923	-586.42504	107.46923
19500.00000	107.41015	-589.94346	107.41015
19550.00000	107.49280	-592.29777	107.49280
19600.00000	107.61601	-595.52228	107.61601
19650.00000	107.60676	-597.54025	107.60676
19700.00000	107.53139	-600.29946	107.53139
19750.00000	107.54452	-602.49413	107.54452
19800.00000	107.69003	-606.02118	107.69003
19850.00000	107.73607	-608.33674	107.73607
19900.00000	107.72583	-611.77597	107.72583
19950.00000	107.70173	-614.25701	107.70173
20000.00000	107.71345	-617.14987	107.71345
20050.00000	107.75096	-619.94991	107.75096
20100.00000	107.65156	-622.75552	107.65156
20150.00000	107.70982	-624.68824	107.70982
20200.00000	107.64385	-628.17662	107.64385
20250.00000	107.55606	-630.84421	107.55606
20300.00000	107.45197	-633.72356	107.45197
20350.00000	107.48218	-636.56093	107.48218
20400.00000	107.35835	-638.46407	107.35835
20450.00000	107.18452	-641.08023	107.18452
20500.00000	107.16023	-644.02106	107.16023
20550.00000	106.84450	-645.70925	106.84450
20600.00000	106.82488	-647.70385	106.82488
20650.00000	106.70492	-649.80682	106.70492
20700.00000	106.52705	-651.63790	106.52705
20750.00000	106.47666	-653.39821	106.47666
20800.00000	106.33569	-654.54923	106.33569
20850.00000	106.29389	-656.08773	106.29389
20900.00000	106.15848	-657.30395	106.15848
20950.00000	106.08663	-657.97850	106.08663
21000.00000	106.06779	-658.84381	106.06779
21050.00000	106.22199	-659.33824	106.22199
21100.00000	106.24792	-659.90290	106.24792
21150.00000	106.40009	-661.03088	106.40009
21200.00000	106.57473	-661.87367	106.57473
21250.00000	106.73948	-664.23141	106.73948
21300.00000	107.00043	-665.13078	107.00043
21350.00000	107.15854	-666.63555	107.15854
21400.00000	107.33130	-669.00091	107.33130
21450.00000	107.54583	-671.29371	107.54583
21500.00000	107.75400	-674.00820	107.75400
21550.00000	107.81456	-676.11913	107.81456
21600.00000	108.01988	-678.92619	108.01988
21650.00000	108.11885	-681.90144	108.11885
21700.00000	108.22196	-684.37943	108.22196
21750.00000	108.33153	-687.24812	108.33153
21800.00000	108.40827	-690.03256	108.40827
21850.00000	108.37980	-692.76322	108.37980
21900.00000	108.45165	-695.74703	108.45165
21950.00000	108.47444	-698.21620	108.47444
22000.00000	108.55253	-700.85480	108.55253
22050.00000	108.51138	-703.06703	108.51138
22100.00000	108.48881	-705.99003	108.48881
22150.00000	108.45936	-708.52806	108.45936
22200.00000	108.54390	-711.12532	108.54390
22250.00000	108.46428	-712.84246	108.46428
22300.00000	108.31518	-715.40665	108.31518
22350.00000	108.41077	-718.06058	108.41077
22400.00000	108.41978	-720.45924	108.41978
22450.00000	108.34703	-722.36529	108.34703
22500.00000	108.24458	-723.32363	108.24458
22550.00000	108.21734	-725.87116	108.21734
22600.00000	108.14083	-728.94991	108.14083
22650.00000	108.18015	-730.91097	108.18015
22700.00000	108.12600	-732.22601	108.12600
22750.00000	108.04425	-732.43580	108.04425
22800.00000	108.07111	-736.58707	108.07111
22850.00000	108.12690	-739.37221	108.12690
22900.00000	108.14586	-739.22554	108.14586
22950.00000	108.12765	-740.95329	108.12765
23000.00000	108.08699	-742.08937	108.08699
23050.00000	108.01745	-744.85890	108.01745
23100.00000	108.21272	-745.67779	108.21272
23150.00000	108.09975	-746.54797	108.09975
23200.00000	108.24390	-749.24360	108.24390
23250.00000	108.08762	-752.24233	108.08762
23300.00000	108.41793	-754.42980	108.41793
23350.00000	108.20043	-756.03784	108.20043
23400.00000	108.20151	-757.47089	108.20151
23450.00000	108.37899	-759.62774	108.37899
23500.00000	108.27122	-760.98836	108.27122
23550.00000	108.32650	-761.44739	108.32650
23600.00000	108.32370	-765.10011	108.32370
23650.00000	108.39418	-766.36657	108.39418
23700.00000	108.60059	-770.42431	108.60059
23750.00000	108.59790	-771.75597	108.59790
23800.00000	108.39799	-772.17843	108.39799
23850.00000	108.56560	-773.57520	108.56560
23900.00000	108.92678	-776.27864	108.92678
23950.00000	108.66494	-779.40685	108.66494
24000.00000	108.61404	-782.56697	108.61404
24050.00000	108.76630	-782.58883	108.76630
24100.00000	109.03385	-786.97008	109.03385
24150.00000	109.03150	-788.69147	109.03150
24200.00000	109.04557	-792.73299	109.04557
24250.00000	108.73146	-793.16824	108.73146
24300.00000	108.96213	-795.93432	108.96213
24350.00000	108.87095	-798.29661	108.87095
24400.00000	108.82060	-801.85845	108.82060
24450.00000	108.58424	-803.58034	108.58424
24500.00000	109.06313	-804.86135	109.06313
24550.00000	108.81886	-809.96154	108.81886
24600.00000	109.26395	-451.00212	109.26395
24650.00000	108.99923	-95.16589	108.99923
24700.00000	108.82382	265.04075	108.82382
24750.00000	108.86684	620.20004	108.86684
24800.00000	108.83853	977.85067	108.83853
24850.00000	108.54923	1336.64770	108.54923
24900.00000	108.56683	1695.49040	108.56683
24950.00000	108.67230	2050.94511	108.67230
25000.00000	108.67198	2043.72195	108.67198
25050.00000	108.73011	2045.33814	108.73011
25100.00000	108.32598	2040.93158	108.32598
25150.00000	108.65022	2039.96036	108.65022
25200.00000	108.40413	2036.03288	108.40413
25250.00000	108.54992	2034.75431	108.54992
25300.00000	108.54776	2032.82910	108.54776
25350.00000	108.50097	2025.83603	108.50097
25400.00000	108.37632	2022.09814	108.37632
25450.00000	108.39951	2020.23861	108.39951
25500.00000	108.25916	2018.26945	108.25916
25550.00000	108.21939	2014.24599	108.21939
25600.00000	108.23922	2011.46299	108.23922
25650.00000	108.09954	2009.67807	108.09954
25700.00000	108.06507	2005.51154	108.06507
25750.00000	107.81938	2002.23494	107.81938
25800.00000	107.68973	1998.07486	107.68973
25850.00000	107.65382	1995.23777	107.65382
25900.00000	107.50122	1990.77444	107.50122
25950.00000	107.20745	1991.60011	107.20745
26000.00000	107.16942	1985.71137	107.16942
26050.00000	107.04267	1982.88323	107.04267
26100.00000	106.83550	1979.93555	106.83550
26150.00000	106.68847	1977.13376	106.68847
26200.00000	106.62532	1973.73775	106.62532
26250.00000	106.35782	1970.83459	106.35782
26300.00000	106.36053	1967.00330	106.36053
26350.00000	105.83701	1965.96552	105.83701
26400.00000	105.65987	1963.28153	105.65987
26450.00000	105.85220	1958.81581	105.85220
26500.00000	105.43124	1956.01905	105.43124
26550.00000	105.19909	1950.37257	105.19909
26600.00000	104.98132	1948.34893	104.98132
26650.00000	104.87748	1948.12408	104.87748
26700.00000	104.66494	1944.77695	104.66494
26750.00000	104.29491	1941.83172	104.29491
26800.00000	104.10029	1936.09887	104.10029
26850.00000	104.21856	1935.67822	104.21856
26900.00000	103.94305	1934.01519	103.94305
26950.00000	103.84502	1930.09012	103.84502
27000.00000	103.26773	1928.86016	103.26773
27050.00000	103.41914	1925.63077	103.41914
27100.00000	102.99942	1924.85888	102.99942
27150.00000	102.82802	1920.88784	102.82802
27200.00000	102.72388	1918.94236	102.72388
27250.00000	102.22846	1917.66582	102.22846
27300.00000	101.84940	1914.23154	101.84940
27350.00000	101.91465	1914.01174	101.91465
27400.00000	101.47293	1910.80725	101.47293
27450.00000	101.27020	1909.53546	101.27020
27500.00000	100.99587	1908.13538	100.99587
27550.00000	101.03490	1905.83620	101.03490
27600.00000	101.08176	1902.86605	101.08176
27650.00000	100.56845	1903.40190	100.56845
27700.00000	100.54172	1898.91884	100.54172
27750.00000	100.37781	1896.68550	100.37781
27800.00000	100.42194	1893.52155	100.42194
27850.00000	100.43455	1896.39414	100.43455
27900.00000	99.85256	1894.12184	99.85256
27950.00000	99.20865	1892.04650	99.20865
28000.00000	99.27845	1890.90078	99.27845
28050.00000	99.82560	1888.22651	99.82560
28100.00000	99.05694	1887.40151	99.05694
28150.00000	99.12733	1886.42543	99.12733
28200.00000	99.24271	1881.76871	99.24271
28250.00000	98.90503	1880.45073	98.90503
28300.00000	98.41172	1881.53023	98.41172
28350.00000	98.65499	1880.70831	98.65499
28400.00000	98.55153	1879.94160	98.55153
28450.00000	98.95913	1876.67088	98.95913
28500.00000	98.42899	1876.39361	98.42899
28550.00000	98.32121	1877.99411	98.32121
28600.00000	98.30724	1876.15773	98.30724
28650.00000	98.47844	1871.84371	98.47844
28700.00000	98.27784	1873.24135	98.27784
28750.00000	98.91597	1873.70320	98.91597
28800.00000	98.65711	1871.75109	98.65711
28850.00000	97.97748	1867.61618	97.97748
28900.00000	98.14613	1867.74207	98.14613
28950.00000	97.96848	1868.50673	97.96848
29000.00000	98.25114	1866.87955	98.25114
29050.00000	97.86893	1867.21901	97.86893
29100.00000	97.91171	1866.77204	97.91171
29150.00000	97.67307	1865.82397	97.67307
29200.00000	97.56793	1863.73638	97.56793
29250.00000	97.92323	1863.98765	97.92323
29300.00000	97.65160	1862.34946	97.65160
29350.00000	97.94215	1861.70437	97.94215
29400.00000	97.95059	1861.45550	97.95059
29450.00000	97.84579	1860.59200	97.84579
29500.00000	98.17338	1860.82735	98.17338
29550.00000	97.92226	1856.85137	97.92226
29600.00000	97.67679	1858.87886	97.67679
29650.00000	97.97158	1856.22140	97.97158
29700.00000	97.93225	1858.54024	97.93225
29750.00000	97.98882	1859.52857	97.98882
29800.00000	97.72364	1856.96294	97.72364
29850.00000	97.94738	1855.80803	97.94738
29900.00000	98.22643	1857.16643	98.22643
29950.00000	97.39741	1857.62587	97.39741
30000.00000	98.03283	1858.79039	98.03283
30050.00000	98.17321	1858.08621	98.17321
30100.00000	97.97406	1859.23899	97.97406
30150.00000	98.20028	1857.45043	98.20028
30200.00000	98.31511	1856.16010	98.31511
30250.00000	98.28054	1857.83897	98.28054
30300.00000	98.20660	1859.38198	98.20660
30350.00000	98.46613	1860.82085	98.46613
30400.00000	98.61148	1860.17911	98.61148
30450.00000	98.44911	1860.56390	98.44911
30500.00000	98.68822	1860.94768	98.68822
30550.00000	98.83711	1863.02191	98.83711
30600.00000	98.98562	1863.57152	98.98562
30650.00000	99.21682	1864.86072	99.21682
30700.00000	99.44841	1864.35312	99.44841
30750.00000	99.52306	1867.06145	99.52306
30800.00000	99.76095	1867.53734	99.76095
30850.00000	100.16458	1868.91002	100.16458
30900.00000	100.24228	1870.91211	100.24228
30950.00000	100.81411	1870.30386	100.81411
31000.00000	101.21334	1870.03760	101.21334
31050.00000	101.64238	1871.36372	101.64238
31100.00000	102.17968	1872.17952	102.17968
31150.00000	102.25543	1871.71833	102.25543
31200.00000	103.15434	1871.30475	103.15434
31250.00000	103.50561	1870.52988	103.50561
31300.00000	103.98407	1869.49971	103.98407
31350.00000	104.56446	1868.43023	104.56446
31400.00000	104.85482	1866.00854	104.85482
31450.00000	105.34230	1864.57325	105.34230
31500.00000	105.75853	1861.51230	105.75853
31550.00000	106.14873	1860.17436	106.14873
31600.00000	106.71498	1856.67249	106.71498
31650.00000	106.94747	1853.54397	106.94747
31700.00000	107.34616	1851.52991	107.34616
31750.00000	107.69129	1849.48629	107.69129
31800.00000	107.93467	1845.43092	107.93467
31850.00000	108.19453	1841.54478	108.19453
31900.00000	108.27736	1839.05004	108.27736
31950.00000	108.57873	1835.26328	108.57873
32000.00000	108.78989	1831.51690	108.78989
32050.00000	108.99690	1828.59790	108.99690
32100.00000	109.02299	1824.30538	109.02299
32150.00000	109.16490	1821.74156	109.16490
32200.00000	109.31737	1817.95563	109.31737
32250.00000	109.31139	1813.83316	109.31139
32300.00000	109.31006	1810.81523	109.31006
32350.00000	109.29807	1807.69039	109.29807
32400.00000	109.45085	1804.78991	109.45085
32450.00000	109.28163	1801.05230	109.28163
32500.00000	109.36331	1798.38887	109.36331
32550.00000	109.43868	1794.27310	109.43868
32600.00000	109.34486	1792.01416	109.34486
32650.00000	109.36520	1788.64833	109.36520
32700.00000	109.21034	1785.31021	109.21034
32750.00000	109.17713	1782.00934	109.17713
32800.00000	109.25308	1780.28568	109.25308
32850.00000	109.24340	1776.90987	109.24340
32900.00000	109.10364	1773.65977	109.10364
32950.00000	108.94702	1770.60019	108.94702
33000.00000	108.98136	1770.17088	108.98136
33050.00000	108.81353	1765.92949	108.81353
33100.00000	108.95254	1763.54347	108.95254
33150.00000	108.91052	1762.36057	108.91052
33200.00000	109.13484	1760.99785	109.13484
33250.00000	108.95205	1758.39968	108.95205
33300.00000	108.92270	1755.30003	108.92270
33350.00000	109.02426	1752.66822	109.02426
33400.00000	109.08262	1750.88401	109.08262
33450.00000	109.21913	1748.03207	109.21913
33500.00000	109.32210	1747.25106	109.32210
33550.00000	109.22000	1743.20313	109.22000
33600.00000	109.62731	1741.32281	109.62731
33650.00000	109.66820	1738.20271	109.66820
33700.00000	109.77415	1736.84017	109.77415
33750.00000	109.78263	1733.30745	109.78263
33800.00000	110.08949	1730.51457	110.08949
33850.00000	109.88402	1727.82098	109.88402
33900.00000	110.33209	1724.55020	110.33209
33950.00000	110.32304	1722.07209	110.32304
34000.00000	110.53054	1718.43064	110.53054
34050.00000	110.56631	1715.43230	110.56631
34100.00000	110.57360	1713.72847	110.57360
34150.00000	110.77937	1709.52919	110.77937
34200.00000	110.91607	1708.21308	110.91607
34250.00000	111.06600	1703.76313	111.06600
34300.00000	111.11025	1700.59601	111.11025
34350.00000	111.31394	1697.55701	111.31394
34400.00000	111.11356	1696.32359	111.11356
34450.00000	111.35510	1690.55094	111.35510
34500.00000	111.36885	1687.74214	111.36885
34550.00000	111.51588	1684.47030	111.51588
34600.00000	111.20284	1680.60262	111.20284
34650.00000	111.62169	1680.43094	111.62169
34700.00000	111.25651	1678.77086	111.25651
34750.00000	111.59358	1671.65487	111.59358
34800.00000	111.75620	1672.70439	111.75620
34850.00000	111.92360	1671.10388	111.92360
34900.00000	112.17532	1665.76173	112.17532
34950.00000	112.04501	1665.02635	112.04501
35000.00000	112.10717	1662.15005	112.10717
35050.00000	112.36840	1660.05795	112.36840
35100.00000	112.63062	1656.81145	112.63062
35150.00000	112.41067	1655.48553	112.41067
35200.00000	112.65367	1651.83280	112.65367
35250.00000	112.74956	1649.00218	112.74956
35300.00000	112.98415	1646.06822	112.98415
35350.00000	113.26186	1643.88825	113.26186
35400.00000	113.33891	1640.70724	113.33891
35450.00000	113.47815	1638.90755	113.47815
35500.00000	113.35253	1636.24184	113.35253
35550.00000	113.88595	1634.57112	113.88595
35600.00000	113.88281	1631.37813	113.88281
35650.00000	114.09544	1629.01590	114.09544
35700.00000	114.20873	1626.73973	114.20873
35750.00000	114.22492	1624.83815	114.22492
35800.00000	114.55473	1623.22641	114.55473
35850.00000	114.80606	1619.26568	114.80606
35900.00000	115.00701	1616.81007	115.00701
35950.00000	115.31266	1613.94635	115.31266
36000.00000	115.42268	1611.64802	115.42268
36050.00000	115.66119	1608.76586	115.66119
36100.00000	115.96597	1606.04688	115.96597
36150.00000	115.95338	1603.48236	115.95338
36200.00000	116.12080	1601.03601	116.12080
36250.00000	116.16746	1598.14329	116.16746
36300.00000	116.30391	1596.05099	116.30391
36350.00000	116.68975	1593.17078	116.68975
36400.00000	116.83223	1590.54568	116.83223
36450.00000	116.78286	1587.71510	116.78286
36500.00000	117.22910	1585.78249	117.22910
36550.00000	117.15045	1581.71464	117.15045
36600.00000	117.33754	1579.46407	117.33754
36650.00000	117.61009	1577.56539	117.61009
36700.00000	117.83387	1573.69302	117.83387
36750.00000	117.91976	1570.90284	117.91976
36800.00000	117.98590	1568.81239	117.98590
36850.00000	117.96177	1566.18376	117.96177
36900.00000	118.32225	1562.78050	118.32225
36950.00000	118.16947	1559.62937	118.16947
37000.00000	118.02401	1558.28005	118.02401
37050.00000	118.19415	1556.19063	118.19415
37100.00000	118.38917	1552.24454	118.38917
37150.00000	118.47302	1549.53042	118.47302
37200.00000	118.76933	1547.94930	118.76933
37250.00000	118.42256	1544.96552	118.42256
37300.00000	118.48027	1542.45727	118.48027
37350.00000	118.77025	1540.38695	118.77025
37400.00000	118.57171	1538.86275	118.57171
37450.00000	118.50671	1536.78991	118.50671
37500.00000	118.96652	1533.29836	118.96652
37550.00000	118.64629	1531.94967	118.64629
37600.00000	118.75079	1529.69312	118.75079
37650.00000	118.78017	1527.92493	118.78017
37700.00000	118.94693	1524.61748	118.94693
37750.00000	118.97916	1522.91183	118.97916
37800.00000	118.87596	1519.92655	118.87596
37850.00000	118.95721	1516.71746	118.95721
37900.00000	118.96795	1514.93328	118.96795
37950.00000	119.08411	1513.46896	119.08411
38000.00000	119.04491	1511.22410	119.04491
38050.00000	119.15360	1507.91747	119.15360
38100.00000	119.30151	1505.34669	119.30151
38150.00000	119.22064	1502.17706	119.22064
38200.00000	119.35041	1498.66668	119.35041
38250.00000	119.33559	1496.41403	119.33559
38300.00000	119.46843	1492.52470	119.46843
38350.00000	119.44062	1490.36461	119.44062
38400.00000	119.49439	1487.07212	119.49439
38450.00000	119.50830	1483.22242	119.50830
38500.00000	119.61919	1479.59010	119.61919
38550.00000	119.70533	1476.64204	119.70533
38600.00000	119.73033	1473.16266	119.73033
38650.00000	119.80522	1468.93785	119.80522
38700.00000	119.77041	1464.85289	119.77041
38750.00000	119.80330	1461.13119	119.80330
38800.00000	119.87892	1457.13476	119.87892
38850.00000	119.86213	1452.73070	119.86213
38900.00000	119.90011	1448.63750	119.90011
38950.00000	119.85416	1443.83193	119.85416
39000.00000	119.81480	1439.48002	119.81480
39050.00000	119.81165	1434.66965	119.81165
39100.00000	119.62969	1430.21455	119.62969
39150.00000	119.51313	1425.52364	119.51313
39200.00000	119.41056	1420.99768	119.41056
39250.00000	119.28337	1416.17892	119.28337
39300.00000	119.11977	1411.29269	119.11977
39350.00000	118.89470	1407.10711	118.89470
39400.00000	118.66095	1402.25728	118.66095
39450.00000	118.39840	1398.39470	118.39840
39500.00000	118.18724	1393.79407	118.18724
39550.00000	117.88402	1389.61307	117.88402
39600.00000	117.61949	1385.43167	117.61949
39650.00000	117.34646	1382.14888	117.34646
39700.00000	117.04390	1378.11957	117.04390
39750.00000	116.80623	1373.81309	116.80623
39800.00000	116.53241	1370.58746	116.53241
39850.00000	116.20055	1366.82469	116.20055
39900.00000	115.92570	1363.72342	115.92570
39950.00000	115.62744	1360.44081	115.62744
40000.00000	115.22862	1358.59607	115.22862
40050.00000	115.11030	1354.65184	115.11030
40100.00000	114.86893	1351.33365	114.86893
40150.00000	114.57142	1348.54013	114.57142
40200.00000	114.29213	1345.53963	114.29213
40250.00000	114.04633	1343.09184	114.04633
40300.00000	113.85158	1341.09752	113.85158
40350.00000	113.46118	1338.78182	113.46118
40400.00000	113.21697	1336.48096	113.21697
40450.00000	113.00899	1334.60468	113.00899
40500.00000	112.89597	1333.01617	112.89597
40550.00000	112.65878	1330.54641	112.65878
40600.00000	112.43145	1328.43045	112.43145
40650.00000	112.31171	1327.32833	112.31171
40700.00000	112.09818	1326.53031	112.09818
40750.00000	112.18334	1324.32288	112.18334
40800.00000	111.98279	1322.62136	111.98279
40850.00000	111.85538	1322.07701	111.85538
40900.00000	111.73761	1320.40792	111.73761
40950.00000	111.59139	1319.52979	111.59139
41000.00000	111.45278	1318.63841	111.45278
41050.00000	111.50984	1317.58771	111.50984
41100.00000	111.63012	1316.47297	111.63012
41150.00000	111.69591	1317.35225	111.69591
41200.00000	111.73838	1314.76438	111.73838
41250.00000	111.69541	1312.10251	111.69541
41300.00000	111.59662	1312.80958	111.59662
41350.00000	111.82066	1312.75013	111.82066
41400.00000	111.94775	1306.91634	111.94775
41450.00000	112.12393	1309.26630	112.12393
41500.00000	112.01264	1307.53463	112.01264
41550.00000	112.08903	1309.70883	112.08903
41600.00000	111.90673	1307.00978	111.90673
41650.00000	112.34591	1304.03900	112.34591
41700.00000	112.58171	1304.03561	112.58171
41750.00000	112.33995	1307.82765	112.33995
41800.00000	111.66745	1300.07343	111.66745
41850.00000	111.82232	1301.32699	111.82232
41900.00000	111.72341	1300.99500	111.72341
41950.00000	112.98408	1303.99919	112.98408
42000.00000	112.02112	1297.86573	112.02112
42050.00000	111.15314	1296.58328	111.15314
42100.00000	111.67537	1296.62138	111.67537
42150.00000	111.26785	1291.10628	111.26785
42200.00000	111.06645	1297.89827	111.06645
42250.00000	111.02743	1295.54815	111.02743
42300.00000	110.13304	1292.27380	110.13304
42350.00000	110.28078	1292.54037	110.28078
42400.00000	110.19490	1293.66348	110.19490
42450.00000	110.53505	1289.51255	110.53505
42500.00000	109.95265	1289.11178	109.95265
42550.00000	110.05936	1300.67676	110.05936
42600.00000	109.47006	1293.91506	109.47006
42650.00000	108.95872	1292.90096	108.95872
42700.00000	108.63090	1291.90464	108.63090
42750.00000	109.38568	1291.64684	109.38568
42800.00000	108.44280	1285.83832	108.44280
42850.00000	108.26335	1286.31890	108.26335
42900.00000	109.07086	1292.12373	109.07086
42950.00000	108.16553	1287.85098	108.16553
43000.00000	108.42224	1279.58438	108.42224
43050.00000	107.84766	1278.65696	107.84766
43100.00000	107.98535	1283.46661	107.98535
43150.00000	105.70732	1283.37024	105.70732
43200.00000	107.01744	1278.80685	107.01744
43250.00000	106.93175	1277.66754	106.93175
43300.00000	107.17539	1276.50055	107.17539
43350.00000	107.43624	1272.91827	107.43624
43400.00000	107.06344	1271.24555	107.06344
43450.00000	107.52577	1273.03422	107.52577
43500.00000	106.15629	1264.42666	106.15629
43550.00000	106.55222	1263.97190	106.55222
43600.00000	106.49246	1259.67896	106.49246
43650.00000	106.63286	1252.19616	106.63286
43700.00000	106.42021	1254.71241	106.42021
43750.00000	105.90936	1253.81299	105.90936
43800.00000	105.92059	1246.11592	105.92059
43850.00000	106.57514	1239.24589	106.57514
43900.00000	106.53130	1237.42863	106.53130
43950.00000	106.33918	1232.50267	106.33918
44000.00000	105.26825	1228.73420	105.26825
44050.00000	105.50312	1224.88857	105.50312
44100.00000	105.56425	1212.76775	105.56425
44150.00000	105.30117	1216.75743	105.30117
44200.00000	105.17126	1214.56136	105.17126
44250.00000	104.93289	1206.95894	104.93289
44300.00000	105.07540	1197.97460	105.07540
44350.00000	103.48316	1195.08031	103.48316
44400.00000	104.33837	1192.34632	104.33837
44450.00000	104.48955	1189.38172	104.48955
44500.00000	103.66277	1187.26563	103.66277
44550.00000	105.45577	1175.41876	105.45577
44600.00000	103.26318	1177.15674	103.26318
44650.00000	102.82529	1169.66681	102.82529
44700.00000	102.63196	1163.99542	102.63196
44750.00000	102.77417	1165.53592	102.77417
44800.00000	103.26269	1156.74441	103.26269
44850.00000	102.28228	1150.25725	102.28228
44900.00000	101.84826	1150.92633	101.84826
44950.00000	101.75458	1144.60472	101.75458
45000.00000	101.14897	1135.48109	101.14897
45050.00000	99.51984	1140.34576	99.51984
45100.00000	100.86629	1131.19186	100.86629
45150.00000	100.74922	1120.07782	100.74922
45200.00000	99.78885	1121.38475	99.78885
45250.00000	99.70703	1118.94184	99.70703
45300.00000	99.50473	1114.79312	99.50473
45350.00000	98.75171	1103.82147	98.75171
45400.00000	98.76591	1102.78532	98.76591
45450.00000	98.40535	1093.15795	98.40535
45500.00000	97.19767	1089.75367	97.19767
45550.00000	96.32911	1092.87410	96.32911
45600.00000	97.60733	1084.16993	97.60733
45650.00000	95.08885	1075.34687	95.08885
45700.00000	95.32889	1072.12007	95.32889
45750.00000	96.22683	1074.24427	96.22683
45800.00000	94.86794	1065.96548	94.86794
45850.00000	94.23941	1067.13186	94.23941
45900.00000	93.82968	1065.24347	93.82968
45950.00000	92.99027	1063.26422	92.99027
46000.00000	92.27216	1045.46003	92.27216
46050.00000	92.43860	1041.60436	92.43860
46100.00000	90.05178	1048.16766	90.05178
46150.00000	89.99914	1046.86099	89.99914
46200.00000	87.09130	1030.56724	87.09130
46250.00000	87.53995	1031.00605	87.53995
46300.00000	86.86752	1034.18017	86.86752
46350.00000	88.96674	1030.26621	88.96674
46400.00000	88.37804	1028.64122	88.37804
46450.00000	84.63906	1021.85959	84.63906
46500.00000	86.89640	1038.29607	86.89640
46550.00000	85.67717	1035.43259	85.67717
46600.00000	86.21621	1034.15078	86.21621
46650.00000	80.77645	1009.73805	80.77645
46700.00000	82.83232	1027.91610	82.83232
46750.00000	83.33334	1048.02499	83.33334
46800.00000	81.80406	1041.89644	81.80406
46850.00000	82.82945	667.90982	82.82945
46900.00000	83.97717	668.65246	83.97717
46950.00000	83.34050	672.23102	83.34050
47000.00000	82.49857	686.01239	82.49857
47050.00000	82.13350	657.11108	82.13350
47100.00000	82.66916	688.63490	82.66916
47150.00000	82.11447	666.95051	82.11447
47200.00000	83.81398	678.48999	83.81398
47250.00000	84.76273	668.30961	84.76273
47300.00000	85.51415	655.42499	85.51415
47350.00000	81.18770	308.34342	81.18770
47400.00000	82.60260	304.31704	82.60260
47450.00000	86.54779	310.76825	86.54779
47500.00000	83.72207	306.80846	83.72207
47550.00000	82.14770	-48.08346	82.14770
47600.00000	81.32453	-46.21946	81.32453
47650.00000	83.65726	-49.88012	83.65726
47700.00000	84.05656	-64.06265	84.05656
47750.00000	79.79026	-58.87446	79.79026
47800.00000	80.19130	-50.85643	80.19130
47850.00000	81.93823	-413.76521	81.93823
47900.00000	83.60138	-753.71967	83.60138
47950.00000	81.33046	-780.80373	81.33046
48000.00000	84.37481	-778.01356	84.37481
48050.00000	86.10727	-768.67884	86.10727
48100.00000	81.90797	-790.27497	81.90797
48150.00000	83.61178	-1140.01170	83.61178
48200.00000	83.69422	-1136.43831	83.69422
48250.00000	83.90421	-1143.84823	83.90421
48300.00000	84.52602	-1155.83569	84.52602
48350.00000	84.95652	-1167.84313	84.95652
48400.00000	86.31699	-1508.88062	86.31699
48450.00000	85.79519	-1519.64228	85.79519
48500.00000	85.62449	-1537.04612	85.62449
48550.00000	84.50251	-1538.32274	84.50251
48600.00000	85.79397	-1892.36106	85.79397
48650.00000	88.02017	-1891.99372	88.02017
48700.00000	87.72839	-1892.36305	87.72839
48750.00000	83.80398	-2256.80958	83.80398
48800.00000	85.94740	-2256.46540	85.94740
48850.00000	85.46475	-2269.96410	85.46475
48900.00000	83.63191	-2638.56479	83.63191
48950.00000	84.73117	-2652.02394	84.73117
49000.00000	81.04439	-2609.26324	81.04439
49050.00000	84.69154	-2633.27368	84.69154
49100.00000	84.80771	-2981.84139	84.80771
49150.00000	82.69177	-3346.50290	82.69177
49200.00000	85.77439	-3371.24503	85.77439
49250.00000	80.81390	-3724.28028	80.81390
49300.00000	79.50568	-3359.88176	79.50568
49350.00000	81.68442	-3381.25675	81.68442
49400.00000	79.93866	-3009.75712	79.93866
49450.00000	77.35850	-2653.45689	77.35850
49500.00000	80.63913	-2317.09077	80.63913
49550.00000	82.31822	-1916.92357	82.31822
49600.00000	81.88512	-1921.62644	81.88512
49650.00000	82.62987	-1951.32167	82.62987
49700.00000	81.37808	-1571.94677	81.37808
49750.00000	86.48896	-1558.16563	86.48896
49800.00000	79.14369	-1549.73747	79.14369
49850.00000	75.25793	-1539.59297	75.25793
49900.00000	82.37999	-1204.94412	82.37999
49950.00000	78.94326	-875.47953	78.94326
