---ACOUSTIC CALIBRATION---
Filename: C:\Data\AZH DATA\AZH51\RightPrimary.calib
Date: 8/27/2019 11:14:23 AM
Format: 4
Probe Tube Correction File: C:\Data\Probe Tube Calibrations\50_ProbeTube.calib
Experiment VIs: 850
EPL_CFTS.exe V12.0.1 (2012)
DAQmx V9.6

Attenuation (dB): 40.000000
Min Freq (Hz): 50.000000
Max Freq (Hz): 49950.000000
Freq Step (Hz): 50.000000
Sample Rate (Hz): 100000.000000
[Smoothing]
Method=None
MA.Iterations=0
MA.Length=0
Loess.Length=0
Loess.Type=Linear
Loess.Robust=FALSE


Freq(Hz)	Mag(dB)	Phase(deg)	Unsmoothed(dB)

50.00000	101.59381	430.79614	101.59381
100.00000	82.21809	249.76123	82.21809
150.00000	81.44847	164.33893	81.44847
200.00000	85.86721	83.46377	85.86721
250.00000	88.72982	82.12685	88.72982
300.00000	89.37962	25.99758	89.37962
350.00000	84.70439	22.35487	84.70439
400.00000	88.47067	12.59017	88.47067
450.00000	90.29818	-12.96558	90.29818
500.00000	90.45849	-4.92776	90.45849
550.00000	94.77052	-4.08368	94.77052
600.00000	98.38097	-13.40465	98.38097
650.00000	99.64966	-23.41563	99.64966
700.00000	102.60443	-33.84764	102.60443
750.00000	103.84755	-53.27470	103.84755
800.00000	104.39237	-72.89604	104.39237
850.00000	103.75121	-92.23200	103.75121
900.00000	101.73110	-107.74761	101.73110
950.00000	100.00676	-108.23595	100.00676
1000.00000	98.61442	-104.64215	98.61442
1050.00000	97.08571	-87.72238	97.08571
1100.00000	99.22342	-67.03456	99.22342
1150.00000	102.11377	-65.05804	102.11377
1200.00000	104.60336	-67.24154	104.60336
1250.00000	106.52541	-74.19985	106.52541
1300.00000	108.06836	-80.45883	108.06836
1350.00000	109.44330	-88.91946	109.44330
1400.00000	110.47504	-96.04382	110.47504
1450.00000	111.39481	-103.06712	111.39481
1500.00000	112.53562	-109.73037	112.53562
1550.00000	113.32067	-118.92127	113.32067
1600.00000	114.69938	-129.12389	114.69938
1650.00000	115.64444	-145.31837	115.64444
1700.00000	114.40834	-155.76278	114.40834
1750.00000	114.11085	-160.78055	114.11085
1800.00000	113.94193	-164.06958	113.94193
1850.00000	114.21060	-165.28310	114.21060
1900.00000	115.43526	-170.78402	115.43526
1950.00000	115.97104	-185.31282	115.97104
2000.00000	114.76964	-196.51574	114.76964
2050.00000	113.55927	-190.84542	113.55927
2100.00000	115.49472	-192.14899	115.49472
2150.00000	116.01413	-203.95055	116.01413
2200.00000	115.79738	-213.96423	115.79738
2250.00000	115.20794	-220.59995	115.20794
2300.00000	115.19589	-226.31556	115.19589
2350.00000	114.91732	-232.35358	114.91732
2400.00000	114.60953	-237.85083	114.60953
2450.00000	114.18833	-244.29622	114.18833
2500.00000	113.75274	-248.76661	113.75274
2550.00000	113.21684	-254.07051	113.21684
2600.00000	112.58051	-257.99177	112.58051
2650.00000	112.00351	-261.46692	112.00351
2700.00000	111.31717	-264.82720	111.31717
2750.00000	110.50208	-267.81400	110.50208
2800.00000	109.56298	-269.60234	109.56298
2850.00000	108.66854	-269.67986	108.66854
2900.00000	107.65196	-269.05536	107.65196
2950.00000	106.53289	-265.62606	106.53289
3000.00000	105.41454	-259.86724	105.41454
3050.00000	104.52851	-249.28216	104.52851
3100.00000	104.66489	-234.08659	104.66489
3150.00000	105.79235	-221.81893	105.79235
3200.00000	107.60384	-213.63988	107.60384
3250.00000	109.38152	-210.02435	109.38152
3300.00000	111.08145	-208.74880	111.08145
3350.00000	112.73292	-208.97333	112.73292
3400.00000	114.50945	-209.69017	114.50945
3450.00000	116.33178	-213.63054	116.33178
3500.00000	118.09500	-220.09974	118.09500
3550.00000	119.40650	-228.76163	119.40650
3600.00000	120.54304	-236.95691	120.54304
3650.00000	121.43287	-246.40777	121.43287
3700.00000	122.10996	-255.48033	122.10996
3750.00000	122.62011	-264.57808	122.62011
3800.00000	122.90449	-273.26302	122.90449
3850.00000	123.07188	-280.61571	123.07188
3900.00000	123.29986	-286.71137	123.29986
3950.00000	123.67035	-292.79694	123.67035
4000.00000	124.07471	-299.41493	124.07471
4050.00000	124.47032	-306.26269	124.47032
4100.00000	124.87689	-313.50179	124.87689
4150.00000	125.40662	-321.53815	125.40662
4200.00000	125.58288	-330.62287	125.58288
4250.00000	125.72779	-339.87658	125.72779
4300.00000	125.71984	-349.13630	125.71984
4350.00000	125.55224	-358.26030	125.55224
4400.00000	125.28330	-366.64946	125.28330
4450.00000	124.96001	-374.48206	124.96001
4500.00000	124.62160	-381.91043	124.62160
4550.00000	124.27214	-389.28675	124.27214
4600.00000	123.86952	-396.48469	123.86952
4650.00000	123.47225	-403.61652	123.47225
4700.00000	122.97887	-411.18335	122.97887
4750.00000	122.31981	-418.77820	122.31981
4800.00000	121.46170	-426.00911	121.46170
4850.00000	120.39579	-431.76646	120.39579
4900.00000	119.25257	-435.57768	119.25257
4950.00000	118.18125	-437.32490	118.18125
5000.00000	117.25571	-437.59167	117.25571
5050.00000	116.47758	-437.52078	116.47758
5100.00000	115.74073	-434.06661	115.74073
5150.00000	116.04867	-431.29628	116.04867
5200.00000	116.34096	-430.26359	116.34096
5250.00000	116.97937	-435.87900	116.97937
5300.00000	116.57310	-442.17440	116.57310
5350.00000	115.98272	-444.81659	115.98272
5400.00000	115.57001	-446.03253	115.57001
5450.00000	115.31367	-446.95858	115.31367
5500.00000	115.12192	-448.16206	115.12192
5550.00000	114.97538	-449.16325	114.97538
5600.00000	114.89878	-450.25758	114.89878
5650.00000	114.90181	-451.30129	114.90181
5700.00000	114.95393	-452.80083	114.95393
5750.00000	115.09624	-454.62735	115.09624
5800.00000	115.21641	-457.20533	115.21641
5850.00000	115.30347	-460.33262	115.30347
5900.00000	115.34517	-463.59239	115.34517
5950.00000	115.33024	-466.85406	115.33024
6000.00000	115.27656	-470.00731	115.27656
6050.00000	115.20687	-473.04968	115.20687
6100.00000	115.13263	-475.99866	115.13263
6150.00000	115.04840	-478.94643	115.04840
6200.00000	114.95464	-481.77912	114.95464
6250.00000	114.88144	-484.58814	114.88144
6300.00000	114.81046	-487.34535	114.81046
6350.00000	114.71986	-490.24416	114.71986
6400.00000	114.64430	-492.90052	114.64430
6450.00000	114.59480	-495.79783	114.59480
6500.00000	114.50911	-498.63013	114.50911
6550.00000	114.43090	-501.45254	114.43090
6600.00000	114.37575	-504.20294	114.37575
6650.00000	114.32663	-506.94606	114.32663
6700.00000	114.29940	-510.00806	114.29940
6750.00000	114.27076	-512.98782	114.27076
6800.00000	114.23365	-515.89668	114.23365
6850.00000	114.20933	-518.97882	114.20933
6900.00000	114.19411	-522.12311	114.19411
6950.00000	114.16240	-525.20816	114.16240
7000.00000	114.14126	-528.59315	114.14126
7050.00000	114.10358	-532.10050	114.10358
7100.00000	114.07308	-535.73367	114.07308
7150.00000	114.03109	-539.31732	114.03109
7200.00000	113.96708	-543.10895	113.96708
7250.00000	113.85412	-547.07249	113.85412
7300.00000	113.77851	-551.01922	113.77851
7350.00000	113.64394	-555.02313	113.64394
7400.00000	113.49998	-559.23114	113.49998
7450.00000	113.31322	-563.53913	113.31322
7500.00000	113.11679	-567.75366	113.11679
7550.00000	112.87508	-571.87058	112.87508
7600.00000	112.57744	-575.98455	112.57744
7650.00000	112.27769	-579.97613	112.27769
7700.00000	111.97976	-583.94444	111.97976
7750.00000	111.57885	-587.85858	111.57885
7800.00000	111.19038	-591.60833	111.19038
7850.00000	110.78552	-595.00877	110.78552
7900.00000	110.39354	-598.20811	110.39354
7950.00000	109.99216	-601.47035	109.99216
8000.00000	109.58647	-604.44970	109.58647
8050.00000	109.20214	-607.44391	109.20214
8100.00000	108.83261	-609.38297	108.83261
8150.00000	108.40855	-611.46871	108.40855
8200.00000	108.02078	-613.12225	108.02078
8250.00000	107.59297	-614.91668	107.59297
8300.00000	107.21626	-616.31602	107.21626
8350.00000	106.77053	-617.47845	106.77053
8400.00000	106.32961	-619.29465	106.32961
8450.00000	105.80536	-620.84860	105.80536
8500.00000	105.34144	-622.59826	105.34144
8550.00000	104.96442	-624.28516	104.96442
8600.00000	104.56623	-626.46101	104.56623
8650.00000	104.20985	-628.48955	104.20985
8700.00000	103.96246	-630.92979	103.96246
8750.00000	103.70155	-631.52048	103.70155
8800.00000	103.54368	-633.15090	103.54368
8850.00000	103.34346	-634.09599	103.34346
8900.00000	103.18297	-634.34324	103.18297
8950.00000	102.98269	-634.75791	102.98269
9000.00000	102.67653	-635.06609	102.67653
9050.00000	102.40474	-635.75132	102.40474
9100.00000	102.03666	-636.20888	102.03666
9150.00000	101.67411	-637.10910	101.67411
9200.00000	101.36520	-638.50239	101.36520
9250.00000	101.03101	-640.10637	101.03101
9300.00000	100.83301	-641.95958	100.83301
9350.00000	100.73689	-643.78087	100.73689
9400.00000	100.59693	-644.89706	100.59693
9450.00000	100.62586	-645.50473	100.62586
9500.00000	100.74361	-644.93589	100.74361
9550.00000	100.89614	-644.72409	100.89614
9600.00000	100.98427	-645.28805	100.98427
9650.00000	100.88939	-645.62728	100.88939
9700.00000	100.73291	-645.36011	100.73291
9750.00000	100.60614	-646.71791	100.60614
9800.00000	100.37077	-647.33189	100.37077
9850.00000	100.19503	-648.61057	100.19503
9900.00000	99.96446	-650.57930	99.96446
9950.00000	99.93043	-652.13236	99.93043
10000.00000	99.97483	-654.37224	99.97483
10050.00000	100.00752	-655.84125	100.00752
10100.00000	100.06929	-656.78672	100.06929
10150.00000	100.01376	-658.21795	100.01376
10200.00000	100.03650	-659.10645	100.03650
10250.00000	99.93520	-660.39439	99.93520
10300.00000	99.91501	-661.78033	99.91501
10350.00000	99.77845	-663.42033	99.77845
10400.00000	99.60751	-665.87939	99.60751
10450.00000	99.62980	-668.61106	99.62980
10500.00000	99.66805	-671.18730	99.66805
10550.00000	99.71847	-673.90390	99.71847
10600.00000	99.76102	-676.13092	99.76102
10650.00000	99.76486	-677.84665	99.76486
10700.00000	99.76129	-680.51870	99.76129
10750.00000	99.74832	-682.64925	99.74832
10800.00000	99.58681	-684.46449	99.58681
10850.00000	99.42786	-687.68625	99.42786
10900.00000	99.26650	-690.05612	99.26650
10950.00000	99.10805	-692.61471	99.10805
11000.00000	98.94166	-695.38302	98.94166
11050.00000	98.64504	-697.94971	98.64504
11100.00000	98.44906	-700.79732	98.44906
11150.00000	98.16315	-702.91049	98.16315
11200.00000	97.97623	-704.90906	97.97623
11250.00000	97.61611	-707.21479	97.61611
11300.00000	97.22533	-709.42772	97.22533
11350.00000	96.87532	-711.03213	96.87532
11400.00000	96.43387	-712.91707	96.43387
11450.00000	96.10643	-715.17656	96.10643
11500.00000	95.89603	-716.00509	95.89603
11550.00000	95.49056	-716.94835	95.49056
11600.00000	95.28651	-718.59574	95.28651
11650.00000	94.96133	-718.35740	94.96133
11700.00000	94.71489	-719.00837	94.71489
11750.00000	94.48749	-719.70386	94.48749
11800.00000	94.23703	-720.82436	94.23703
11850.00000	94.08020	-720.73372	94.08020
11900.00000	93.73341	-721.67157	93.73341
11950.00000	93.59628	-721.70251	93.59628
12000.00000	93.35693	-721.51238	93.35693
12050.00000	93.05398	-721.60874	93.05398
12100.00000	92.85427	-722.88204	92.85427
12150.00000	92.60901	-723.67607	92.60901
12200.00000	92.51163	-724.66308	92.51163
12250.00000	92.38028	-725.00772	92.38028
12300.00000	93.38771	-725.91838	93.38771
12350.00000	92.17491	-726.01021	92.17491
12400.00000	92.05010	-725.24497	92.05010
12450.00000	91.88917	-724.69520	91.88917
12500.00000	91.63948	-725.38767	91.63948
12550.00000	91.42977	-726.13044	91.42977
12600.00000	91.14492	-727.36110	91.14492
12650.00000	91.17808	-727.59283	91.17808
12700.00000	90.96107	-728.50426	90.96107
12750.00000	90.90291	-728.78532	90.90291
12800.00000	90.73345	-728.36706	90.73345
12850.00000	90.31973	-727.60312	90.31973
12900.00000	90.12199	-728.12785	90.12199
12950.00000	89.97992	-728.15264	89.97992
13000.00000	89.77479	-728.84500	89.77479
13050.00000	89.70419	-728.03968	89.70419
13100.00000	89.52640	-727.70604	89.52640
13150.00000	89.62989	-727.62998	89.62989
13200.00000	89.42888	-725.19353	89.42888
13250.00000	89.36365	-724.49017	89.36365
13300.00000	89.24803	-721.59254	89.24803
13350.00000	89.17780	-721.08306	89.17780
13400.00000	89.23239	-721.15515	89.23239
13450.00000	89.06291	-719.02967	89.06291
13500.00000	89.26933	-717.53540	89.26933
13550.00000	89.15729	-717.94601	89.15729
13600.00000	89.44637	-715.91734	89.44637
13650.00000	89.50176	-714.23630	89.50176
13700.00000	89.50959	-712.84129	89.50959
13750.00000	89.53138	-712.18950	89.53138
13800.00000	89.43842	-712.70674	89.43842
13850.00000	89.54908	-713.58297	89.54908
13900.00000	89.68902	-713.21591	89.68902
13950.00000	90.13893	-712.21353	90.13893
14000.00000	90.69310	-709.08763	90.69310
14050.00000	90.96438	-707.63025	90.96438
14100.00000	90.96665	-706.19854	90.96665
14150.00000	91.19915	-705.40923	91.19915
14200.00000	91.52797	-705.59714	91.52797
14250.00000	92.21649	-704.04676	92.21649
14300.00000	92.55150	-704.89534	92.55150
14350.00000	92.97586	-702.60337	92.97586
14400.00000	93.01558	-702.34166	93.01558
14450.00000	93.41841	-700.82695	93.41841
14500.00000	93.68984	-701.50437	93.68984
14550.00000	94.19640	-701.67232	94.19640
14600.00000	94.47072	-703.18744	94.47072
14650.00000	95.22059	-702.12874	95.22059
14700.00000	95.65446	-706.51448	95.65446
14750.00000	96.19010	-706.42341	96.19010
14800.00000	96.56255	-706.04378	96.56255
14850.00000	97.13466	-706.72702	97.13466
14900.00000	97.63544	-708.13994	97.63544
14950.00000	98.13824	-709.81852	98.13824
15000.00000	98.67784	-711.81513	98.67784
15050.00000	99.07185	-712.22225	99.07185
15100.00000	99.60968	-713.38092	99.60968
15150.00000	100.29502	-715.53311	100.29502
15200.00000	100.62139	-716.33795	100.62139
15250.00000	100.89752	-719.64838	100.89752
15300.00000	101.54275	-722.67427	101.54275
15350.00000	101.93458	-726.35572	101.93458
15400.00000	102.34157	-728.25271	102.34157
15450.00000	102.77006	-731.28506	102.77006
15500.00000	103.26817	-734.19387	103.26817
15550.00000	103.65931	-737.46604	103.65931
15600.00000	103.97758	-740.98687	103.97758
15650.00000	104.44828	-742.79455	104.44828
15700.00000	104.59131	-747.63796	104.59131
15750.00000	105.04147	-750.58253	105.04147
15800.00000	105.36275	-753.33167	105.36275
15850.00000	105.59959	-756.61687	105.59959
15900.00000	105.76019	-760.55921	105.76019
15950.00000	106.04327	-764.01497	106.04327
16000.00000	106.23500	-767.35152	106.23500
16050.00000	106.52306	-770.66367	106.52306
16100.00000	106.58470	-774.42652	106.58470
16150.00000	106.71485	-777.74556	106.71485
16200.00000	106.86937	-781.51095	106.86937
16250.00000	107.03232	-784.62196	107.03232
16300.00000	107.33569	-787.93006	107.33569
16350.00000	107.42438	-791.09651	107.42438
16400.00000	107.55772	-793.99231	107.55772
16450.00000	107.67180	-797.00348	107.67180
16500.00000	107.77036	-800.20868	107.77036
16550.00000	107.94023	-804.02576	107.94023
16600.00000	108.05392	-806.77967	108.05392
16650.00000	108.12561	-809.80842	108.12561
16700.00000	108.25167	-812.46538	108.25167
16750.00000	108.26993	-815.87759	108.26993
16800.00000	108.40437	-819.22402	108.40437
16850.00000	108.58895	-822.19321	108.58895
16900.00000	108.69392	-825.27193	108.69392
16950.00000	108.78992	-828.36402	108.78992
17000.00000	108.77042	-831.53177	108.77042
17050.00000	108.92486	-833.87903	108.92486
17100.00000	108.92974	-835.97855	108.92974
17150.00000	109.13587	-839.62109	109.13587
17200.00000	109.23021	-842.37995	109.23021
17250.00000	109.27651	-846.02255	109.27651
17300.00000	109.45107	-848.95114	109.45107
17350.00000	109.40936	-851.71289	109.40936
17400.00000	109.58003	-854.81356	109.58003
17450.00000	109.59103	-858.39111	109.59103
17500.00000	109.71184	-861.40089	109.71184
17550.00000	109.78827	-864.56118	109.78827
17600.00000	109.94975	-867.27424	109.94975
17650.00000	109.98821	-871.28320	109.98821
17700.00000	110.02881	-874.65558	110.02881
17750.00000	110.20303	-877.32874	110.20303
17800.00000	110.15486	-881.25722	110.15486
17850.00000	110.21347	-884.16366	110.21347
17900.00000	110.22554	-887.77234	110.22554
17950.00000	110.32130	-891.40900	110.32130
18000.00000	110.32006	-895.32587	110.32006
18050.00000	110.45155	-898.22319	110.45155
18100.00000	110.38167	-902.30165	110.38167
18150.00000	110.35348	-905.19476	110.35348
18200.00000	110.26628	-909.22703	110.26628
18250.00000	110.29936	-911.96237	110.29936
18300.00000	110.30631	-915.49403	110.30631
18350.00000	110.24803	-918.74844	110.24803
18400.00000	110.14270	-922.41042	110.14270
18450.00000	110.03095	-926.93997	110.03095
18500.00000	109.96193	-930.12350	109.96193
18550.00000	109.84883	-932.78309	109.84883
18600.00000	109.84516	-936.53773	109.84516
18650.00000	109.61722	-939.43907	109.61722
18700.00000	109.49105	-943.06741	109.49105
18750.00000	109.41923	-946.01205	109.41923
18800.00000	109.41023	-948.45899	109.41023
18850.00000	109.16237	-951.71783	109.16237
18900.00000	109.01756	-954.38760	109.01756
18950.00000	108.91777	-957.71075	108.91777
19000.00000	108.64209	-960.11055	108.64209
19050.00000	108.65133	-962.87573	108.65133
19100.00000	108.47658	-965.48500	108.47658
19150.00000	108.48724	-967.89785	108.48724
19200.00000	108.33096	-970.10255	108.33096
19250.00000	108.19261	-973.75518	108.19261
19300.00000	108.00797	-975.60286	108.00797
19350.00000	107.92148	-978.19338	107.92148
19400.00000	107.77158	-980.50024	107.77158
19450.00000	107.76696	-982.45263	107.76696
19500.00000	107.58140	-985.74576	107.58140
19550.00000	107.51950	-988.00338	107.51950
19600.00000	107.47435	-990.99051	107.47435
19650.00000	107.32368	-992.92131	107.32368
19700.00000	107.13619	-995.59379	107.13619
19750.00000	107.02089	-997.39432	107.02089
19800.00000	107.00427	-1000.58271	107.00427
19850.00000	106.93060	-1002.77087	106.93060
19900.00000	106.76839	-1005.94422	106.76839
19950.00000	106.64603	-1008.18975	106.64603
20000.00000	106.54896	-1010.68313	106.54896
20050.00000	106.45066	-1013.09434	106.45066
20100.00000	106.24733	-1015.54034	106.24733
20150.00000	106.19073	-1017.16789	106.19073
20200.00000	106.02753	-1020.27413	106.02753
20250.00000	105.84726	-1022.45694	105.84726
20300.00000	105.62867	-1024.89603	105.62867
20350.00000	105.56263	-1027.21972	105.56263
20400.00000	105.33866	-1028.69967	105.33866
20450.00000	105.09481	-1030.96035	105.09481
20500.00000	105.00050	-1033.23181	105.00050
20550.00000	104.60038	-1034.34527	104.60038
20600.00000	104.52158	-1036.00224	104.52158
20650.00000	104.35294	-1037.64439	104.35294
20700.00000	104.11135	-1038.97506	104.11135
20750.00000	103.99213	-1040.17746	103.99213
20800.00000	103.80262	-1040.98405	103.80262
20850.00000	103.71410	-1042.12985	103.71410
20900.00000	103.53326	-1042.98392	103.53326
20950.00000	103.42559	-1043.24774	103.42559
21000.00000	103.35020	-1043.69748	103.35020
21050.00000	103.46008	-1043.99409	103.46008
21100.00000	103.41687	-1044.32586	103.41687
21150.00000	103.53030	-1045.28171	103.53030
21200.00000	103.64785	-1045.63789	103.64785
21250.00000	103.74194	-1047.71028	103.74194
21300.00000	103.90666	-1048.40850	103.90666
21350.00000	104.02277	-1049.49341	104.02277
21400.00000	104.12757	-1051.61640	104.12757
21450.00000	104.26419	-1053.36248	104.26419
21500.00000	104.39478	-1055.60169	104.39478
21550.00000	104.39362	-1057.32022	104.39362
21600.00000	104.54125	-1059.76466	104.54125
21650.00000	104.57168	-1062.13609	104.57168
21700.00000	104.60209	-1064.11127	104.60209
21750.00000	104.64431	-1066.41601	104.64431
21800.00000	104.65048	-1068.73417	104.65048
21850.00000	104.58124	-1070.79800	104.58124
21900.00000	104.60577	-1073.00804	104.60577
21950.00000	104.55511	-1074.76705	104.55511
22000.00000	104.59401	-1076.48960	104.59401
22050.00000	104.52817	-1078.35180	104.52817
22100.00000	104.49883	-1080.24445	104.49883
22150.00000	104.46019	-1082.24715	104.46019
22200.00000	104.53890	-1084.04483	104.53890
22250.00000	104.45024	-1085.25845	104.45024
22300.00000	104.34910	-1087.09329	104.34910
22350.00000	104.47598	-1089.06389	104.47598
22400.00000	104.51008	-1091.08204	104.51008
22450.00000	104.40451	-1092.54645	104.40451
22500.00000	104.37238	-1093.23108	104.37238
22550.00000	104.39548	-1095.25367	104.39548
22600.00000	104.41152	-1097.89610	104.41152
22650.00000	104.38020	-1099.35976	104.38020
22700.00000	104.40202	-1100.68824	104.40202
22750.00000	104.36066	-1100.96062	104.36066
22800.00000	104.42804	-1104.63609	104.42804
22850.00000	104.37902	-1107.04343	104.37902
22900.00000	104.47827	-1107.04695	104.47827
22950.00000	104.51112	-1109.04585	104.51112
23000.00000	104.42996	-1110.22208	104.42996
23050.00000	104.46953	-1112.58525	104.46953
23100.00000	104.55567	-1113.25781	104.55567
23150.00000	104.45897	-1114.18530	104.45897
23200.00000	104.59267	-1117.16987	104.59267
23250.00000	104.49139	-1119.62685	104.49139
23300.00000	104.73846	-1121.22086	104.73846
23350.00000	104.42296	-1122.83899	104.42296
23400.00000	104.54814	-1124.40692	104.54814
23450.00000	104.71327	-1126.27107	104.71327
23500.00000	104.55230	-1127.31838	104.55230
23550.00000	104.56772	-1127.40431	104.56772
23600.00000	104.53513	-1131.00701	104.53513
23650.00000	104.61146	-1132.05440	104.61146
23700.00000	104.78180	-1135.63764	104.78180
23750.00000	104.77306	-1136.37477	104.77306
23800.00000	104.58522	-1136.59171	104.58522
23850.00000	104.71772	-1137.96549	104.71772
23900.00000	105.14717	-1140.10417	105.14717
23950.00000	104.87466	-1142.63963	104.87466
24000.00000	104.81569	-1145.39835	104.81569
24050.00000	104.96002	-1144.46267	104.96002
24100.00000	105.34757	-1148.88121	105.34757
24150.00000	105.35785	-1150.47070	105.35785
24200.00000	105.42331	-1153.90697	105.42331
24250.00000	105.12071	-1153.97710	105.12071
24300.00000	105.58537	-1157.36235	105.58537
24350.00000	105.49552	-1159.16056	105.49552
24400.00000	105.55036	-1162.33176	105.55036
24450.00000	105.34141	-1163.77791	105.34141
24500.00000	105.93974	-1165.36385	105.93974
24550.00000	105.73188	-810.74928	105.73188
24600.00000	106.30084	-811.42439	106.30084
24650.00000	105.94469	-455.73543	105.94469
24700.00000	105.92867	-96.25309	105.92867
24750.00000	106.08800	258.99418	106.08800
24800.00000	106.12791	616.30403	106.12791
24850.00000	105.82129	974.60515	105.82129
24900.00000	105.90215	1332.90696	105.90215
24950.00000	106.07843	1687.50076	106.07843
25000.00000	106.16800	1679.96582	106.16800
25050.00000	106.34039	1680.60929	106.34039
25100.00000	105.63536	1676.81931	105.63536
25150.00000	105.96715	1675.16996	105.96715
25200.00000	105.72430	1671.54902	105.72430
25250.00000	105.89617	1670.01916	105.89617
25300.00000	105.72032	1667.73795	105.72032
25350.00000	105.61114	1660.61717	105.61114
25400.00000	105.55292	1657.31879	105.55292
25450.00000	105.50817	1655.52520	105.50817
25500.00000	105.36216	1653.46066	105.36216
25550.00000	105.17755	1649.88392	105.17755
25600.00000	105.19963	1647.02157	105.19963
25650.00000	104.96642	1645.18092	104.96642
25700.00000	104.89185	1642.02837	104.89185
25750.00000	104.67381	1638.65356	104.67381
25800.00000	104.49980	1635.16484	104.49980
25850.00000	104.32237	1633.00717	104.32237
25900.00000	104.27897	1629.10515	104.27897
25950.00000	104.02760	1630.69743	104.02760
26000.00000	103.97115	1625.24513	103.97115
26050.00000	103.86329	1622.68031	103.86329
26100.00000	103.68715	1620.50935	103.68715
26150.00000	103.71506	1618.01185	103.71506
26200.00000	103.68389	1615.59665	103.68389
26250.00000	103.40960	1612.41809	103.40960
26300.00000	103.43129	1609.35907	103.43129
26350.00000	102.98910	1608.33184	102.98910
26400.00000	102.82854	1605.43847	102.82854
26450.00000	103.12794	1602.59727	103.12794
26500.00000	102.68002	1599.66578	102.68002
26550.00000	102.57777	1594.31161	102.57777
26600.00000	102.26250	1591.95167	102.26250
26650.00000	102.23739	1591.52952	102.23739
26700.00000	102.12906	1588.51552	102.12906
26750.00000	101.89921	1585.06130	101.89921
26800.00000	101.60401	1580.00019	101.60401
26850.00000	101.73580	1579.41928	101.73580
26900.00000	101.53038	1577.88083	101.53038
26950.00000	101.48157	1573.35503	101.48157
27000.00000	100.74640	1572.14895	100.74640
27050.00000	100.79261	1570.09430	100.79261
27100.00000	100.31424	1568.90577	100.31424
27150.00000	100.25967	1565.00132	100.25967
27200.00000	100.14441	1564.27435	100.14441
27250.00000	99.60276	1563.58306	99.60276
27300.00000	99.03528	1559.53099	99.03528
27350.00000	99.16983	1559.96633	99.16983
27400.00000	98.65948	1558.58747	98.65948
27450.00000	98.36832	1557.62504	98.36832
27500.00000	98.19603	1555.95669	98.19603
27550.00000	98.11217	1554.99873	98.11217
27600.00000	97.99878	1552.78062	97.99878
27650.00000	97.46671	1553.84257	97.46671
27700.00000	97.42689	1549.92520	97.42689
27750.00000	97.33052	1548.97799	97.33052
27800.00000	97.06787	1547.75956	97.06787
27850.00000	97.27973	1550.42060	97.27973
27900.00000	97.05302	1549.42284	97.05302
27950.00000	96.25688	1549.18568	96.25688
28000.00000	96.44067	1548.33005	96.44067
28050.00000	96.85140	1547.11669	96.85140
28100.00000	96.22099	1547.81689	96.22099
28150.00000	96.34185	1547.37686	96.34185
28200.00000	96.63078	1543.61700	96.63078
28250.00000	96.19749	1543.30898	96.19749
28300.00000	96.02198	1543.91572	96.02198
28350.00000	96.23161	1545.55075	96.23161
28400.00000	95.98179	1544.10896	95.98179
28450.00000	96.71293	1542.21447	96.71293
28500.00000	96.27884	1542.57153	96.27884
28550.00000	96.09144	1543.65677	96.09144
28600.00000	96.60971	1543.90069	96.60971
28650.00000	96.75012	1540.22235	96.75012
28700.00000	96.48595	1541.71782	96.48595
28750.00000	97.17078	1542.10119	97.17078
28800.00000	97.14322	1540.04314	97.14322
28850.00000	96.72084	1536.71766	96.72084
28900.00000	96.90699	1536.68461	96.90699
28950.00000	96.86668	1538.14371	96.86668
29000.00000	96.96419	1536.07440	96.96419
29050.00000	96.81054	1537.57845	96.81054
29100.00000	96.93576	1537.96175	96.93576
29150.00000	97.00223	1538.02585	97.00223
29200.00000	96.79677	1533.76564	96.79677
29250.00000	97.34787	1535.32631	97.34787
29300.00000	96.96765	1533.67494	96.96765
29350.00000	97.77802	1532.12403	97.77802
29400.00000	97.64346	1532.75985	97.64346
29450.00000	97.52889	1532.93769	97.52889
29500.00000	98.19973	1531.90946	98.19973
29550.00000	97.90705	1529.91049	97.90705
29600.00000	98.00891	1530.52267	98.00891
29650.00000	98.22275	1528.77652	98.22275
29700.00000	98.37541	1530.42137	98.37541
29750.00000	98.57267	1530.96543	98.57267
29800.00000	98.53693	1528.32681	98.53693
29850.00000	98.86969	1527.18858	98.86969
29900.00000	99.26161	1528.39543	99.26161
29950.00000	98.70675	1528.12510	98.70675
30000.00000	99.29116	1528.24921	99.29116
30050.00000	99.55613	1526.20044	99.55613
30100.00000	99.54906	1527.66550	99.54906
30150.00000	99.87836	1523.92776	99.87836
30200.00000	100.11587	1522.62547	100.11587
30250.00000	100.09957	1522.77348	100.09957
30300.00000	100.05064	1522.60296	100.05064
30350.00000	100.35427	1524.10676	100.35427
30400.00000	100.50851	1521.52033	100.50851
30450.00000	100.35315	1521.03629	100.35315
30500.00000	100.51401	1519.85818	100.51401
30550.00000	100.62975	1521.08089	100.62975
30600.00000	100.83649	1521.03479	100.83649
30650.00000	100.94276	1521.01997	100.94276
30700.00000	101.18560	1520.43629	101.18560
30750.00000	101.08668	1521.40234	101.08668
30800.00000	101.33258	1521.82228	101.33258
30850.00000	101.66475	1522.93350	101.66475
30900.00000	101.68437	1524.62878	101.68437
30950.00000	102.19431	1523.96072	102.19431
31000.00000	102.49293	1523.20604	102.49293
31050.00000	102.88552	1524.21004	102.88552
31100.00000	103.45018	1524.63334	103.45018
31150.00000	103.53278	1524.39551	103.53278
31200.00000	104.38062	1523.97142	104.38062
31250.00000	104.77058	1523.63680	104.77058
31300.00000	105.19805	1522.04421	105.19805
31350.00000	105.82587	1521.44094	105.82587
31400.00000	106.13987	1518.86064	106.13987
31450.00000	106.72374	1516.87915	106.72374
31500.00000	107.12693	1513.93651	107.12693
31550.00000	107.64764	1512.35172	107.64764
31600.00000	108.20730	1508.42766	108.20730
31650.00000	108.55410	1505.71160	108.55410
31700.00000	108.99045	1503.04050	108.99045
31750.00000	109.40542	1501.02502	109.40542
31800.00000	109.69811	1496.47040	109.69811
31850.00000	110.08870	1492.65012	110.08870
31900.00000	110.18537	1489.46956	110.18537
31950.00000	110.56259	1485.92495	110.56259
32000.00000	110.80855	1481.85646	110.80855
32050.00000	111.06781	1478.46451	111.06781
32100.00000	111.24375	1474.32987	111.24375
32150.00000	111.45021	1471.55181	111.45021
32200.00000	111.66274	1467.19124	111.66274
32250.00000	111.80384	1462.83189	111.80384
32300.00000	111.92936	1459.59209	111.92936
32350.00000	111.98674	1456.65183	111.98674
32400.00000	112.27806	1452.88567	112.27806
32450.00000	112.31030	1448.97943	112.31030
32500.00000	112.46907	1446.18052	112.46907
32550.00000	112.67873	1441.45504	112.67873
32600.00000	112.70520	1438.51946	112.70520
32650.00000	112.93043	1434.80060	112.93043
32700.00000	112.86483	1430.75093	112.86483
32750.00000	113.00563	1426.98605	113.00563
32800.00000	113.24598	1424.11681	113.24598
32850.00000	113.37107	1420.19358	113.37107
32900.00000	113.36541	1415.57223	113.36541
32950.00000	113.36733	1411.72587	113.36733
33000.00000	113.38353	1409.78692	113.38353
33050.00000	113.45432	1404.79721	113.45432
33100.00000	113.60526	1401.46381	113.60526
33150.00000	113.67600	1398.04082	113.67600
33200.00000	113.83760	1395.53813	113.83760
33250.00000	113.80559	1391.58782	113.80559
33300.00000	113.86127	1386.98187	113.86127
33350.00000	113.87206	1383.23429	113.87206
33400.00000	113.94494	1380.41402	113.94494
33450.00000	114.03824	1375.75392	114.03824
33500.00000	114.23683	1373.80698	114.23683
33550.00000	113.94411	1368.27504	113.94411
33600.00000	114.21290	1364.93490	114.21290
33650.00000	114.20727	1361.13152	114.20727
33700.00000	114.19282	1358.03760	114.19282
33750.00000	114.07894	1354.16812	114.07894
33800.00000	114.22036	1350.01591	114.22036
33850.00000	113.96076	1346.68386	113.96076
33900.00000	114.10771	1342.16341	114.10771
33950.00000	114.13318	1339.56705	114.13318
34000.00000	114.13095	1335.40214	114.13095
34050.00000	113.98853	1331.62594	113.98853
34100.00000	113.80821	1329.06260	113.80821
34150.00000	113.88139	1324.58513	113.88139
34200.00000	113.80705	1323.76338	113.80705
34250.00000	113.73680	1318.83870	113.73680
34300.00000	113.61863	1315.61372	113.61863
34350.00000	113.66712	1312.31571	113.66712
34400.00000	113.28129	1311.00939	113.28129
34450.00000	113.50697	1305.51042	113.50697
34500.00000	113.28585	1303.01947	113.28585
34550.00000	113.25258	1299.94839	113.25258
34600.00000	112.84359	1296.06304	112.84359
34650.00000	113.00943	1296.32147	113.00943
34700.00000	112.48588	1294.58999	112.48588
34750.00000	112.65004	1288.58631	112.65004
34800.00000	112.70150	1289.66345	112.70150
34850.00000	112.66065	1289.10042	112.66065
34900.00000	112.85006	1284.14524	112.85006
34950.00000	112.61505	1284.33042	112.61505
35000.00000	112.57545	1281.22059	112.57545
35050.00000	112.65921	1279.85481	112.65921
35100.00000	112.82503	1276.96746	112.82503
35150.00000	112.53053	1276.59340	112.53053
35200.00000	112.52078	1272.78471	112.52078
35250.00000	112.64296	1270.78145	112.64296
35300.00000	112.77526	1268.86078	112.77526
35350.00000	112.91048	1266.58447	112.91048
35400.00000	112.81491	1264.42551	112.81491
35450.00000	112.88514	1263.41675	112.88514
35500.00000	112.71306	1261.04413	112.71306
35550.00000	113.10131	1260.44812	113.10131
35600.00000	113.03999	1257.32770	113.03999
35650.00000	113.16228	1255.98899	113.16228
35700.00000	113.28991	1253.61120	113.28991
35750.00000	113.28110	1252.65488	113.28110
35800.00000	113.48485	1251.64561	113.48485
35850.00000	113.72056	1247.86823	113.72056
35900.00000	113.72862	1246.07718	113.72862
35950.00000	114.10645	1243.88235	114.10645
36000.00000	114.10370	1241.65762	114.10370
36050.00000	114.23723	1238.91612	114.23723
36100.00000	114.44970	1237.00253	114.44970
36150.00000	114.43987	1234.37805	114.43987
36200.00000	114.57286	1232.46842	114.57286
36250.00000	114.61854	1229.78298	114.61854
36300.00000	114.55454	1227.77194	114.55454
36350.00000	114.91839	1225.11735	114.91839
36400.00000	115.00816	1222.95041	115.00816
36450.00000	114.83863	1220.86709	114.83863
36500.00000	115.17723	1219.60479	115.17723
36550.00000	115.08752	1215.67789	115.08752
36600.00000	115.11911	1213.90079	115.11911
36650.00000	115.30740	1211.81178	115.30740
36700.00000	115.47645	1208.81618	115.47645
36750.00000	115.49662	1206.69931	115.49662
36800.00000	115.48419	1204.54431	115.48419
36850.00000	115.36366	1202.48947	115.36366
36900.00000	115.58225	1200.24898	115.58225
36950.00000	115.46254	1197.82629	115.46254
37000.00000	115.21812	1196.48937	115.21812
37050.00000	115.24363	1194.79820	115.24363
37100.00000	115.37794	1192.11056	115.37794
37150.00000	115.45536	1190.43322	115.45536
37200.00000	115.80439	1189.94019	115.80439
37250.00000	115.47138	1187.97083	115.47138
37300.00000	115.57351	1185.78561	115.57351
37350.00000	116.01764	1184.62931	116.01764
37400.00000	115.81184	1183.73957	115.81184
37450.00000	115.86645	1182.02203	115.86645
37500.00000	116.26884	1179.48717	116.26884
37550.00000	116.12964	1178.50110	116.12964
37600.00000	116.24623	1176.69055	116.24623
37650.00000	116.43258	1175.72342	116.43258
37700.00000	116.58479	1173.00022	116.58479
37750.00000	116.81923	1172.58267	116.81923
37800.00000	116.89715	1169.80826	116.89715
37850.00000	117.24321	1166.26989	117.24321
37900.00000	117.31566	1164.71605	117.31566
37950.00000	117.61482	1163.21213	117.61482
38000.00000	117.66482	1160.73226	117.66482
38050.00000	117.95274	1157.75590	117.95274
38100.00000	118.19914	1155.09881	118.19914
38150.00000	118.35864	1151.54049	118.35864
38200.00000	118.61733	1147.74216	118.61733
38250.00000	118.73430	1145.05788	118.73430
38300.00000	119.02608	1140.91016	119.02608
38350.00000	119.08810	1138.36978	119.08810
38400.00000	119.26996	1134.59201	119.26996
38450.00000	119.47047	1130.11566	119.47047
38500.00000	119.57897	1126.15538	119.57897
38550.00000	119.79264	1122.52390	119.79264
38600.00000	119.89540	1118.46085	119.89540
38650.00000	119.99538	1113.97457	119.99538
38700.00000	120.08040	1109.64351	120.08040
38750.00000	120.16768	1105.74482	120.16768
38800.00000	120.25440	1101.27075	120.25440
38850.00000	120.31177	1096.80368	120.31177
38900.00000	120.40526	1092.42104	120.40526
38950.00000	120.41392	1087.61164	120.41392
39000.00000	120.40958	1083.15888	120.40958
39050.00000	120.53066	1078.60217	120.53066
39100.00000	120.42807	1073.99052	120.42807
39150.00000	120.38928	1069.33071	120.38928
39200.00000	120.37046	1064.98218	120.37046
39250.00000	120.32022	1060.00680	120.32022
39300.00000	120.31186	1055.21392	120.31186
39350.00000	120.21734	1051.34126	120.21734
39400.00000	120.11694	1046.07060	120.11694
39450.00000	119.95794	1041.67234	119.95794
39500.00000	119.86794	1036.95481	119.86794
39550.00000	119.67876	1031.96613	119.67876
39600.00000	119.43869	1027.70782	119.43869
39650.00000	119.30131	1023.53548	119.30131
39700.00000	119.01246	1019.25889	119.01246
39750.00000	118.87555	1014.69460	118.87555
39800.00000	118.65728	1010.78752	118.65728
39850.00000	118.36166	1006.61193	118.36166
39900.00000	118.11219	1003.01679	118.11219
39950.00000	117.86244	999.38937	117.86244
40000.00000	117.43019	997.07730	117.43019
40050.00000	117.27650	992.22601	117.27650
40100.00000	116.99957	988.76536	116.99957
40150.00000	116.74018	985.71100	116.74018
40200.00000	116.39543	982.22204	116.39543
40250.00000	116.16996	979.79848	116.16996
40300.00000	115.94393	977.23930	115.94393
40350.00000	115.50104	974.71177	115.50104
40400.00000	115.16001	972.27131	115.16001
40450.00000	114.95775	970.58106	114.95775
40500.00000	114.85573	968.64533	114.85573
40550.00000	114.50694	966.15755	114.50694
40600.00000	114.26407	964.30294	114.26407
40650.00000	114.00446	962.69490	114.00446
40700.00000	113.62196	962.04957	113.62196
40750.00000	113.59179	960.31980	113.59179
40800.00000	113.32902	958.73620	113.32902
40850.00000	113.12667	958.20258	113.12667
40900.00000	112.91695	956.83696	112.91695
40950.00000	112.71581	956.60048	112.71581
41000.00000	112.41387	956.12542	112.41387
41050.00000	112.45927	955.28945	112.45927
41100.00000	112.34043	954.11096	112.34043
41150.00000	112.29472	955.78475	112.29472
41200.00000	112.40669	954.49546	112.40669
41250.00000	112.22143	952.47060	112.22143
41300.00000	112.04017	953.24865	112.04017
41350.00000	112.13318	954.09918	112.13318
41400.00000	112.15256	948.90749	112.15256
41450.00000	112.27976	952.40120	112.27976
41500.00000	112.16580	951.46672	112.16580
41550.00000	112.12413	955.00534	112.12413
41600.00000	111.76666	952.73806	111.76666
41650.00000	112.45675	951.27312	112.45675
41700.00000	112.60401	951.66974	112.60401
41750.00000	112.36670	956.72325	112.36670
41800.00000	111.83597	950.04168	111.83597
41850.00000	111.89659	952.26916	111.89659
41900.00000	111.90997	951.93766	111.90997
41950.00000	113.21821	956.78967	113.21821
42000.00000	112.28256	950.35809	112.28256
42050.00000	111.58532	949.68723	111.58532
42100.00000	112.19612	951.04772	112.19612
42150.00000	111.80692	945.84478	111.80692
42200.00000	111.88658	951.89133	111.88658
42250.00000	112.02295	951.47460	112.02295
42300.00000	111.22475	948.67866	111.22475
42350.00000	111.84927	948.73865	111.84927
42400.00000	111.74200	950.22887	111.74200
42450.00000	112.41697	944.84147	112.41697
42500.00000	111.98221	945.05880	111.98221
42550.00000	112.15496	954.68047	112.15496
42600.00000	111.84676	946.14041	111.84676
42650.00000	111.61037	947.65210	111.61037
42700.00000	111.33931	944.08399	111.33931
42750.00000	112.30270	941.86567	112.30270
42800.00000	111.82398	934.75289	111.82398
42850.00000	111.43542	932.80943	111.43542
42900.00000	112.65237	938.63059	112.65237
42950.00000	111.72341	932.55889	111.72341
43000.00000	112.24184	922.71165	112.24184
43050.00000	111.66637	921.26660	111.66637
43100.00000	112.08257	923.67616	112.08257
43150.00000	111.06080	919.35756	111.06080
43200.00000	111.32688	915.15010	111.32688
43250.00000	111.62010	912.23510	111.62010
43300.00000	111.71315	909.85397	111.71315
43350.00000	112.32585	904.65302	112.32585
43400.00000	111.71570	900.32430	111.71570
43450.00000	112.38974	900.37375	112.38974
43500.00000	110.84424	890.70065	110.84424
43550.00000	111.68080	888.88485	111.68080
43600.00000	111.18340	883.38654	111.18340
43650.00000	111.64466	874.39442	111.64466
43700.00000	111.24423	874.29134	111.24423
43750.00000	110.58946	874.16882	110.58946
43800.00000	110.89376	864.80214	110.89376
43850.00000	111.40800	860.60636	111.40800
43900.00000	111.65962	857.40292	111.65962
43950.00000	111.50190	850.60297	111.50190
44000.00000	110.80047	848.39033	110.80047
44050.00000	111.40924	841.96524	111.40924
44100.00000	111.29315	829.21315	111.29315
44150.00000	110.90414	831.53526	110.90414
44200.00000	110.52795	829.42696	110.52795
44250.00000	111.05619	822.40380	111.05619
44300.00000	111.05086	814.47907	111.05086
44350.00000	110.53729	811.24057	110.53729
44400.00000	110.69399	808.05016	110.69399
44450.00000	110.93420	803.79673	110.93420
44500.00000	110.16470	799.32862	110.16470
44550.00000	111.53506	789.29063	111.53506
44600.00000	110.55567	790.26985	110.55567
44650.00000	109.82517	781.12828	109.82517
44700.00000	109.89375	777.27759	109.89375
44750.00000	109.76204	775.32495	109.76204
44800.00000	110.14536	767.04032	110.14536
44850.00000	109.72692	762.48388	109.72692
44900.00000	109.21602	759.73501	109.21602
44950.00000	109.43103	754.45480	109.43103
45000.00000	109.30076	744.63071	109.30076
45050.00000	108.10792	749.82686	108.10792
45100.00000	108.18348	740.44046	108.18348
45150.00000	108.30414	728.97050	108.30414
45200.00000	107.65613	731.31048	107.65613
45250.00000	107.46438	725.68634	107.46438
45300.00000	107.24450	719.67246	107.24450
45350.00000	106.68192	712.57905	106.68192
45400.00000	106.09560	712.28121	106.09560
45450.00000	106.76669	706.43622	106.76669
45500.00000	104.77549	700.80097	104.77549
45550.00000	104.56349	702.72884	104.56349
45600.00000	105.67417	693.95530	105.67417
45650.00000	104.04776	687.02450	104.04776
45700.00000	103.24992	685.88361	103.24992
45750.00000	104.52256	688.71100	104.52256
45800.00000	102.73023	680.37434	102.73023
45850.00000	102.58776	675.04747	102.58776
45900.00000	102.47465	672.73119	102.47465
45950.00000	101.36679	675.04653	101.36679
46000.00000	99.91370	658.02488	99.91370
46050.00000	100.36790	660.37428	100.36790
46100.00000	98.65797	661.54211	98.65797
46150.00000	98.75633	663.98440	98.75633
46200.00000	96.59055	647.35547	96.59055
46250.00000	97.56634	651.21742	97.56634
46300.00000	96.68695	652.44147	96.68695
46350.00000	97.56307	644.80244	97.56307
46400.00000	96.02517	645.13421	96.02517
46450.00000	93.63410	649.13904	93.63410
46500.00000	94.46952	647.20500	94.46952
46550.00000	94.14706	660.51386	94.14706
46600.00000	95.02261	656.10926	95.02261
46650.00000	91.37710	654.72115	91.37710
46700.00000	91.72715	660.43112	91.72715
46750.00000	92.83647	670.99967	92.83647
46800.00000	90.44122	657.74905	90.44122
46850.00000	92.39249	315.94520	92.39249
46900.00000	92.13085	306.86830	92.13085
46950.00000	92.63478	310.02265	92.63478
47000.00000	91.85135	316.75378	91.85135
47050.00000	93.27733	309.79865	93.27733
47100.00000	92.39003	303.14615	92.39003
47150.00000	93.99847	308.08737	93.99847
47200.00000	92.77838	303.51905	92.77838
47250.00000	94.75019	301.47108	94.75019
47300.00000	93.47210	300.49526	93.47210
47350.00000	93.26244	-57.09725	93.26244
47400.00000	93.03835	-56.31559	93.03835
47450.00000	93.58499	-60.17822	93.58499
47500.00000	92.25671	-75.23898	92.25671
47550.00000	92.52138	-419.82099	92.52138
47600.00000	92.18365	-420.40424	92.18365
47650.00000	95.01987	-427.48781	95.01987
47700.00000	93.26382	-430.48089	93.26382
47750.00000	91.42153	-431.22517	91.42153
47800.00000	91.86723	-450.39415	91.86723
47850.00000	92.32553	-797.29026	92.32553
47900.00000	93.06679	-1145.40953	93.06679
47950.00000	90.71979	-1150.46350	90.71979
48000.00000	91.13104	-1143.46430	91.13104
48050.00000	92.89556	-1156.20086	92.89556
48100.00000	91.22816	-1159.04135	91.22816
48150.00000	91.83348	-1515.12269	91.83348
48200.00000	92.52730	-1509.91644	92.52730
48250.00000	91.60344	-1522.25823	91.60344
48300.00000	92.00248	-1516.77196	92.00248
48350.00000	92.12387	-1527.89658	92.12387
48400.00000	92.68197	-1873.76405	92.68197
48450.00000	94.05697	-1872.63781	94.05697
48500.00000	92.36025	-1887.29942	92.36025
48550.00000	91.18276	-1891.36049	91.18276
48600.00000	94.01535	-2238.44871	94.01535
48650.00000	93.12985	-2243.06210	93.12985
48700.00000	93.51224	-2254.51167	93.51224
48750.00000	91.00892	-2603.21752	91.00892
48800.00000	93.28252	-2615.86678	93.28252
48850.00000	92.92058	-2619.32996	92.92058
48900.00000	92.24039	-2971.11030	92.24039
48950.00000	92.01511	-2985.73300	92.01511
49000.00000	94.49924	-2988.77071	94.49924
49050.00000	92.86389	-2993.70310	92.86389
49100.00000	92.56583	-3363.08840	92.56583
49150.00000	94.17460	-3715.24605	94.17460
49200.00000	91.68468	-3726.53828	91.68468
49250.00000	92.78770	-4073.21541	92.78770
49300.00000	91.98301	-3735.24212	91.98301
49350.00000	89.00027	-3687.50542	89.00027
49400.00000	91.81132	-3371.28422	91.81132
49450.00000	89.82552	-3013.89641	89.82552
49500.00000	89.05768	-2664.05222	89.05768
49550.00000	88.91760	-2317.32253	88.91760
49600.00000	91.02136	-2304.52556	91.02136
49650.00000	89.69134	-2295.42117	89.69134
49700.00000	88.98098	-1992.55607	88.98098
49750.00000	88.70706	-1954.83656	88.70706
49800.00000	86.34020	-1987.90918	86.34020
49850.00000	84.49409	-1973.89866	84.49409
49900.00000	81.42073	-1592.28336	81.42073
49950.00000	77.37049	-1396.14677	77.37049
