---ACOUSTIC CALIBRATION---
Filename: C:\Data\AZH DATA\AZH51\RightPrimary.calib
Date: 8/27/2019 11:14:12 AM
Format: 4
Probe Tube Correction File: C:\Data\Probe Tube Calibrations\50_ProbeTube.calib
Experiment VIs: 850
EPL_CFTS.exe V12.0.1 (2012)
DAQmx V9.6

Attenuation (dB): 40.000000
Min Freq (Hz): 50.000000
Max Freq (Hz): 49950.000000
Freq Step (Hz): 50.000000
Sample Rate (Hz): 100000.000000
[Smoothing]
Method=None
MA.Iterations=0
MA.Length=0
Loess.Length=0
Loess.Type=Linear
Loess.Robust=FALSE


Freq(Hz)	Mag(dB)	Phase(deg)	Unsmoothed(dB)

50.00000	103.29266	347.94549	103.29266
100.00000	83.66668	262.10371	83.66668
150.00000	80.72426	148.05486	80.72426
200.00000	78.80127	101.03889	78.80127
250.00000	90.99536	90.04045	90.99536
300.00000	89.62025	11.64550	89.62025
350.00000	87.51242	20.02550	87.51242
400.00000	89.19998	 4.15516	89.19998
450.00000	90.10433	-7.79932	90.10433
500.00000	90.07918	 2.23610	90.07918
550.00000	95.31282	-3.89033	95.31282
600.00000	97.68617	-12.32648	97.68617
650.00000	99.75115	-20.27572	99.75115
700.00000	101.81722	-38.66147	101.81722
750.00000	103.87496	-54.47273	103.87496
800.00000	104.37793	-78.21196	104.37793
850.00000	103.71322	-93.48366	103.71322
900.00000	101.91002	-109.55682	101.91002
950.00000	100.00797	-108.55280	100.00797
1000.00000	98.59972	-104.71170	98.59972
1050.00000	97.10474	-86.53848	97.10474
1100.00000	99.35816	-67.99233	99.35816
1150.00000	102.14959	-64.60114	102.14959
1200.00000	104.93313	-66.77081	104.93313
1250.00000	106.43817	-74.00914	106.43817
1300.00000	108.14943	-80.04254	108.14943
1350.00000	109.43486	-89.08782	109.43486
1400.00000	110.42584	-96.12161	110.42584
1450.00000	111.42661	-102.94327	111.42661
1500.00000	112.52474	-109.78105	112.52474
1550.00000	113.24168	-119.11129	113.24168
1600.00000	114.65083	-128.50875	114.65083
1650.00000	115.61714	-145.52083	115.61714
1700.00000	114.36655	-155.51416	114.36655
1750.00000	114.09054	-160.80295	114.09054
1800.00000	113.82746	-164.64727	113.82746
1850.00000	114.16013	-165.12680	114.16013
1900.00000	115.44596	-170.94214	115.44596
1950.00000	115.92259	-185.32448	115.92259
2000.00000	114.73733	-196.75001	114.73733
2050.00000	113.56912	-190.52826	113.56912
2100.00000	115.46849	-192.32200	115.46849
2150.00000	115.98171	-203.92103	115.98171
2200.00000	115.80103	-213.87437	115.80103
2250.00000	115.15871	-220.74996	115.15871
2300.00000	115.18323	-226.30577	115.18323
2350.00000	114.84553	-232.57162	114.84553
2400.00000	114.53792	-237.88829	114.53792
2450.00000	114.15033	-244.26052	114.15033
2500.00000	113.67806	-248.90948	113.67806
2550.00000	113.14318	-254.11688	113.14318
2600.00000	112.50085	-257.97309	112.50085
2650.00000	111.88891	-261.59283	111.88891
2700.00000	111.20535	-264.71116	111.20535
2750.00000	110.40652	-267.63847	110.40652
2800.00000	109.51242	-269.39349	109.51242
2850.00000	108.53879	-269.43542	108.53879
2900.00000	107.51541	-268.44765	107.51541
2950.00000	106.40697	-264.98286	106.40697
3000.00000	105.29837	-258.52668	105.29837
3050.00000	104.40956	-247.18801	104.40956
3100.00000	104.65904	-231.58206	104.65904
3150.00000	106.01629	-219.68533	106.01629
3200.00000	107.82449	-212.22023	107.82449
3250.00000	109.64508	-209.31247	109.64508
3300.00000	111.35273	-208.53400	111.35273
3350.00000	113.00992	-209.06496	113.00992
3400.00000	114.74906	-210.08973	114.74906
3450.00000	116.53396	-214.17524	116.53396
3500.00000	118.27002	-220.94416	118.27002
3550.00000	119.55831	-229.74304	119.55831
3600.00000	120.67937	-238.04455	120.67937
3650.00000	121.51935	-247.49311	121.51935
3700.00000	122.17462	-256.67969	122.17462
3750.00000	122.64195	-265.73408	122.64195
3800.00000	122.91652	-274.37540	122.91652
3850.00000	123.05157	-281.67732	123.05157
3900.00000	123.26729	-287.62716	123.26729
3950.00000	123.62997	-293.69201	123.62997
4000.00000	124.02036	-300.22152	124.02036
4050.00000	124.41997	-306.99079	124.41997
4100.00000	124.81541	-314.23368	124.81541
4150.00000	125.33546	-322.25101	125.33546
4200.00000	125.50987	-331.30589	125.50987
4250.00000	125.64461	-340.40971	125.64461
4300.00000	125.63243	-349.62118	125.63243
4350.00000	125.46650	-358.63220	125.46650
4400.00000	125.19434	-366.95283	125.19434
4450.00000	124.87716	-374.80503	124.87716
4500.00000	124.54061	-382.12372	124.54061
4550.00000	124.20034	-389.50745	124.20034
4600.00000	123.79887	-396.67658	123.79887
4650.00000	123.40757	-403.76529	123.40757
4700.00000	122.91100	-411.37022	122.91100
4750.00000	122.25324	-418.96205	122.25324
4800.00000	121.39627	-426.11702	121.39627
4850.00000	120.34350	-431.82846	120.34350
4900.00000	119.19356	-435.61534	119.19356
4950.00000	118.13762	-437.35856	118.13762
5000.00000	117.20974	-437.71156	117.20974
5050.00000	116.45194	-437.58816	116.45194
5100.00000	115.71665	-434.16987	115.71665
5150.00000	116.05427	-431.57135	116.05427
5200.00000	116.33572	-430.78900	116.33572
5250.00000	116.91417	-436.55674	116.91417
5300.00000	116.45536	-442.56758	116.45536
5350.00000	115.87114	-444.95125	115.87114
5400.00000	115.47215	-446.13066	115.47215
5450.00000	115.21790	-446.97356	115.21790
5500.00000	115.02867	-448.06863	115.02867
5550.00000	114.90895	-449.13597	114.90895
5600.00000	114.83693	-450.13043	114.83693
5650.00000	114.84803	-451.09520	114.84803
5700.00000	114.93596	-452.63623	114.93596
5750.00000	115.07981	-454.52101	115.07981
5800.00000	115.18599	-457.29872	115.18599
5850.00000	115.27636	-460.55185	115.27636
5900.00000	115.30628	-463.74572	115.30628
5950.00000	115.28343	-467.04749	115.28343
6000.00000	115.21847	-470.07799	115.21847
6050.00000	115.15591	-473.20834	115.15591
6100.00000	115.07238	-476.15321	115.07238
6150.00000	114.99796	-479.08789	114.99796
6200.00000	114.89784	-481.89225	114.89784
6250.00000	114.81995	-484.65842	114.81995
6300.00000	114.75206	-487.48214	114.75206
6350.00000	114.66159	-490.29756	114.66159
6400.00000	114.58448	-493.03705	114.58448
6450.00000	114.53985	-495.79465	114.53985
6500.00000	114.44612	-498.73597	114.44612
6550.00000	114.37536	-501.51583	114.37536
6600.00000	114.31111	-504.35720	114.31111
6650.00000	114.26399	-507.07617	114.26399
6700.00000	114.23076	-510.05464	114.23076
6750.00000	114.21439	-512.99611	114.21439
6800.00000	114.16825	-516.03390	114.16825
6850.00000	114.14957	-519.19948	114.14957
6900.00000	114.12341	-522.22672	114.12341
6950.00000	114.09157	-525.36471	114.09157
7000.00000	114.08165	-528.66777	114.08165
7050.00000	114.03781	-532.20555	114.03781
7100.00000	114.00176	-535.73156	114.00176
7150.00000	113.94876	-539.35419	113.94876
7200.00000	113.89227	-543.20930	113.89227
7250.00000	113.78209	-547.12660	113.78209
7300.00000	113.70683	-551.14769	113.70683
7350.00000	113.56663	-555.07038	113.56663
7400.00000	113.42412	-559.28132	113.42412
7450.00000	113.24105	-563.53618	113.24105
7500.00000	113.03067	-567.74871	113.03067
7550.00000	112.77587	-571.88164	112.77587
7600.00000	112.48679	-575.93243	112.48679
7650.00000	112.18067	-579.97272	112.18067
7700.00000	111.88332	-583.87585	111.88332
7750.00000	111.48544	-587.74092	111.48544
7800.00000	111.07160	-591.36189	111.07160
7850.00000	110.67534	-594.93926	110.67534
7900.00000	110.28211	-598.10147	110.28211
7950.00000	109.88818	-601.20678	109.88818
8000.00000	109.48883	-604.22808	109.48883
8050.00000	109.10042	-607.16690	109.10042
8100.00000	108.74438	-609.11557	108.74438
8150.00000	108.31064	-611.19005	108.31064
8200.00000	107.92806	-612.78779	107.92806
8250.00000	107.49912	-614.66855	107.49912
8300.00000	107.10746	-615.92489	107.10746
8350.00000	106.68156	-617.06014	106.68156
8400.00000	106.22014	-618.82898	106.22014
8450.00000	105.71690	-620.31870	105.71690
8500.00000	105.26083	-621.99877	105.26083
8550.00000	104.87310	-623.66813	104.87310
8600.00000	104.48050	-626.04794	104.48050
8650.00000	104.11994	-627.82227	104.11994
8700.00000	103.86321	-630.33429	103.86321
8750.00000	103.61761	-631.17198	103.61761
8800.00000	103.46155	-632.55804	103.46155
8850.00000	103.26024	-633.46583	103.26024
8900.00000	103.10318	-633.69046	103.10318
8950.00000	102.94861	-634.29293	102.94861
9000.00000	102.63729	-634.44977	102.63729
9050.00000	102.34623	-635.03615	102.34623
9100.00000	101.99805	-635.49717	101.99805
9150.00000	101.62459	-636.30624	101.62459
9200.00000	101.32527	-637.68723	101.32527
9250.00000	100.96829	-639.20263	100.96829
9300.00000	100.77840	-641.14550	100.77840
9350.00000	100.70406	-643.02285	100.70406
9400.00000	100.55061	-644.14562	100.55061
9450.00000	100.57173	-644.66528	100.57173
9500.00000	100.71689	-644.26374	100.71689
9550.00000	100.87975	-644.09917	100.87975
9600.00000	100.97449	-644.61220	100.97449
9650.00000	100.89326	-644.80995	100.89326
9700.00000	100.73450	-644.66464	100.73450
9750.00000	100.62273	-645.87518	100.62273
9800.00000	100.37561	-646.72379	100.37561
9850.00000	100.22070	-647.86828	100.22070
9900.00000	99.98243	-649.92239	99.98243
9950.00000	99.92533	-651.37958	99.92533
10000.00000	99.99389	-653.72796	99.99389
10050.00000	100.02665	-655.15276	100.02665
10100.00000	100.09700	-656.19578	100.09700
10150.00000	100.08629	-657.63481	100.08629
10200.00000	100.08749	-658.49224	100.08749
10250.00000	99.95938	-659.90304	99.95938
10300.00000	99.96385	-661.22624	99.96385
10350.00000	99.81400	-662.84978	99.81400
10400.00000	99.65427	-665.31169	99.65427
10450.00000	99.67332	-668.20416	99.67332
10500.00000	99.71918	-670.77166	99.71918
10550.00000	99.78492	-673.49776	99.78492
10600.00000	99.80787	-675.69352	99.80787
10650.00000	99.82586	-677.50863	99.82586
10700.00000	99.82989	-680.22244	99.82989
10750.00000	99.81454	-682.21610	99.81454
10800.00000	99.63601	-684.15730	99.63601
10850.00000	99.47819	-687.31723	99.47819
10900.00000	99.30906	-689.89059	99.30906
10950.00000	99.16877	-692.38763	99.16877
11000.00000	98.98943	-695.20127	98.98943
11050.00000	98.70656	-697.78496	98.70656
11100.00000	98.50260	-700.60964	98.50260
11150.00000	98.19334	-702.80971	98.19334
11200.00000	98.04259	-704.77181	98.04259
11250.00000	97.66823	-707.07147	97.66823
11300.00000	97.27086	-709.21977	97.27086
11350.00000	96.88932	-710.94775	96.88932
11400.00000	96.47136	-712.71731	96.47136
11450.00000	96.15314	-714.97250	96.15314
11500.00000	95.92442	-715.87183	95.92442
11550.00000	95.53478	-716.80888	95.53478
11600.00000	95.32386	-718.50421	95.32386
11650.00000	95.02752	-718.33273	95.02752
11700.00000	94.71282	-718.76805	94.71282
11750.00000	94.51488	-719.61046	94.51488
11800.00000	94.28030	-720.43026	94.28030
11850.00000	94.15364	-720.62884	94.15364
11900.00000	93.76011	-721.57749	93.76011
11950.00000	93.65302	-721.21037	93.65302
12000.00000	93.38959	-721.32302	93.38959
12050.00000	93.11823	-721.40032	93.11823
12100.00000	92.93421	-722.79176	92.93421
12150.00000	92.69034	-723.68371	92.69034
12200.00000	92.57649	-724.85584	92.57649
12250.00000	92.43429	-724.57784	92.43429
12300.00000	93.41630	-725.64357	93.41630
12350.00000	92.22455	-726.03969	92.22455
12400.00000	92.11929	-725.53145	92.11929
12450.00000	91.97411	-724.45407	91.97411
12500.00000	91.79009	-725.65930	91.79009
12550.00000	91.56747	-725.79875	91.56747
12600.00000	91.21322	-727.11335	91.21322
12650.00000	91.23375	-728.08833	91.23375
12700.00000	91.12366	-728.68207	91.12366
12750.00000	90.99010	-729.10355	90.99010
12800.00000	90.75742	-728.39984	90.75742
12850.00000	90.30393	-727.61162	90.30393
12900.00000	90.18422	-727.79645	90.18422
12950.00000	90.08119	-728.55625	90.08119
13000.00000	89.83938	-729.13035	89.83938
13050.00000	89.71538	-728.00173	89.71538
13100.00000	89.60622	-728.27700	89.60622
13150.00000	89.60810	-728.39533	89.60810
13200.00000	89.47077	-725.45876	89.47077
13250.00000	89.41475	-724.77321	89.41475
13300.00000	89.27856	-721.51972	89.27856
13350.00000	89.24910	-721.57238	89.24910
13400.00000	89.25000	-720.82004	89.25000
13450.00000	89.02975	-719.61623	89.02975
13500.00000	89.26591	-716.82581	89.26591
13550.00000	89.18043	-717.60651	89.18043
13600.00000	89.39923	-715.87748	89.39923
13650.00000	89.51282	-714.19551	89.51282
13700.00000	89.56810	-713.15692	89.56810
13750.00000	89.46097	-711.83542	89.46097
13800.00000	89.36085	-712.75326	89.36085
13850.00000	89.54087	-713.57450	89.54087
13900.00000	89.74012	-712.97956	89.74012
13950.00000	90.14672	-711.70027	90.14672
14000.00000	90.68650	-708.94494	90.68650
14050.00000	90.97869	-707.32647	90.97869
14100.00000	91.00535	-705.84583	91.00535
14150.00000	91.27845	-705.50108	91.27845
14200.00000	91.52141	-705.43338	91.52141
14250.00000	92.22008	-704.48989	92.22008
14300.00000	92.62712	-704.91269	92.62712
14350.00000	93.01332	-702.85309	93.01332
14400.00000	93.04044	-702.36783	93.04044
14450.00000	93.41443	-701.21961	93.41443
14500.00000	93.70103	-701.79617	93.70103
14550.00000	94.21185	-701.84983	94.21185
14600.00000	94.51682	-703.46261	94.51682
14650.00000	95.22085	-702.11637	95.22085
14700.00000	95.72567	-706.59291	95.72567
14750.00000	96.18432	-706.46468	96.18432
14800.00000	96.60962	-706.54867	96.60962
14850.00000	97.13091	-706.68560	97.13091
14900.00000	97.70871	-708.22997	97.70871
14950.00000	98.14974	-709.95691	98.14974
15000.00000	98.70786	-712.25309	98.70786
15050.00000	99.09105	-712.36750	99.09105
15100.00000	99.61554	-713.42841	99.61554
15150.00000	100.27424	-715.88695	100.27424
15200.00000	100.63803	-716.35572	100.63803
15250.00000	100.92616	-719.70105	100.92616
15300.00000	101.57350	-722.88353	101.57350
15350.00000	101.97014	-726.45810	101.97014
15400.00000	102.37659	-728.40923	102.37659
15450.00000	102.78176	-731.31032	102.78176
15500.00000	103.30906	-734.23755	103.30906
15550.00000	103.67265	-737.56052	103.67265
15600.00000	104.03116	-741.18868	104.03116
15650.00000	104.47846	-743.04889	104.47846
15700.00000	104.65049	-747.76030	104.65049
15750.00000	105.07777	-750.83539	105.07777
15800.00000	105.41239	-753.48314	105.41239
15850.00000	105.63655	-756.84343	105.63655
15900.00000	105.79413	-760.77013	105.79413
15950.00000	106.07697	-764.37077	106.07697
16000.00000	106.28300	-767.59876	106.28300
16050.00000	106.55137	-770.77984	106.55137
16100.00000	106.59811	-774.85534	106.59811
16150.00000	106.74538	-778.03200	106.74538
16200.00000	106.88490	-782.01947	106.88490
16250.00000	107.05283	-785.02701	107.05283
16300.00000	107.34048	-788.34307	107.34048
16350.00000	107.42036	-791.54285	107.42036
16400.00000	107.56104	-794.28760	107.56104
16450.00000	107.67329	-797.30630	107.67329
16500.00000	107.77079	-800.55319	107.77079
16550.00000	107.92547	-804.28896	107.92547
16600.00000	108.05438	-807.06692	108.05438
16650.00000	108.12488	-810.03731	108.12488
16700.00000	108.25376	-812.81958	108.25376
16750.00000	108.27133	-816.09929	108.27133
16800.00000	108.40509	-819.49889	108.40509
16850.00000	108.58916	-822.39347	108.58916
16900.00000	108.68945	-825.58286	108.68945
16950.00000	108.78946	-828.67923	108.78946
17000.00000	108.76529	-831.74214	108.76529
17050.00000	108.92177	-834.03579	108.92177
17100.00000	108.92543	-836.15105	108.92543
17150.00000	109.13851	-839.88502	109.13851
17200.00000	109.21837	-842.84464	109.21837
17250.00000	109.27331	-846.21427	109.27331
17300.00000	109.44253	-849.19256	109.44253
17350.00000	109.39969	-851.96357	109.39969
17400.00000	109.56199	-854.93118	109.56199
17450.00000	109.58615	-858.55416	109.58615
17500.00000	109.69287	-861.56555	109.69287
17550.00000	109.77701	-864.70603	109.77701
17600.00000	109.93713	-867.42534	109.93713
17650.00000	109.97763	-871.46157	109.97763
17700.00000	110.00806	-874.74879	110.00806
17750.00000	110.19228	-877.50926	110.19228
17800.00000	110.14613	-881.44906	110.14613
17850.00000	110.20561	-884.35487	110.20561
17900.00000	110.22295	-887.81144	110.22295
17950.00000	110.31756	-891.58289	110.31756
18000.00000	110.31592	-895.48226	110.31592
18050.00000	110.44695	-898.44799	110.44695
18100.00000	110.36397	-902.50004	110.36397
18150.00000	110.35558	-905.33668	110.35558
18200.00000	110.25208	-909.41646	110.25208
18250.00000	110.29991	-912.24863	110.29991
18300.00000	110.30274	-915.62820	110.30274
18350.00000	110.24382	-919.00186	110.24382
18400.00000	110.12967	-922.64755	110.12967
18450.00000	110.02347	-927.11319	110.02347
18500.00000	109.95429	-930.27816	109.95429
18550.00000	109.85906	-933.08024	109.85906
18600.00000	109.84921	-936.81881	109.84921
18650.00000	109.60939	-939.62650	109.60939
18700.00000	109.47302	-943.26570	109.47302
18750.00000	109.42332	-946.33019	109.42332
18800.00000	109.41264	-948.64017	109.41264
18850.00000	109.15342	-951.95622	109.15342
18900.00000	109.00043	-954.70706	109.00043
18950.00000	108.89997	-958.00784	108.89997
19000.00000	108.62510	-960.32640	108.62510
19050.00000	108.64228	-963.24823	108.64228
19100.00000	108.45436	-965.60839	108.45436
19150.00000	108.45724	-968.12304	108.45724
19200.00000	108.31372	-970.37453	108.31372
19250.00000	108.19120	-974.00324	108.19120
19300.00000	107.99908	-975.72501	107.99908
19350.00000	107.92264	-978.42166	107.92264
19400.00000	107.76929	-980.61574	107.76929
19450.00000	107.75372	-982.54712	107.75372
19500.00000	107.57490	-985.87396	107.57490
19550.00000	107.50265	-988.19722	107.50265
19600.00000	107.46589	-991.12314	107.46589
19650.00000	107.30803	-993.09577	107.30803
19700.00000	107.11805	-995.62665	107.11805
19750.00000	107.00914	-997.51316	107.00914
19800.00000	106.99010	-1000.78671	106.99010
19850.00000	106.91068	-1002.85804	106.91068
19900.00000	106.75568	-1006.00686	106.75568
19950.00000	106.63948	-1008.33981	106.63948
20000.00000	106.54084	-1010.82609	106.54084
20050.00000	106.45258	-1013.29770	106.45258
20100.00000	106.24338	-1015.65394	106.24338
20150.00000	106.19426	-1017.19635	106.19426
20200.00000	106.00733	-1020.38562	106.00733
20250.00000	105.83834	-1022.58683	105.83834
20300.00000	105.62139	-1025.08130	105.62139
20350.00000	105.55203	-1027.45648	105.55203
20400.00000	105.33177	-1028.86812	105.33177
20450.00000	105.10608	-1031.07004	105.10608
20500.00000	105.00124	-1033.39972	105.00124
20550.00000	104.60266	-1034.53834	104.60266
20600.00000	104.51301	-1036.10046	104.51301
20650.00000	104.33633	-1037.78373	104.33633
20700.00000	104.10917	-1039.17489	104.10917
20750.00000	104.00251	-1040.39929	104.00251
20800.00000	103.79445	-1041.14531	103.79445
20850.00000	103.71386	-1042.34514	103.71386
20900.00000	103.53095	-1043.18140	103.53095
20950.00000	103.40806	-1043.48733	103.40806
21000.00000	103.34524	-1044.00795	103.34524
21050.00000	103.43804	-1044.23472	103.43804
21100.00000	103.40975	-1044.57479	103.40975
21150.00000	103.52210	-1045.53761	103.52210
21200.00000	103.63235	-1045.94662	103.63235
21250.00000	103.72408	-1048.00622	103.72408
21300.00000	103.89248	-1048.61564	103.89248
21350.00000	103.99982	-1049.89902	103.99982
21400.00000	104.11211	-1051.75966	104.11211
21450.00000	104.23757	-1053.58089	104.23757
21500.00000	104.36671	-1055.86117	104.36671
21550.00000	104.35967	-1057.59130	104.35967
21600.00000	104.50205	-1059.89260	104.50205
21650.00000	104.52403	-1062.49082	104.52403
21700.00000	104.56073	-1064.32214	104.56073
21750.00000	104.61304	-1066.63553	104.61304
21800.00000	104.60200	-1068.83320	104.60200
21850.00000	104.53275	-1071.05771	104.53275
21900.00000	104.56703	-1073.09318	104.56703
21950.00000	104.54493	-1074.79826	104.54493
22000.00000	104.57370	-1076.80550	104.57370
22050.00000	104.51783	-1078.21264	104.51783
22100.00000	104.47008	-1080.56315	104.47008
22150.00000	104.44228	-1082.38980	104.44228
22200.00000	104.50173	-1084.11923	104.50173
22250.00000	104.43323	-1085.28471	104.43323
22300.00000	104.31413	-1087.25903	104.31413
22350.00000	104.43907	-1089.31305	104.43907
22400.00000	104.49082	-1091.06729	104.49082
22450.00000	104.39109	-1092.74091	104.39109
22500.00000	104.33697	-1093.33268	104.33697
22550.00000	104.34045	-1095.47808	104.34045
22600.00000	104.35254	-1097.90127	104.35254
22650.00000	104.36891	-1099.38463	104.36891
22700.00000	104.37801	-1101.16381	104.37801
22750.00000	104.34780	-1100.99553	104.34780
22800.00000	104.36608	-1104.78692	104.36608
22850.00000	104.35648	-1106.94609	104.35648
22900.00000	104.44666	-1107.62598	104.44666
22950.00000	104.49420	-1108.96759	104.49420
23000.00000	104.45880	-1110.32876	104.45880
23050.00000	104.39612	-1112.86990	104.39612
23100.00000	104.52527	-1113.43421	104.52527
23150.00000	104.38547	-1114.21666	104.38547
23200.00000	104.52912	-1117.06578	104.52912
23250.00000	104.39506	-1119.70500	104.39506
23300.00000	104.72902	-1121.47026	104.72902
23350.00000	104.44631	-1122.73465	104.44631
23400.00000	104.50565	-1124.69609	104.50565
23450.00000	104.60855	-1126.48495	104.60855
23500.00000	104.49200	-1127.28149	104.49200
23550.00000	104.48051	-1127.31587	104.48051
23600.00000	104.47178	-1130.64463	104.47178
23650.00000	104.54727	-1132.01813	104.54727
23700.00000	104.77328	-1135.79817	104.77328
23750.00000	104.74075	-1136.44495	104.74075
23800.00000	104.56869	-1137.02846	104.56869
23850.00000	104.74846	-1137.81098	104.74846
23900.00000	105.08528	-1140.35672	105.08528
23950.00000	104.87001	-1142.85699	104.87001
24000.00000	104.83698	-1145.25512	104.83698
24050.00000	104.95974	-1145.70232	104.95974
24100.00000	105.27571	-1149.05854	105.27571
24150.00000	105.35797	-1150.56255	105.35797
24200.00000	105.36555	-1153.80032	105.36555
24250.00000	105.05495	-1154.32435	105.05495
24300.00000	105.59254	-1156.65757	105.59254
24350.00000	105.53772	-1159.14571	105.53772
24400.00000	105.51866	-1162.39713	105.51866
24450.00000	105.36814	-1164.17379	105.36814
24500.00000	105.93100	-1165.42703	105.93100
24550.00000	105.72789	-1170.41202	105.72789
24600.00000	106.25369	-811.74207	106.25369
24650.00000	106.02016	-815.28014	106.02016
24700.00000	105.92131	-456.29931	105.92131
24750.00000	106.06726	-101.42999	106.06726
24800.00000	106.08004	255.80789	106.08004
24850.00000	105.79621	614.52719	105.79621
24900.00000	105.92624	972.98442	105.92624
24950.00000	106.10721	1329.19981	106.10721
25000.00000	106.12030	1320.62256	106.12030
25050.00000	106.22587	1319.38048	106.22587
25100.00000	105.58690	1317.16071	105.58690
25150.00000	105.98410	1315.88791	105.98410
25200.00000	105.72629	1311.07841	105.72629
25250.00000	105.79013	1310.24544	105.79013
25300.00000	105.77032	1307.58585	105.77032
25350.00000	105.63312	1300.55773	105.63312
25400.00000	105.49109	1297.12032	105.49109
25450.00000	105.51291	1295.63179	105.51291
25500.00000	105.33112	1293.38049	105.33112
25550.00000	105.19567	1289.31899	105.19567
25600.00000	105.15352	1287.07083	105.15352
25650.00000	104.94432	1284.99570	104.94432
25700.00000	104.95737	1281.77948	104.95737
25750.00000	104.63660	1278.84755	104.63660
25800.00000	104.53019	1274.97156	104.53019
25850.00000	104.37097	1272.52186	104.37097
25900.00000	104.31546	1269.04751	104.31546
25950.00000	104.00276	1270.44757	104.00276
26000.00000	103.96008	1265.44345	103.96008
26050.00000	103.88376	1263.17469	103.88376
26100.00000	103.73525	1260.33534	103.73525
26150.00000	103.69376	1257.90795	103.69376
26200.00000	103.67594	1255.32562	103.67594
26250.00000	103.39014	1253.03362	103.39014
26300.00000	103.49928	1248.92344	103.49928
26350.00000	102.95346	1247.71763	102.95346
26400.00000	102.94988	1245.23852	102.94988
26450.00000	103.14351	1241.41383	103.14351
26500.00000	102.72496	1239.15759	102.72496
26550.00000	102.57786	1233.66566	102.57786
26600.00000	102.35511	1231.68191	102.35511
26650.00000	102.30654	1231.57544	102.30654
26700.00000	102.13765	1228.60213	102.13765
26750.00000	101.75580	1225.88194	101.75580
26800.00000	101.50324	1219.49121	101.50324
26850.00000	101.65237	1218.88884	101.65237
26900.00000	101.51276	1218.28874	101.51276
26950.00000	101.43306	1213.91030	101.43306
27000.00000	100.64320	1212.93717	100.64320
27050.00000	100.87207	1209.70122	100.87207
27100.00000	100.36158	1208.83706	100.36158
27150.00000	100.07256	1204.43060	100.07256
27200.00000	100.12751	1204.24034	100.12751
27250.00000	99.47305	1202.96263	99.47305
27300.00000	99.19861	1200.16685	99.19861
27350.00000	99.02440	1200.25018	99.02440
27400.00000	98.54456	1197.93721	98.54456
27450.00000	98.35408	1197.94639	98.35408
27500.00000	98.20954	1196.52793	98.20954
27550.00000	98.04324	1195.54160	98.04324
27600.00000	98.05195	1192.34649	98.05195
27650.00000	97.52734	1194.67024	97.52734
27700.00000	97.43813	1190.97307	97.43813
27750.00000	97.22007	1189.55078	97.22007
27800.00000	97.32758	1188.20918	97.32758
27850.00000	97.48318	1191.69741	97.48318
27900.00000	96.86337	1189.46385	96.86337
27950.00000	96.28479	1190.30829	96.28479
28000.00000	96.38352	1190.34460	96.38352
28050.00000	96.86865	1187.90699	96.86865
28100.00000	96.26146	1187.90133	96.26146
28150.00000	96.51681	1188.07965	96.51681
28200.00000	96.48836	1184.08882	96.48836
28250.00000	96.21248	1182.53949	96.21248
28300.00000	95.99902	1184.89967	95.99902
28350.00000	96.29877	1183.81188	96.29877
28400.00000	96.23114	1184.97369	96.23114
28450.00000	96.75094	1182.61967	96.75094
28500.00000	96.38987	1183.23362	96.38987
28550.00000	96.26363	1184.92869	96.26363
28600.00000	96.37437	1183.11065	96.37437
28650.00000	96.61176	1179.32240	96.61176
28700.00000	96.64689	1182.32934	96.64689
28750.00000	97.37954	1182.10226	97.37954
28800.00000	97.00072	1181.30245	97.00072
28850.00000	96.57600	1178.00672	96.57600
28900.00000	96.82361	1176.51494	96.82361
28950.00000	96.87820	1178.60295	96.87820
29000.00000	97.19716	1176.25812	97.19716
29050.00000	96.85262	1178.38160	96.85262
29100.00000	97.02604	1177.77046	97.02604
29150.00000	96.82671	1177.17644	96.82671
29200.00000	97.11816	1175.25699	97.11816
29250.00000	97.37937	1175.25722	97.37937
29300.00000	97.22247	1173.84020	97.22247
29350.00000	97.66435	1173.10111	97.66435
29400.00000	97.67750	1173.82074	97.67750
29450.00000	97.84586	1173.39650	97.84586
29500.00000	98.18477	1172.95203	98.18477
29550.00000	98.03865	1169.87128	98.03865
29600.00000	98.10230	1171.35076	98.10230
29650.00000	98.39238	1169.07640	98.39238
29700.00000	98.45468	1171.00534	98.45468
29750.00000	98.63377	1170.55311	98.63377
29800.00000	98.66546	1169.03779	98.66546
29850.00000	98.95888	1166.92667	98.95888
29900.00000	99.41744	1167.90451	99.41744
29950.00000	98.78177	1167.16582	98.78177
30000.00000	99.42523	1167.74908	99.42523
30050.00000	99.77392	1166.14834	99.77392
30100.00000	99.60567	1166.92306	99.60567
30150.00000	99.99474	1163.23625	99.99474
30200.00000	100.18826	1161.96348	100.18826
30250.00000	100.11056	1162.47036	100.11056
30300.00000	100.05762	1162.48990	100.05762
30350.00000	100.37086	1162.98179	100.37086
30400.00000	100.59691	1160.99458	100.59691
30450.00000	100.39316	1160.54787	100.39316
30500.00000	100.60932	1159.37620	100.60932
30550.00000	100.67605	1160.56427	100.67605
30600.00000	100.85640	1160.42885	100.85640
30650.00000	100.96524	1160.36960	100.96524
30700.00000	101.14325	1159.47541	101.14325
30750.00000	101.12511	1160.86901	101.12511
30800.00000	101.35635	1160.94154	101.35635
30850.00000	101.68391	1162.43769	101.68391
30900.00000	101.64783	1163.64897	101.64783
30950.00000	102.21208	1163.01386	102.21208
31000.00000	102.50426	1162.41873	102.50426
31050.00000	102.95146	1163.54189	102.95146
31100.00000	103.43096	1164.47007	103.43096
31150.00000	103.53745	1163.63029	103.53745
31200.00000	104.39340	1163.43938	104.39340
31250.00000	104.76340	1163.00974	104.76340
31300.00000	105.24770	1161.46295	105.24770
31350.00000	105.87127	1160.56679	105.87127
31400.00000	106.13666	1158.34375	106.13666
31450.00000	106.72937	1156.52655	106.72937
31500.00000	107.15963	1153.60279	107.15963
31550.00000	107.66257	1151.71325	107.66257
31600.00000	108.24203	1147.94889	108.24203
31650.00000	108.57686	1145.02131	108.57686
31700.00000	108.97997	1142.50810	108.97997
31750.00000	109.38045	1140.36040	109.38045
31800.00000	109.70821	1135.81899	109.70821
31850.00000	110.07576	1132.01420	110.07576
31900.00000	110.19682	1129.04876	110.19682
31950.00000	110.53489	1124.96123	110.53489
32000.00000	110.81795	1121.13434	110.81795
32050.00000	110.96049	1118.03179	110.96049
32100.00000	111.22199	1113.76963	111.22199
32150.00000	111.45274	1110.92007	111.45274
32200.00000	111.66810	1106.61917	111.66810
32250.00000	111.80059	1102.30204	111.80059
32300.00000	111.91329	1099.07888	111.91329
32350.00000	112.03541	1096.04466	112.03541
32400.00000	112.28079	1092.40149	112.28079
32450.00000	112.27520	1088.55329	112.27520
32500.00000	112.46691	1085.72470	112.46691
32550.00000	112.66208	1081.07881	112.66208
32600.00000	112.70626	1078.07102	112.70626
32650.00000	112.85967	1074.32783	112.85967
32700.00000	112.83139	1070.46358	112.83139
32750.00000	112.94847	1066.56397	112.94847
32800.00000	113.16948	1063.72331	113.16948
32850.00000	113.32116	1059.53089	113.32116
32900.00000	113.32818	1055.48958	113.32818
32950.00000	113.32479	1051.05510	113.32479
33000.00000	113.39790	1049.30328	113.39790
33050.00000	113.45672	1044.28431	113.45672
33100.00000	113.63583	1041.23492	113.63583
33150.00000	113.67137	1037.87080	113.67137
33200.00000	113.88163	1035.12150	113.88163
33250.00000	113.83249	1031.34430	113.83249
33300.00000	113.86380	1026.36467	113.86380
33350.00000	113.86044	1022.90880	113.86044
33400.00000	113.91435	1020.35337	113.91435
33450.00000	114.01293	1015.04826	114.01293
33500.00000	114.23130	1013.46089	114.23130
33550.00000	113.94641	1007.86134	113.94641
33600.00000	114.23730	1004.51828	114.23730
33650.00000	114.21950	1000.66203	114.21950
33700.00000	114.17714	997.30781	114.17714
33750.00000	114.09011	993.60001	114.09011
33800.00000	114.21578	989.87876	114.21578
33850.00000	113.92178	986.24363	113.92178
33900.00000	114.11081	982.16496	114.11081
33950.00000	114.06669	979.15023	114.06669
34000.00000	114.08571	974.88353	114.08571
34050.00000	113.95181	971.16005	113.95181
34100.00000	113.76189	968.81439	113.76189
34150.00000	113.86498	964.66136	113.86498
34200.00000	113.72488	962.74877	113.72488
34250.00000	113.72605	957.82936	113.72605
34300.00000	113.61186	955.10102	113.61186
34350.00000	113.62286	951.85536	113.62286
34400.00000	113.29386	950.56051	113.29386
34450.00000	113.47229	944.70567	113.47229
34500.00000	113.22665	942.56924	113.22665
34550.00000	113.25559	939.75243	113.25559
34600.00000	112.76668	935.60958	112.76668
34650.00000	112.92547	935.39075	112.92547
34700.00000	112.42058	934.13426	112.42058
34750.00000	112.52412	928.15186	112.52412
34800.00000	112.60311	929.07376	112.60311
34850.00000	112.64040	928.37327	112.64040
34900.00000	112.80896	923.87707	112.80896
34950.00000	112.58253	923.51728	112.58253
35000.00000	112.48367	920.71460	112.48367
35050.00000	112.64900	919.80696	112.64900
35100.00000	112.67843	916.50399	112.67843
35150.00000	112.43274	915.80301	112.43274
35200.00000	112.49538	912.70493	112.49538
35250.00000	112.62238	910.80157	112.62238
35300.00000	112.72030	908.80902	112.72030
35350.00000	112.82342	906.21652	112.82342
35400.00000	112.93169	904.13456	112.93169
35450.00000	112.85651	902.48790	112.85651
35500.00000	112.58198	901.02364	112.58198
35550.00000	113.01827	900.46407	113.01827
35600.00000	112.95677	897.22786	112.95677
35650.00000	113.15892	895.77411	113.15892
35700.00000	113.18901	893.12044	113.18901
35750.00000	113.19042	892.56418	113.19042
35800.00000	113.36383	890.81796	113.36383
35850.00000	113.62973	888.00825	113.62973
35900.00000	113.69981	885.85803	113.69981
35950.00000	113.97716	883.45216	113.97716
36000.00000	114.00698	881.54054	114.00698
36050.00000	114.22758	879.08960	114.22758
36100.00000	114.41940	876.49757	114.41940
36150.00000	114.36237	874.46266	114.36237
36200.00000	114.48798	872.26575	114.48798
36250.00000	114.54198	869.49513	114.54198
36300.00000	114.42680	867.24445	114.42680
36350.00000	114.80819	865.21690	114.80819
36400.00000	114.84571	863.29529	114.84571
36450.00000	114.72080	860.58969	114.72080
36500.00000	115.12224	859.63857	115.12224
36550.00000	114.92358	855.60254	114.92358
36600.00000	115.06014	853.65410	115.06014
36650.00000	115.18360	851.63556	115.18360
36700.00000	115.33956	849.19321	115.33956
36750.00000	115.45293	846.13465	115.45293
36800.00000	115.43906	845.00534	115.43906
36850.00000	115.30540	842.39658	115.30540
36900.00000	115.50054	840.34534	115.50054
36950.00000	115.42696	838.02712	115.42696
37000.00000	115.20842	836.35469	115.20842
37050.00000	115.25012	835.38152	115.25012
37100.00000	115.44996	832.43902	115.44996
37150.00000	115.45653	830.85525	115.45653
37200.00000	115.76807	830.39094	115.76807
37250.00000	115.42250	828.51097	115.42250
37300.00000	115.56553	826.43117	115.56553
37350.00000	115.91019	824.94148	115.91019
37400.00000	115.84615	824.04187	115.84615
37450.00000	115.80894	822.57319	115.80894
37500.00000	116.37516	819.83101	116.37516
37550.00000	116.12812	818.21049	116.12812
37600.00000	116.32169	816.94137	116.32169
37650.00000	116.44159	815.80040	116.44159
37700.00000	116.67618	812.84967	116.67618
37750.00000	116.83085	812.25750	116.83085
37800.00000	116.93839	809.80260	116.93839
37850.00000	117.20633	806.41759	117.20633
37900.00000	117.42515	804.41574	117.42515
37950.00000	117.62786	802.65761	117.62786
38000.00000	117.69253	800.47787	117.69253
38050.00000	118.01356	797.41745	118.01356
38100.00000	118.23341	794.54083	118.23341
38150.00000	118.36727	790.76610	118.36727
38200.00000	118.67594	787.42500	118.67594
38250.00000	118.79571	784.57480	118.79571
38300.00000	119.04426	780.69657	119.04426
38350.00000	119.16887	777.58142	119.16887
38400.00000	119.26547	773.74652	119.26547
38450.00000	119.40161	769.60307	119.40161
38500.00000	119.63573	765.08782	119.63573
38550.00000	119.79313	761.77978	119.79313
38600.00000	119.92488	757.56505	119.92488
38650.00000	120.01506	752.95493	120.01506
38700.00000	120.03305	749.05085	120.03305
38750.00000	120.12330	745.01635	120.12330
38800.00000	120.22560	740.84821	120.22560
38850.00000	120.32857	736.10115	120.32857
38900.00000	120.35568	731.62470	120.35568
38950.00000	120.36809	727.04971	120.36809
39000.00000	120.36125	722.41970	120.36125
39050.00000	120.44799	718.10691	120.44799
39100.00000	120.36712	713.38173	120.36712
39150.00000	120.34298	708.58920	120.34298
39200.00000	120.32527	704.46379	120.32527
39250.00000	120.31321	699.46574	120.31321
39300.00000	120.26263	694.76188	120.26263
39350.00000	120.17624	690.57279	120.17624
39400.00000	120.08851	685.29796	120.08851
39450.00000	119.90733	681.11192	119.90733
39500.00000	119.85533	676.32462	119.85533
39550.00000	119.63634	671.29138	119.63634
39600.00000	119.36490	666.98190	119.36490
39650.00000	119.23834	662.99448	119.23834
39700.00000	118.98898	658.83663	118.98898
39750.00000	118.83927	654.38433	118.83927
39800.00000	118.57493	650.23274	118.57493
39850.00000	118.32057	646.20059	118.32057
39900.00000	118.07346	642.54760	118.07346
39950.00000	117.82031	638.96914	117.82031
40000.00000	117.42443	636.68091	117.42443
40050.00000	117.24482	631.76951	117.24482
40100.00000	117.02227	628.45474	117.02227
40150.00000	116.64524	625.30700	116.64524
40200.00000	116.39715	622.03707	116.39715
40250.00000	116.04838	619.40719	116.04838
40300.00000	115.91538	617.02305	115.91538
40350.00000	115.44703	614.60418	115.44703
40400.00000	115.12996	612.07939	115.12996
40450.00000	114.90568	610.07852	114.90568
40500.00000	114.71354	608.33558	114.71354
40550.00000	114.43606	605.36172	114.43606
40600.00000	114.18385	604.26598	114.18385
40650.00000	113.88571	602.92432	113.88571
40700.00000	113.56436	601.72382	113.56436
40750.00000	113.56077	599.99749	113.56077
40800.00000	113.28726	598.11416	113.28726
40850.00000	113.09514	598.25436	113.09514
40900.00000	112.90521	596.36898	112.90521
40950.00000	112.67162	596.19866	112.67162
41000.00000	112.31068	595.11945	112.31068
41050.00000	112.46530	595.22320	112.46530
41100.00000	112.28652	594.40834	112.28652
41150.00000	112.23568	595.10658	112.23568
41200.00000	112.34099	594.69367	112.34099
41250.00000	112.11769	591.47992	112.11769
41300.00000	111.94879	593.11407	111.94879
41350.00000	112.04845	593.99065	112.04845
41400.00000	112.00010	588.87546	112.00010
41450.00000	112.22460	591.92031	112.22460
41500.00000	112.17346	590.58739	112.17346
41550.00000	111.97343	594.66945	111.97343
41600.00000	111.81920	592.15015	111.81920
41650.00000	112.32994	591.49785	112.32994
41700.00000	112.57332	592.34215	112.57332
41750.00000	112.29587	595.14175	112.29587
41800.00000	111.72786	590.78445	111.72786
41850.00000	111.82948	592.11414	111.82948
41900.00000	111.90153	592.09812	111.90153
41950.00000	113.12984	595.53738	113.12984
42000.00000	112.24937	590.82456	112.24937
42050.00000	111.48824	590.51645	111.48824
42100.00000	112.07169	590.60016	112.07169
42150.00000	111.92335	585.46192	111.92335
42200.00000	111.77533	592.06412	111.77533
42250.00000	111.97469	590.90401	111.97469
42300.00000	111.10031	587.46291	111.10031
42350.00000	111.98428	588.94615	111.98428
42400.00000	111.75334	589.23543	111.75334
42450.00000	112.36912	584.09862	112.36912
42500.00000	111.75661	584.71671	111.75661
42550.00000	111.99743	593.57960	111.99743
42600.00000	111.89127	586.21180	111.89127
42650.00000	111.53497	585.53320	111.53497
42700.00000	111.24640	583.13036	111.24640
42750.00000	112.25397	580.91042	112.25397
42800.00000	111.67391	575.12676	111.67391
42850.00000	111.50928	572.44221	111.50928
42900.00000	112.67207	577.28285	112.67207
42950.00000	111.55928	571.05195	111.55928
43000.00000	112.49042	561.62641	112.49042
43050.00000	111.75664	560.78593	111.75664
43100.00000	111.96986	562.78238	111.96986
43150.00000	111.06781	558.73725	111.06781
43200.00000	111.50473	554.64470	111.50473
43250.00000	111.55517	551.16643	111.55517
43300.00000	111.58227	546.75052	111.58227
43350.00000	112.36043	543.46767	112.36043
43400.00000	111.39257	540.75799	111.39257
43450.00000	112.18174	539.50585	112.18174
43500.00000	110.88118	531.71081	110.88118
43550.00000	111.62756	528.51119	111.62756
43600.00000	111.12517	522.07563	111.12517
43650.00000	111.56065	513.95934	111.56065
43700.00000	111.33762	514.97984	111.33762
43750.00000	110.62021	512.14337	110.62021
43800.00000	111.11141	503.94939	111.11141
43850.00000	111.45582	499.67652	111.45582
43900.00000	111.55907	495.88813	111.55907
43950.00000	111.34455	491.60784	111.34455
44000.00000	110.79770	488.03614	110.79770
44050.00000	111.33923	481.54044	111.33923
44100.00000	111.25031	469.50600	111.25031
44150.00000	110.97292	470.27091	110.97292
44200.00000	110.53856	470.92244	110.53856
44250.00000	111.08479	462.02611	111.08479
44300.00000	111.18750	456.02280	111.18750
44350.00000	110.14294	449.94198	110.14294
44400.00000	110.50880	447.87794	110.50880
44450.00000	110.68799	443.82007	110.68799
44500.00000	110.08974	438.00980	110.08974
44550.00000	111.60719	428.84095	111.60719
44600.00000	110.33977	431.07701	110.33977
44650.00000	109.82175	421.65559	109.82175
44700.00000	109.74247	416.41366	109.74247
44750.00000	109.71966	416.13457	109.71966
44800.00000	110.12055	409.68975	110.12055
44850.00000	109.52260	401.70263	109.52260
44900.00000	109.30665	398.40682	109.30665
44950.00000	109.38657	393.25562	109.38657
45000.00000	109.52780	384.52955	109.52780
45050.00000	107.69793	389.28419	107.69793
45100.00000	108.06417	380.81015	108.06417
45150.00000	108.06171	369.55463	108.06171
45200.00000	107.46665	371.57817	107.46665
45250.00000	107.39940	367.58640	107.39940
45300.00000	107.34950	361.00966	107.34950
45350.00000	106.59747	352.79962	106.59747
45400.00000	106.70357	349.12434	106.70357
45450.00000	106.65516	345.50228	106.65516
45500.00000	104.61923	339.13178	104.61923
45550.00000	104.80566	342.44010	104.80566
45600.00000	105.26152	336.77884	105.26152
45650.00000	103.66688	330.69915	103.66688
45700.00000	103.90273	326.44563	103.90273
45750.00000	104.05301	331.28101	104.05301
45800.00000	102.84381	316.51288	102.84381
45850.00000	103.21528	316.60318	103.21528
45900.00000	102.70023	315.09460	102.70023
45950.00000	101.71647	314.63764	101.71647
46000.00000	100.73507	302.71190	100.73507
46050.00000	100.24810	299.31654	100.24810
46100.00000	98.52843	302.91953	98.52843
46150.00000	98.45308	305.14483	98.45308
46200.00000	96.50549	291.38940	96.50549
46250.00000	98.04435	292.13917	98.04435
46300.00000	96.10455	290.47492	96.10455
46350.00000	98.03069	286.87390	98.03069
46400.00000	95.54800	285.88750	95.54800
46450.00000	93.53675	287.72000	93.53675
46500.00000	94.12594	292.68449	94.12594
46550.00000	93.12143	294.64010	93.12143
46600.00000	94.30986	298.67420	94.30986
46650.00000	91.21275	292.61807	91.21275
46700.00000	91.40240	302.07657	91.40240
46750.00000	91.80699	312.72049	91.80699
46800.00000	91.19930	307.95464	91.19930
46850.00000	92.49106	-37.42151	92.49106
46900.00000	91.45877	-47.37595	91.45877
46950.00000	92.58402	-49.84092	92.58402
47000.00000	92.14667	-44.92130	92.14667
47050.00000	93.53612	-51.97495	93.53612
47100.00000	92.87164	-50.16655	92.87164
47150.00000	93.49374	-50.70905	93.49374
47200.00000	91.58460	-50.49776	91.58460
47250.00000	94.64381	-57.94231	94.64381
47300.00000	94.87723	-67.10902	94.87723
47350.00000	93.87596	-414.68950	93.87596
47400.00000	92.48084	-416.36263	92.48084
47450.00000	93.57555	-415.10526	93.57555
47500.00000	92.20304	-428.47999	92.20304
47550.00000	91.80609	-783.79746	91.80609
47600.00000	92.48216	-790.06626	92.48216
47650.00000	94.43105	-787.33648	94.43105
47700.00000	92.01086	-793.45144	92.01086
47750.00000	91.50719	-790.06523	91.50719
47800.00000	92.44594	-806.21767	92.44594
47850.00000	92.61400	-1160.83218	92.61400
47900.00000	91.35301	-1504.40898	91.35301
47950.00000	91.27446	-1511.25865	91.27446
48000.00000	91.86917	-1506.00148	91.86917
48050.00000	92.23012	-1523.03308	92.23012
48100.00000	90.52367	-1521.59081	90.52367
48150.00000	91.13492	-1868.32216	91.13492
48200.00000	92.38679	-1867.75684	92.38679
48250.00000	91.92320	-1877.74670	91.92320
48300.00000	92.61243	-1879.53909	92.61243
48350.00000	92.30349	-1883.16629	92.30349
48400.00000	93.49998	-2219.69598	93.49998
48450.00000	93.17016	-2234.38001	93.17016
48500.00000	92.47626	-2238.39747	92.47626
48550.00000	91.73787	-2246.47163	91.73787
48600.00000	93.59292	-2608.81706	93.59292
48650.00000	93.73393	-2605.21759	93.73393
48700.00000	94.98627	-2617.43174	94.98627
48750.00000	91.23693	-2964.75094	91.23693
48800.00000	92.66277	-2979.62402	92.66277
48850.00000	93.69284	-2979.99071	93.69284
48900.00000	92.52179	-3330.82420	92.52179
48950.00000	92.50706	-3348.13096	92.50706
49000.00000	95.87474	-3339.00715	95.87474
49050.00000	92.88403	-3351.69968	92.88403
49100.00000	92.59362	-3708.32465	92.59362
49150.00000	93.04447	-4074.23293	93.04447
49200.00000	93.27323	-4080.07276	93.27323
49250.00000	93.63671	-4428.38098	93.63671
49300.00000	92.16495	-4091.11765	92.16495
49350.00000	91.09849	-4077.74965	91.09849
49400.00000	90.41054	-3730.42939	90.41054
49450.00000	90.21471	-3372.87080	90.21471
49500.00000	90.06566	-3026.27221	90.06566
49550.00000	89.52938	-2681.86709	89.52938
49600.00000	87.70721	-2677.04229	87.70721
49650.00000	90.36611	-2649.37115	90.36611
49700.00000	82.28882	-2321.81996	82.28882
49750.00000	86.77809	-2312.11851	86.77809
49800.00000	89.02395	-2315.21656	89.02395
49850.00000	85.24538	-2320.73594	85.24538
49900.00000	79.27370	-1943.23026	79.27370
49950.00000	87.47353	-1621.51629	87.47353
