---ACOUSTIC CALIBRATION---
Filename: C:\Data\AZH DATA\AZH51\RightPrimary.calib
Date: 8/27/2019 11:13:48 AM
Format: 4
Probe Tube Correction File: C:\Data\Probe Tube Calibrations\50_ProbeTube.calib
Experiment VIs: 850
EPL_CFTS.exe V12.0.1 (2012)
DAQmx V9.6

Attenuation (dB): 40.000000
Min Freq (Hz): 50.000000
Max Freq (Hz): 49950.000000
Freq Step (Hz): 50.000000
Sample Rate (Hz): 100000.000000
[Smoothing]
Method=None
MA.Iterations=0
MA.Length=0
Loess.Length=0
Loess.Type=Linear
Loess.Robust=FALSE


Freq(Hz)	Mag(dB)	Phase(deg)	Unsmoothed(dB)

50.00000	103.41439	527.58139	103.41439
100.00000	81.58203	614.95920	81.58203
150.00000	77.87092	501.75278	77.87092
200.00000	78.30172	450.00072	78.30172
250.00000	91.38747	468.35955	91.38747
300.00000	88.18948	396.81925	88.18948
350.00000	85.84234	397.70285	85.84234
400.00000	87.51011	368.37912	87.51011
450.00000	88.24324	350.59611	88.24324
500.00000	89.72500	368.26146	89.72500
550.00000	94.25409	356.28639	94.25409
600.00000	95.35983	351.24565	95.35983
650.00000	98.48712	340.43924	98.48712
700.00000	100.74543	326.25411	100.74543
750.00000	102.43560	307.69793	102.43560
800.00000	103.40492	284.33234	103.40492
850.00000	102.54541	268.69820	102.54541
900.00000	100.73571	252.11279	100.73571
950.00000	98.82886	252.48480	98.82886
1000.00000	97.34031	256.75455	97.34031
1050.00000	95.59341	274.05418	95.59341
1100.00000	98.38605	293.73052	98.38605
1150.00000	101.14082	296.56305	101.14082
1200.00000	103.78637	293.66978	103.78637
1250.00000	105.38245	285.80659	105.38245
1300.00000	107.09060	280.24784	107.09060
1350.00000	108.23810	270.81267	108.23810
1400.00000	109.16702	263.95922	109.16702
1450.00000	110.19624	256.93624	110.19624
1500.00000	111.24001	250.43349	111.24001
1550.00000	112.10335	240.66003	112.10335
1600.00000	113.39981	231.09448	113.39981
1650.00000	114.35119	214.62722	114.35119
1700.00000	113.01879	204.77136	113.01879
1750.00000	112.70828	199.61825	112.70828
1800.00000	112.48944	195.85641	112.48944
1850.00000	112.75838	195.01480	112.75838
1900.00000	114.07038	189.41464	114.07038
1950.00000	114.48430	175.36944	114.48430
2000.00000	113.35627	164.19931	113.35627
2050.00000	112.22060	170.39540	112.22060
2100.00000	114.08808	168.04711	114.08808
2150.00000	114.59358	156.79903	114.59358
2200.00000	114.43338	147.20731	114.43338
2250.00000	113.77726	140.24604	113.77726
2300.00000	113.82497	134.84083	113.82497
2350.00000	113.47860	128.76650	113.47860
2400.00000	113.15475	123.29414	113.15475
2450.00000	112.79502	116.80561	112.79502
2500.00000	112.30911	112.28189	112.30911
2550.00000	111.77435	106.98671	111.77435
2600.00000	111.09318	102.95965	111.09318
2650.00000	110.52283	99.52381	110.52283
2700.00000	109.77117	96.36677	109.77117
2750.00000	108.94020	93.40907	108.94020
2800.00000	107.95115	91.99759	107.95115
2850.00000	106.92465	92.49919	106.92465
2900.00000	105.76123	93.60403	105.76123
2950.00000	104.61599	98.26990	104.61599
3000.00000	103.42391	106.20037	103.42391
3050.00000	102.74652	119.74085	102.74652
3100.00000	103.39513	136.50098	103.39513
3150.00000	105.13232	147.64968	105.13232
3200.00000	107.10672	153.33222	107.10672
3250.00000	108.98995	155.15901	108.98995
3300.00000	110.68958	154.80188	110.68958
3350.00000	112.33004	153.45442	112.33004
3400.00000	114.03718	151.65975	114.03718
3450.00000	115.80831	147.00843	115.80831
3500.00000	117.47175	139.64534	117.47175
3550.00000	118.68430	130.48628	118.68430
3600.00000	119.72945	121.93958	119.72945
3650.00000	120.50340	112.29607	120.50340
3700.00000	121.07379	103.10857	121.07379
3750.00000	121.46069	94.13787	121.46069
3800.00000	121.65912	85.77847	121.65912
3850.00000	121.74831	78.87193	121.74831
3900.00000	121.94622	73.26942	121.94622
3950.00000	122.30321	67.56696	122.30321
4000.00000	122.69875	61.27357	122.69875
4050.00000	123.09516	54.67003	123.09516
4100.00000	123.49158	47.56105	123.49158
4150.00000	124.00461	39.67409	124.00461
4200.00000	124.17212	30.82636	124.17212
4250.00000	124.29391	21.88094	124.29391
4300.00000	124.27653	12.97056	124.27653
4350.00000	124.12575	 4.21736	124.12575
4400.00000	123.86840	-3.80356	123.86840
4450.00000	123.57767	-11.40808	123.57767
4500.00000	123.28130	-18.57079	123.28130
4550.00000	122.97407	-25.71959	122.97407
4600.00000	122.60608	-32.81760	122.60608
4650.00000	122.25621	-39.84274	122.25621
4700.00000	121.81398	-47.41827	121.81398
4750.00000	121.19367	-55.06100	121.19367
4800.00000	120.37205	-62.40284	120.37205
4850.00000	119.33136	-68.29092	119.33136
4900.00000	118.20450	-72.20868	118.20450
4950.00000	117.14478	-73.99692	117.14478
5000.00000	116.23461	-74.23694	116.23461
5050.00000	115.48147	-74.31491	115.48147
5100.00000	114.78010	-70.94301	114.78010
5150.00000	115.12006	-68.62186	115.12006
5200.00000	115.47245	-68.65746	115.47245
5250.00000	115.86159	-74.94813	115.86159
5300.00000	115.29536	-80.38684	115.29536
5350.00000	114.71916	-82.21298	114.71916
5400.00000	114.33724	-83.01661	114.33724
5450.00000	114.10113	-83.66574	114.10113
5500.00000	113.93198	-84.45279	113.93198
5550.00000	113.83085	-85.20727	113.83085
5600.00000	113.78957	-86.10922	113.78957
5650.00000	113.86721	-87.08619	113.86721
5700.00000	114.00109	-88.80904	114.00109
5750.00000	114.15656	-90.96560	114.15656
5800.00000	114.25881	-93.93069	114.25881
5850.00000	114.31110	-97.19918	114.31110
5900.00000	114.32190	-100.46961	114.32190
5950.00000	114.27764	-103.67413	114.27764
6000.00000	114.20430	-106.59181	114.20430
6050.00000	114.12044	-109.48637	114.12044
6100.00000	114.05231	-112.37713	114.05231
6150.00000	113.97366	-115.12705	113.97366
6200.00000	113.88285	-117.77665	113.88285
6250.00000	113.79631	-120.45751	113.79631
6300.00000	113.72929	-123.12070	113.72929
6350.00000	113.63299	-125.80769	113.63299
6400.00000	113.56167	-128.30097	113.56167
6450.00000	113.51376	-130.95856	113.51376
6500.00000	113.44263	-133.59922	113.44263
6550.00000	113.37410	-136.22333	113.37410
6600.00000	113.31640	-138.80589	113.31640
6650.00000	113.26687	-141.40365	113.26687
6700.00000	113.23694	-144.13996	113.23694
6750.00000	113.21863	-146.81950	113.21863
6800.00000	113.19813	-149.55065	113.19813
6850.00000	113.17163	-152.30890	113.17163
6900.00000	113.18097	-155.07649	113.18097
6950.00000	113.17845	-157.81713	113.17845
7000.00000	113.18169	-160.84404	113.18169
7050.00000	113.17092	-163.89368	113.17092
7100.00000	113.18202	-167.02055	113.18202
7150.00000	113.18531	-170.20786	113.18531
7200.00000	113.17397	-173.55774	113.17397
7250.00000	113.12827	-177.04601	113.12827
7300.00000	113.12456	-180.56220	113.12456
7350.00000	113.07552	-184.17632	113.07552
7400.00000	113.03833	-188.03434	113.03833
7450.00000	112.95961	-191.95252	112.95961
7500.00000	112.86818	-195.88265	112.86818
7550.00000	112.77377	-199.74780	112.77377
7600.00000	112.62172	-203.65934	112.62172
7650.00000	112.47359	-207.61553	112.47359
7700.00000	112.33744	-211.60101	112.33744
7750.00000	112.11083	-215.59713	112.11083
7800.00000	111.88094	-219.51431	111.88094
7850.00000	111.63105	-223.27861	111.63105
7900.00000	111.39601	-226.89908	111.39601
7950.00000	111.13286	-230.69169	111.13286
8000.00000	110.87321	-234.33119	110.87321
8050.00000	110.60209	-238.02404	110.60209
8100.00000	110.32477	-240.91138	110.32477
8150.00000	109.99670	-243.93557	109.99670
8200.00000	109.70327	-246.66716	109.70327
8250.00000	109.35196	-249.69895	109.35196
8300.00000	109.04184	-252.31995	109.04184
8350.00000	108.66518	-254.71586	108.66518
8400.00000	108.29026	-257.73342	108.29026
8450.00000	107.84156	-260.31425	107.84156
8500.00000	107.41655	-263.09956	107.41655
8550.00000	107.05974	-265.61325	107.05974
8600.00000	106.68239	-268.63485	106.68239
8650.00000	106.31216	-271.30993	106.31216
8700.00000	106.00880	-274.33964	106.00880
8750.00000	105.66159	-275.76000	105.66159
8800.00000	105.41009	-278.14227	105.41009
8850.00000	105.10437	-279.97379	105.10437
8900.00000	104.86061	-281.16665	104.86061
8950.00000	104.54894	-282.76357	104.54894
9000.00000	104.16863	-284.04859	104.16863
9050.00000	103.82324	-285.77125	103.82324
9100.00000	103.43179	-287.31744	103.43179
9150.00000	103.05055	-289.01977	103.05055
9200.00000	102.72830	-290.90059	102.72830
9250.00000	102.36588	-292.92015	102.36588
9300.00000	102.13971	-294.97699	102.13971
9350.00000	101.99349	-296.97682	101.99349
9400.00000	101.74948	-298.12842	101.74948
9450.00000	101.65251	-298.94778	101.65251
9500.00000	101.61524	-298.82638	101.61524
9550.00000	101.61108	-299.08549	101.61108
9600.00000	101.54006	-300.20648	101.54006
9650.00000	101.31916	-301.20437	101.31916
9700.00000	101.06927	-301.56177	101.06927
9750.00000	100.86903	-303.37992	100.86903
9800.00000	100.57900	-304.60882	100.57900
9850.00000	100.35265	-305.92315	100.35265
9900.00000	100.06278	-308.20143	100.06278
9950.00000	99.94396	-309.60491	99.94396
10000.00000	99.86857	-311.57122	99.86857
10050.00000	99.77944	-312.82269	99.77944
10100.00000	99.67846	-313.69723	99.67846
10150.00000	99.49968	-315.03723	99.49968
10200.00000	99.35358	-315.87350	99.35358
10250.00000	99.11806	-317.27062	99.11806
10300.00000	98.99902	-318.70097	98.99902
10350.00000	98.77139	-320.16555	98.77139
10400.00000	98.56128	-322.31727	98.56128
10450.00000	98.51238	-324.73907	98.51238
10500.00000	98.49445	-326.81669	98.49445
10550.00000	98.48263	-328.90686	98.48263
10600.00000	98.44787	-330.54401	98.44787
10650.00000	98.38546	-331.71767	98.38546
10700.00000	98.33348	-333.89642	98.33348
10750.00000	98.25372	-335.62456	98.25372
10800.00000	98.06797	-337.18859	98.06797
10850.00000	97.89208	-339.98124	97.89208
10900.00000	97.73779	-342.00267	97.73779
10950.00000	97.58912	-344.08612	97.58912
11000.00000	97.43432	-346.53560	97.43432
11050.00000	97.15086	-348.78054	97.15086
11100.00000	96.96361	-351.32648	96.96361
11150.00000	96.67459	-353.15796	96.67459
11200.00000	96.51291	-355.02379	96.51291
11250.00000	96.17074	-357.20334	96.17074
11300.00000	95.79536	-359.30086	95.79536
11350.00000	95.44225	-360.86278	95.44225
11400.00000	94.99930	-362.79388	94.99930
11450.00000	94.70084	-365.11083	94.70084
11500.00000	94.51003	-366.02068	94.51003
11550.00000	94.09308	-367.04991	94.09308
11600.00000	93.86495	-368.85077	93.86495
11650.00000	93.54455	-368.79566	93.54455
11700.00000	93.27726	-369.35955	93.27726
11750.00000	93.02318	-370.20681	93.02318
11800.00000	92.72297	-371.15553	92.72297
11850.00000	92.55200	-370.88817	92.55200
11900.00000	92.15511	-371.85037	92.15511
11950.00000	91.93533	-371.86157	91.93533
12000.00000	91.64219	-371.61778	91.64219
12050.00000	91.35139	-371.74286	91.35139
12100.00000	91.15339	-372.62319	91.15339
12150.00000	90.90968	-373.10114	90.90968
12200.00000	90.84358	-374.03829	90.84358
12250.00000	90.69603	-374.27316	90.69603
12300.00000	91.74300	-374.44347	91.74300
12350.00000	90.48082	-374.28790	90.48082
12400.00000	90.32594	-373.18144	90.32594
12450.00000	90.19675	-372.88417	90.19675
12500.00000	90.02399	-373.32854	90.02399
12550.00000	89.80783	-374.21116	89.80783
12600.00000	89.60496	-375.35868	89.60496
12650.00000	89.68590	-375.77314	89.68590
12700.00000	89.57920	-376.45870	89.57920
12750.00000	89.47772	-376.69707	89.47772
12800.00000	89.32218	-377.04971	89.32218
12850.00000	88.92392	-376.91565	88.92392
12900.00000	88.77626	-377.81059	88.77626
12950.00000	88.70140	-378.58314	88.70140
13000.00000	88.43440	-379.85926	88.43440
13050.00000	88.44811	-379.05541	88.44811
13100.00000	88.19932	-379.08188	88.19932
13150.00000	88.14541	-379.83908	88.14541
13200.00000	88.10026	-377.95700	88.10026
13250.00000	87.85478	-377.79992	87.85478
13300.00000	87.62703	-375.55158	87.62703
13350.00000	87.38541	-375.84077	87.38541
13400.00000	87.51755	-375.76027	87.51755
13450.00000	87.21720	-374.42830	87.21720
13500.00000	87.28737	-373.34455	87.28737
13550.00000	87.13610	-373.36014	87.13610
13600.00000	87.10198	-371.54538	87.10198
13650.00000	87.15313	-370.07176	87.15313
13700.00000	86.95404	-369.33548	86.95404
13750.00000	86.72723	-368.58386	86.72723
13800.00000	86.73042	-370.18181	86.73042
13850.00000	86.71309	-370.28527	86.71309
13900.00000	86.85115	-370.14279	86.85115
13950.00000	87.13391	-367.84717	87.13391
14000.00000	87.31954	-364.28781	87.31954
14050.00000	87.42523	-363.01118	87.42523
14100.00000	87.30938	-361.28277	87.30938
14150.00000	87.36058	-360.64522	87.36058
14200.00000	87.60787	-360.85031	87.60787
14250.00000	88.16139	-358.71927	88.16139
14300.00000	88.47088	-357.01022	88.47088
14350.00000	88.72845	-354.48544	88.72845
14400.00000	88.58379	-353.13916	88.58379
14450.00000	88.84521	-351.19832	88.84521
14500.00000	89.00918	-351.28337	89.00918
14550.00000	89.46555	-350.48300	89.46555
14600.00000	89.68117	-350.73670	89.68117
14650.00000	90.42993	-348.63026	90.42993
14700.00000	90.86635	-351.40472	90.86635
14750.00000	91.21199	-350.04892	91.21199
14800.00000	91.51471	-348.84769	91.51471
14850.00000	92.06529	-348.63683	92.06529
14900.00000	92.58888	-349.06842	92.58888
14950.00000	93.08309	-349.64681	93.08309
15000.00000	93.61812	-350.54603	93.61812
15050.00000	94.06345	-349.49588	94.06345
15100.00000	94.63637	-349.01702	94.63637
15150.00000	95.23476	-350.23065	95.23476
15200.00000	95.59477	-349.60875	95.59477
15250.00000	95.91207	-352.16137	95.91207
15300.00000	96.59594	-353.89727	96.59594
15350.00000	97.13655	-356.33866	97.13655
15400.00000	97.58864	-357.06009	97.58864
15450.00000	98.14079	-359.01127	98.14079
15500.00000	98.76962	-360.34906	98.76962
15550.00000	99.24887	-362.72938	99.24887
15600.00000	99.72821	-365.41672	99.72821
15650.00000	100.36946	-366.52802	100.36946
15700.00000	100.72863	-370.37060	100.72863
15750.00000	101.31669	-372.79245	101.31669
15800.00000	101.84617	-374.89197	101.84617
15850.00000	102.20826	-377.72965	102.20826
15900.00000	102.53809	-381.40122	102.53809
15950.00000	103.01703	-384.79004	103.01703
16000.00000	103.38635	-388.10495	103.38635
16050.00000	103.84267	-391.46555	103.84267
16100.00000	104.06282	-395.08900	104.06282
16150.00000	104.36053	-398.59439	104.36053
16200.00000	104.64267	-402.73450	104.64267
16250.00000	104.95493	-406.04407	104.95493
16300.00000	105.35624	-409.73622	105.35624
16350.00000	105.57286	-413.28201	105.57286
16400.00000	105.79787	-416.47432	105.79787
16450.00000	106.00993	-419.82881	106.00993
16500.00000	106.19859	-423.29793	106.19859
16550.00000	106.43912	-427.57518	106.43912
16600.00000	106.64141	-430.79522	106.64141
16650.00000	106.76402	-434.30393	106.76402
16700.00000	106.94585	-437.48830	106.94585
16750.00000	106.99311	-441.14108	106.99311
16800.00000	107.17868	-445.00020	107.17868
16850.00000	107.40137	-448.30470	107.40137
16900.00000	107.52772	-451.85478	107.52772
16950.00000	107.66445	-455.15363	107.66445
17000.00000	107.65473	-458.58151	107.65473
17050.00000	107.81029	-461.32459	107.81029
17100.00000	107.83420	-463.72293	107.83420
17150.00000	108.04568	-467.54611	108.04568
17200.00000	108.15804	-470.64387	108.15804
17250.00000	108.22053	-474.34669	108.22053
17300.00000	108.39608	-477.44656	108.39608
17350.00000	108.35898	-480.37650	108.35898
17400.00000	108.51811	-483.53521	108.51811
17450.00000	108.54218	-487.12467	108.54218
17500.00000	108.68136	-490.36094	108.68136
17550.00000	108.77802	-493.41100	108.77802
17600.00000	108.93941	-496.22965	108.93941
17650.00000	109.00947	-500.32104	109.00947
17700.00000	109.04993	-503.70882	109.04993
17750.00000	109.25314	-506.45451	109.25314
17800.00000	109.21179	-510.40765	109.21179
17850.00000	109.30164	-513.29670	109.30164
17900.00000	109.32828	-516.86859	109.32828
17950.00000	109.45180	-520.58282	109.45180
18000.00000	109.48039	-524.54633	109.48039
18050.00000	109.63124	-527.62645	109.63124
18100.00000	109.58440	-531.67968	109.58440
18150.00000	109.58697	-534.57767	109.58697
18200.00000	109.53739	-538.79979	109.53739
18250.00000	109.59383	-541.56304	109.59383
18300.00000	109.64784	-545.13073	109.64784
18350.00000	109.61068	-548.58277	109.61068
18400.00000	109.52769	-552.29524	109.52769
18450.00000	109.44420	-557.04926	109.44420
18500.00000	109.41016	-560.16339	109.41016
18550.00000	109.33210	-563.11803	109.33210
18600.00000	109.36103	-567.04763	109.36103
18650.00000	109.13307	-570.05283	109.13307
18700.00000	109.02715	-573.74379	109.02715
18750.00000	108.98305	-576.89757	108.98305
18800.00000	108.98226	-579.49940	108.98226
18850.00000	108.75833	-582.98560	108.75833
18900.00000	108.62242	-585.83590	108.62242
18950.00000	108.54113	-589.33497	108.54113
19000.00000	108.29704	-591.74202	108.29704
19050.00000	108.30547	-594.86728	108.30547
19100.00000	108.14337	-597.43926	108.14337
19150.00000	108.18066	-599.98517	108.18066
19200.00000	108.02616	-602.35976	108.02616
19250.00000	107.91917	-606.16866	107.91917
19300.00000	107.74231	-608.12779	107.74231
19350.00000	107.67838	-610.91062	107.67838
19400.00000	107.52404	-613.32935	107.52404
19450.00000	107.52864	-615.48144	107.52864
19500.00000	107.35994	-618.95920	107.35994
19550.00000	107.28762	-621.31666	107.28762
19600.00000	107.25782	-624.42616	107.25782
19650.00000	107.11285	-626.57246	107.11285
19700.00000	106.91855	-629.27589	106.91855
19750.00000	106.83329	-631.29369	106.83329
19800.00000	106.81563	-634.65054	106.81563
19850.00000	106.74361	-636.95703	106.74361
19900.00000	106.58505	-640.23914	106.58505
19950.00000	106.46159	-642.62253	106.46159
20000.00000	106.36720	-645.24183	106.36720
20050.00000	106.25355	-647.70712	106.25355
20100.00000	106.06562	-650.41253	106.06562
20150.00000	106.00344	-651.98018	106.00344
20200.00000	105.83717	-655.26401	105.83717
20250.00000	105.65301	-657.58133	105.65301
20300.00000	105.43976	-659.91520	105.43976
20350.00000	105.36244	-662.45316	105.36244
20400.00000	105.13015	-663.93171	105.13015
20450.00000	104.90283	-666.21689	104.90283
20500.00000	104.79401	-668.60806	104.79401
20550.00000	104.39843	-669.73127	104.39843
20600.00000	104.31152	-671.37116	104.31152
20650.00000	104.13159	-672.98285	104.13159
20700.00000	103.91867	-674.38954	103.91867
20750.00000	103.79948	-675.54840	103.79948
20800.00000	103.59988	-676.38554	103.59988
20850.00000	103.53045	-677.44456	103.53045
20900.00000	103.34708	-678.26149	103.34708
20950.00000	103.26408	-678.46744	103.26408
21000.00000	103.21141	-678.94873	103.21141
21050.00000	103.33051	-679.24040	103.33051
21100.00000	103.32866	-679.55622	103.32866
21150.00000	103.46103	-680.44503	103.46103
21200.00000	103.60713	-680.88330	103.60713
21250.00000	103.73090	-683.07856	103.73090
21300.00000	103.93592	-683.79508	103.93592
21350.00000	104.08347	-685.18916	104.08347
21400.00000	104.22201	-687.26748	104.22201
21450.00000	104.37834	-689.35887	104.37834
21500.00000	104.53340	-691.83849	104.53340
21550.00000	104.55393	-693.76507	104.55393
21600.00000	104.72748	-696.31697	104.72748
21650.00000	104.75743	-698.95894	104.75743
21700.00000	104.80383	-701.29105	104.80383
21750.00000	104.83038	-703.82977	104.83038
21800.00000	104.84452	-706.38978	104.84452
21850.00000	104.78824	-708.65401	104.78824
21900.00000	104.79409	-710.86260	104.79409
21950.00000	104.76753	-713.10989	104.76753
22000.00000	104.76480	-715.07688	104.76480
22050.00000	104.72296	-716.93815	104.72296
22100.00000	104.67580	-719.14577	104.67580
22150.00000	104.64882	-721.11253	104.64882
22200.00000	104.67900	-723.07270	104.67900
22250.00000	104.60314	-724.65482	104.60314
22300.00000	104.52931	-726.57339	104.52931
22350.00000	104.61103	-728.72613	104.61103
22400.00000	104.60904	-730.75856	104.60904
22450.00000	104.55682	-732.18861	104.55682
22500.00000	104.47720	-733.30731	104.47720
22550.00000	104.47034	-735.49163	104.47034
22600.00000	104.44495	-738.11998	104.44495
22650.00000	104.42104	-739.78294	104.42104
22700.00000	104.42889	-741.34662	104.42889
22750.00000	104.39276	-741.42881	104.39276
22800.00000	104.40428	-745.30843	104.40428
22850.00000	104.46620	-747.67826	104.46620
22900.00000	104.44075	-748.23648	104.44075
22950.00000	104.48552	-749.90527	104.48552
23000.00000	104.42329	-750.94800	104.42329
23050.00000	104.43159	-753.61629	104.43159
23100.00000	104.49760	-753.93412	104.49760
23150.00000	104.34935	-755.17708	104.34935
23200.00000	104.46974	-758.48763	104.46974
23250.00000	104.33425	-760.54012	104.33425
23300.00000	104.58769	-762.32068	104.58769
23350.00000	104.38409	-764.26036	104.38409
23400.00000	104.44207	-765.36859	104.44207
23450.00000	104.51219	-767.88419	104.51219
23500.00000	104.38601	-768.68028	104.38601
23550.00000	104.36565	-768.82622	104.36565
23600.00000	104.28729	-772.59967	104.28729
23650.00000	104.42007	-773.95197	104.42007
23700.00000	104.66926	-777.65198	104.66926
23750.00000	104.51826	-778.34944	104.51826
23800.00000	104.34099	-778.43449	104.34099
23850.00000	104.52112	-779.95852	104.52112
23900.00000	104.90124	-781.68425	104.90124
23950.00000	104.64876	-784.19381	104.64876
24000.00000	104.55601	-787.16333	104.55601
24050.00000	104.69143	-787.11390	104.69143
24100.00000	105.03478	-790.76813	105.03478
24150.00000	105.05826	-792.26982	105.05826
24200.00000	105.10189	-795.72236	105.10189
24250.00000	104.77207	-795.89918	104.77207
24300.00000	105.22581	-799.14635	105.22581
24350.00000	105.09506	-801.02631	105.09506
24400.00000	105.14879	-804.10766	105.14879
24450.00000	104.91318	-805.65339	104.91318
24500.00000	105.49201	-807.43555	105.49201
24550.00000	105.30141	-811.82262	105.30141
24600.00000	105.88919	-453.08497	105.88919
24650.00000	105.47836	-97.50063	105.47836
24700.00000	105.49696	262.37267	105.49696
24750.00000	105.58248	617.97253	105.58248
24800.00000	105.58562	975.28143	105.58562
24850.00000	105.26807	1333.98308	105.26807
24900.00000	105.43297	1692.41724	105.43297
24950.00000	105.57458	2047.31990	105.57458
25000.00000	105.55777	2040.53395	105.55777
25050.00000	105.42302	2040.79477	105.42302
25100.00000	105.10322	2036.79199	105.10322
25150.00000	105.49480	2036.58361	105.49480
25200.00000	105.26117	2031.54212	105.26117
25250.00000	105.33985	2030.50192	105.33985
25300.00000	105.35177	2028.39990	105.35177
25350.00000	105.17041	2022.27625	105.17041
25400.00000	105.17145	2018.73498	105.17145
25450.00000	105.11651	2016.88487	105.11651
25500.00000	104.90411	2015.07423	104.90411
25550.00000	104.82896	2010.90638	104.82896
25600.00000	104.83855	2009.11857	104.83855
25650.00000	104.74842	2007.05800	104.74842
25700.00000	104.62069	2004.37963	104.62069
25750.00000	104.38820	2000.90054	104.38820
25800.00000	104.30463	1997.95120	104.30463
25850.00000	104.22859	1995.20009	104.22859
25900.00000	104.15336	1992.00705	104.15336
25950.00000	103.89656	1993.47761	103.89656
26000.00000	103.90658	1988.94127	103.90658
26050.00000	103.84930	1986.22308	103.84930
26100.00000	103.77420	1983.79401	103.77420
26150.00000	103.73298	1981.35169	103.73298
26200.00000	103.72577	1979.36301	103.72577
26250.00000	103.65686	1977.16613	103.65686
26300.00000	103.69785	1973.29368	103.69785
26350.00000	103.27388	1972.80466	103.27388
26400.00000	103.23203	1969.66511	103.23203
26450.00000	103.54713	1966.58118	103.54713
26500.00000	103.27871	1963.58502	103.27871
26550.00000	103.19833	1958.74610	103.19833
26600.00000	103.05733	1956.21447	103.05733
26650.00000	103.11369	1956.91729	103.11369
26700.00000	103.20521	1953.31414	103.20521
26750.00000	102.90501	1950.11632	102.90501
26800.00000	102.82738	1944.85998	102.82738
26850.00000	103.07255	1944.56747	103.07255
26900.00000	103.11931	1942.21384	103.11931
26950.00000	103.20961	1936.95486	103.20961
27000.00000	102.65395	1936.51122	102.65395
27050.00000	102.97870	1931.89479	102.97870
27100.00000	102.56936	1930.75943	102.56936
27150.00000	102.57128	1925.64238	102.57128
27200.00000	102.54412	1923.43552	102.54412
27250.00000	102.19550	1921.45736	102.19550
27300.00000	101.90335	1917.04309	101.90335
27350.00000	101.92754	1915.73455	101.92754
27400.00000	101.63130	1912.23849	101.63130
27450.00000	101.38313	1909.28287	101.38313
27500.00000	101.18860	1906.61794	101.18860
27550.00000	101.21304	1903.55879	101.21304
27600.00000	101.18363	1899.71877	101.18363
27650.00000	100.47800	1898.71414	100.47800
27700.00000	100.35462	1893.20239	100.35462
27750.00000	100.09547	1890.70830	100.09547
27800.00000	100.06446	1886.64924	100.06446
27850.00000	99.92335	1887.90193	99.92335
27900.00000	99.20661	1886.05707	99.20661
27950.00000	98.37211	1883.26921	98.37211
28000.00000	98.38270	1882.45086	98.38270
28050.00000	98.68158	1878.17651	98.68158
28100.00000	97.59807	1877.24512	97.59807
28150.00000	97.66515	1876.71137	97.66515
28200.00000	97.47671	1872.47008	97.47671
28250.00000	97.04873	1871.70259	97.04873
28300.00000	96.41371	1871.06679	96.41371
28350.00000	96.32557	1872.15335	96.32557
28400.00000	95.96725	1872.00975	95.96725
28450.00000	96.24557	1868.40683	96.24557
28500.00000	95.44077	1870.28792	95.44077
28550.00000	95.18566	1871.58918	95.18566
28600.00000	95.11319	1872.11331	95.11319
28650.00000	95.08855	1867.18273	95.08855
28700.00000	94.98738	1871.74091	94.98738
28750.00000	95.47228	1870.05302	95.47228
28800.00000	94.73265	1872.24376	94.73265
28850.00000	94.29209	1868.44213	94.29209
28900.00000	94.14519	1869.28511	94.14519
28950.00000	93.92150	1871.11039	93.92150
29000.00000	94.21155	1870.12252	94.21155
29050.00000	93.90747	1871.55480	93.90747
29100.00000	93.97179	1873.76923	93.97179
29150.00000	93.82917	1872.36973	93.82917
29200.00000	93.71086	1873.34039	93.71086
29250.00000	93.99829	1873.40515	93.99829
29300.00000	93.74917	1872.34081	93.74917
29350.00000	94.25458	1872.62819	94.25458
29400.00000	94.04079	1872.81496	94.04079
29450.00000	93.98744	1874.67173	93.98744
29500.00000	94.45880	1874.50723	94.45880
29550.00000	94.24698	1871.65562	94.24698
29600.00000	94.34918	1874.18065	94.34918
29650.00000	94.57424	1872.06826	94.57424
29700.00000	94.41747	1874.95438	94.41747
29750.00000	94.52979	1875.00885	94.52979
29800.00000	94.28954	1874.60850	94.28954
29850.00000	94.69687	1873.58747	94.69687
29900.00000	95.04073	1875.42748	95.04073
29950.00000	94.56242	1874.91694	94.56242
30000.00000	94.87461	1876.55116	94.87461
30050.00000	95.23815	1875.98098	95.23815
30100.00000	95.12417	1878.04361	95.12417
30150.00000	95.39683	1875.35992	95.39683
30200.00000	95.58547	1875.03892	95.58547
30250.00000	95.65291	1876.18994	95.65291
30300.00000	95.46849	1878.23307	95.46849
30350.00000	95.69071	1880.14522	95.69071
30400.00000	96.01530	1878.51725	96.01530
30450.00000	95.84860	1879.48454	95.84860
30500.00000	96.31156	1879.46500	96.31156
30550.00000	96.35872	1881.74226	96.35872
30600.00000	96.57881	1882.94220	96.57881
30650.00000	96.89414	1883.75670	96.89414
30700.00000	97.25124	1883.43101	97.25124
30750.00000	97.42064	1885.23066	97.42064
30800.00000	97.71078	1885.93016	97.71078
30850.00000	98.18604	1887.67621	98.18604
30900.00000	98.33287	1889.10574	98.33287
30950.00000	99.00044	1888.90873	99.00044
31000.00000	99.56669	1888.52865	99.56669
31050.00000	100.05114	1889.03633	100.05114
31100.00000	100.73706	1889.91866	100.73706
31150.00000	100.91551	1888.78669	100.91551
31200.00000	101.85854	1887.92989	101.85854
31250.00000	102.37396	1887.54242	102.37396
31300.00000	102.85153	1885.58940	102.85153
31350.00000	103.54071	1884.14045	103.54071
31400.00000	103.90123	1881.79289	103.90123
31450.00000	104.54230	1879.75012	104.54230
31500.00000	104.94835	1876.23133	104.94835
31550.00000	105.52595	1874.14883	105.52595
31600.00000	106.12983	1870.09996	106.12983
31650.00000	106.49535	1867.29567	106.49535
31700.00000	106.96713	1864.55584	106.96713
31750.00000	107.39255	1862.01381	107.39255
31800.00000	107.72563	1857.40854	107.72563
31850.00000	108.15249	1853.60956	108.15249
31900.00000	108.28121	1850.24185	108.28121
31950.00000	108.60183	1846.51380	108.60183
32000.00000	108.91194	1842.61849	108.91194
32050.00000	109.20254	1839.07356	109.20254
32100.00000	109.39885	1834.82639	109.39885
32150.00000	109.54633	1831.77678	109.54633
32200.00000	109.87143	1827.45827	109.87143
32250.00000	110.01650	1823.20760	110.01650
32300.00000	110.16171	1819.61517	110.16171
32350.00000	110.23846	1816.34247	110.23846
32400.00000	110.51259	1812.90475	110.51259
32450.00000	110.65753	1809.91051	110.65753
32500.00000	110.79923	1805.71566	110.79923
32550.00000	110.95121	1801.36015	110.95121
32600.00000	111.00735	1798.10915	111.00735
32650.00000	111.20310	1794.42360	111.20310
32700.00000	111.18457	1790.63242	111.18457
32750.00000	111.20422	1786.52546	111.20422
32800.00000	111.53462	1783.70889	111.53462
32850.00000	111.62535	1779.87404	111.62535
32900.00000	111.64400	1775.38778	111.64400
32950.00000	111.63228	1771.19341	111.63228
33000.00000	111.78834	1769.26297	111.78834
33050.00000	111.84794	1763.79406	111.84794
33100.00000	111.90542	1761.14604	111.90542
33150.00000	112.03310	1758.01018	112.03310
33200.00000	112.23636	1755.14996	112.23636
33250.00000	112.14916	1751.62351	112.14916
33300.00000	112.26718	1746.89667	112.26718
33350.00000	112.22076	1742.99832	112.22076
33400.00000	112.31827	1740.64615	112.31827
33450.00000	112.37687	1736.60357	112.37687
33500.00000	112.63507	1734.28478	112.63507
33550.00000	112.37930	1728.55667	112.37930
33600.00000	112.68138	1725.83152	112.68138
33650.00000	112.61835	1721.65913	112.61835
33700.00000	112.61831	1718.64772	112.61831
33750.00000	112.59782	1715.07775	112.59782
33800.00000	112.74562	1711.44505	112.74562
33850.00000	112.46744	1708.49997	112.46744
33900.00000	112.70661	1704.44617	112.70661
33950.00000	112.61791	1701.49989	112.61791
34000.00000	112.72908	1696.97829	112.72908
34050.00000	112.61765	1693.87319	112.61765
34100.00000	112.53008	1691.30004	112.53008
34150.00000	112.61528	1686.96542	112.61528
34200.00000	112.49834	1685.64711	112.49834
34250.00000	112.48557	1681.46652	112.48557
34300.00000	112.42590	1677.67487	112.42590
34350.00000	112.53704	1674.57003	112.53704
34400.00000	112.19999	1673.40780	112.19999
34450.00000	112.30367	1667.88982	112.30367
34500.00000	112.19962	1665.07919	112.19962
34550.00000	112.24600	1662.67962	112.24600
34600.00000	111.88159	1658.35822	111.88159
34650.00000	112.02872	1658.07760	112.02872
34700.00000	111.56975	1656.75612	111.56975
34750.00000	111.70393	1650.80581	111.70393
34800.00000	111.81904	1651.63841	111.81904
34850.00000	111.80470	1650.52637	111.80470
34900.00000	112.02342	1646.58118	112.02342
34950.00000	111.83608	1645.96779	111.83608
35000.00000	111.86430	1642.82226	111.86430
35050.00000	111.90674	1641.87866	111.90674
35100.00000	112.05179	1638.58134	112.05179
35150.00000	111.88836	1638.23282	111.88836
35200.00000	111.98597	1633.99525	111.98597
35250.00000	112.07031	1631.80658	112.07031
35300.00000	112.22731	1628.96772	112.22731
35350.00000	112.39743	1627.07190	112.39743
35400.00000	112.32030	1624.53555	112.32030
35450.00000	112.41523	1623.33394	112.41523
35500.00000	112.24427	1620.85620	112.24427
35550.00000	112.64008	1619.75017	112.64008
35600.00000	112.61577	1616.94260	112.61577
35650.00000	112.84716	1615.01276	112.84716
35700.00000	112.90773	1612.81904	112.90773
35750.00000	112.90591	1611.02438	112.90591
35800.00000	113.01714	1610.05219	113.01714
35850.00000	113.32194	1606.36574	113.32194
35900.00000	113.46556	1604.45109	113.46556
35950.00000	113.75187	1601.56691	113.75187
36000.00000	113.74732	1599.82455	113.74732
36050.00000	114.00103	1596.34108	114.00103
36100.00000	114.17073	1593.32308	114.17073
36150.00000	114.12835	1591.25401	114.12835
36200.00000	114.38716	1588.74685	114.38716
36250.00000	114.35689	1585.44541	114.35689
36300.00000	114.28394	1583.24784	114.28394
36350.00000	114.57149	1580.86020	114.57149
36400.00000	114.83088	1577.84611	114.83088
36450.00000	114.71502	1574.66724	114.71502
36500.00000	115.02977	1573.18579	115.02977
36550.00000	115.04153	1568.91235	115.04153
36600.00000	115.18048	1565.66679	115.18048
36650.00000	115.14232	1563.78599	115.14232
36700.00000	115.32721	1560.13857	115.32721
36750.00000	115.42164	1557.42769	115.42164
36800.00000	115.40751	1554.97173	115.40751
36850.00000	115.19322	1551.36604	115.19322
36900.00000	115.42912	1548.43602	115.42912
36950.00000	115.29278	1545.40567	115.29278
37000.00000	115.04850	1543.66035	115.04850
37050.00000	114.96915	1541.63434	114.96915
37100.00000	115.13473	1538.19358	115.13473
37150.00000	115.13194	1534.97943	115.13194
37200.00000	115.32576	1533.95570	115.32576
37250.00000	114.92402	1531.07796	114.92402
37300.00000	115.02046	1529.12394	115.02046
37350.00000	115.26794	1526.97470	115.26794
37400.00000	115.04898	1525.30173	115.04898
37450.00000	114.84547	1523.17628	114.84547
37500.00000	115.26043	1520.15085	115.26043
37550.00000	115.00866	1518.46483	115.00866
37600.00000	114.97471	1516.36569	114.97471
37650.00000	114.92737	1514.34161	114.92737
37700.00000	115.03142	1511.27970	115.03142
37750.00000	115.09101	1510.79592	115.09101
37800.00000	115.02207	1507.56017	115.02207
37850.00000	115.07698	1504.68136	115.07698
37900.00000	115.14019	1503.11201	115.14019
37950.00000	115.28075	1501.78328	115.28075
38000.00000	115.23663	1499.37404	115.23663
38050.00000	115.41141	1496.85541	115.41141
38100.00000	115.50157	1494.27158	115.50157
38150.00000	115.46253	1491.17765	115.46253
38200.00000	115.71509	1488.44397	115.71509
38250.00000	115.76391	1485.73151	115.76391
38300.00000	115.94545	1482.40172	115.94545
38350.00000	115.92449	1479.99317	115.92449
38400.00000	116.07255	1476.79751	116.07255
38450.00000	116.14330	1472.46865	116.14330
38500.00000	116.31484	1468.81105	116.31484
38550.00000	116.46185	1466.16077	116.46185
38600.00000	116.59139	1462.34888	116.59139
38650.00000	116.64927	1458.05763	116.64927
38700.00000	116.56014	1454.05086	116.56014
38750.00000	116.68937	1449.92737	116.68937
38800.00000	116.68710	1445.98165	116.68710
38850.00000	116.72109	1441.85036	116.72109
38900.00000	116.72612	1437.33880	116.72612
38950.00000	116.74669	1433.22722	116.74669
39000.00000	116.61581	1428.84588	116.61581
39050.00000	116.58578	1424.62377	116.58578
39100.00000	116.39630	1420.58661	116.39630
39150.00000	116.28360	1416.62223	116.28360
39200.00000	116.19253	1412.57936	116.19253
39250.00000	116.00627	1408.41929	116.00627
39300.00000	115.88720	1404.84827	115.88720
39350.00000	115.66143	1401.40577	115.66143
39400.00000	115.56427	1397.28301	115.56427
39450.00000	115.41284	1393.90268	115.41284
39500.00000	115.25549	1390.07352	115.25549
39550.00000	114.98377	1386.50641	114.98377
39600.00000	114.71729	1383.00143	114.71729
39650.00000	114.52925	1380.21540	114.52925
39700.00000	114.30623	1377.19277	114.30623
39750.00000	114.14428	1373.44258	114.14428
39800.00000	113.94552	1370.81103	113.94552
39850.00000	113.74077	1368.26376	113.74077
39900.00000	113.54629	1365.35416	113.54629
39950.00000	113.39807	1362.68521	113.39807
40000.00000	113.02536	1361.39027	113.02536
40050.00000	112.95637	1357.58619	112.95637
40100.00000	112.82202	1355.34918	112.82202
40150.00000	112.57753	1352.74812	112.57753
40200.00000	112.38069	1350.25165	112.38069
40250.00000	112.14705	1348.25033	112.14705
40300.00000	112.08612	1346.08971	112.08612
40350.00000	111.72726	1344.28814	111.72726
40400.00000	111.52645	1342.18336	111.52645
40450.00000	111.36748	1340.75365	111.36748
40500.00000	111.39941	1339.59591	111.39941
40550.00000	111.22428	1337.20646	111.22428
40600.00000	111.03713	1335.74481	111.03713
40650.00000	110.93255	1334.94529	110.93255
40700.00000	110.56635	1333.81375	110.56635
40750.00000	110.68724	1332.71875	110.68724
40800.00000	110.57236	1331.99495	110.57236
40850.00000	110.48110	1330.79786	110.48110
40900.00000	110.31730	1329.66306	110.31730
40950.00000	110.28970	1329.60038	110.28970
41000.00000	109.93743	1328.77449	109.93743
41050.00000	110.08786	1328.09642	110.08786
41100.00000	110.09468	1327.14038	110.09468
41150.00000	110.28407	1328.09408	110.28407
41200.00000	110.27108	1327.45799	110.27108
41250.00000	110.20406	1324.60364	110.20406
41300.00000	110.05100	1326.01642	110.05100
41350.00000	110.18819	1326.51251	110.18819
41400.00000	110.26921	1320.26295	110.26921
41450.00000	110.52256	1323.52540	110.52256
41500.00000	110.34644	1322.95717	110.34644
41550.00000	110.32142	1326.85700	110.32142
41600.00000	110.22177	1324.03215	110.22177
41650.00000	110.68294	1321.94574	110.68294
41700.00000	110.88772	1321.98351	110.88772
41750.00000	110.77926	1325.20933	110.77926
41800.00000	110.34228	1320.81302	110.34228
41850.00000	110.14406	1321.26791	110.14406
41900.00000	110.21090	1320.88386	110.21090
41950.00000	111.59375	1326.00918	111.59375
42000.00000	110.66138	1320.82769	110.66138
42050.00000	110.00010	1320.70986	110.00010
42100.00000	110.43257	1319.48638	110.43257
42150.00000	110.22676	1315.07699	110.22676
42200.00000	110.22568	1322.28975	110.22568
42250.00000	110.31571	1320.58017	110.31571
42300.00000	109.64233	1318.12512	109.64233
42350.00000	110.22868	1317.43482	110.22868
42400.00000	110.00223	1319.60406	110.00223
42450.00000	110.64049	1313.84111	110.64049
42500.00000	110.00095	1313.31910	110.00095
42550.00000	110.35037	1323.82271	110.35037
42600.00000	110.37195	1314.11886	110.37195
42650.00000	109.87747	1315.49381	109.87747
42700.00000	110.03293	1312.94610	110.03293
42750.00000	110.82337	1311.34208	110.82337
42800.00000	110.45431	1303.78786	110.45431
42850.00000	109.96725	1302.50370	109.96725
42900.00000	111.03058	1306.52430	111.03058
42950.00000	110.20266	1302.17186	110.20266
43000.00000	110.70741	1290.86094	110.70741
43050.00000	110.33753	1288.82122	110.33753
43100.00000	110.83188	1291.52242	110.83188
43150.00000	109.75928	1286.47311	109.75928
43200.00000	110.43227	1281.70549	110.43227
43250.00000	110.40741	1278.04857	110.40741
43300.00000	110.49802	1274.27368	110.49802
43350.00000	110.97415	1270.09749	110.97415
43400.00000	110.49077	1268.57758	110.49077
43450.00000	111.29635	1267.01677	111.29635
43500.00000	109.92922	1256.82395	109.92922
43550.00000	110.68067	1253.60919	110.68067
43600.00000	110.13895	1247.29463	110.13895
43650.00000	110.60045	1238.00657	110.60045
43700.00000	110.11184	1238.97500	110.11184
43750.00000	109.93363	1238.03871	109.93363
43800.00000	109.99383	1228.71976	109.99383
43850.00000	110.43353	1223.43684	110.43353
43900.00000	110.63665	1221.02619	110.63665
43950.00000	110.77112	1212.10864	110.77112
44000.00000	110.31864	1209.34739	110.31864
44050.00000	110.27201	1203.77358	110.27201
44100.00000	110.58455	1190.91285	110.58455
44150.00000	110.18705	1193.33150	110.18705
44200.00000	110.01528	1192.12110	110.01528
44250.00000	110.23052	1184.39900	110.23052
44300.00000	110.36257	1176.12190	110.36257
44350.00000	108.81763	1171.64584	108.81763
44400.00000	109.99436	1167.33147	109.99436
44450.00000	110.19744	1164.82333	110.19744
44500.00000	109.48235	1159.27926	109.48235
44550.00000	110.84775	1150.62692	110.84775
44600.00000	109.48310	1150.65417	109.48310
44650.00000	109.15017	1140.52443	109.15017
44700.00000	109.09106	1136.26403	109.09106
44750.00000	109.17438	1135.26994	109.17438
44800.00000	109.58457	1129.16832	109.58457
44850.00000	108.91974	1123.20238	108.91974
44900.00000	108.65069	1121.69791	108.65069
44950.00000	109.01147	1112.99426	109.01147
45000.00000	108.78277	1105.11103	108.78277
45050.00000	107.13041	1110.28819	107.13041
45100.00000	107.46165	1098.79042	107.46165
45150.00000	107.33270	1087.08617	107.33270
45200.00000	106.78202	1092.32343	106.78202
45250.00000	106.69472	1087.11788	106.69472
45300.00000	106.73448	1081.55100	106.73448
45350.00000	105.98582	1073.07086	105.98582
45400.00000	106.21289	1076.51267	106.21289
45450.00000	106.15757	1066.99801	106.15757
45500.00000	104.25257	1059.08562	104.25257
45550.00000	104.07846	1062.81579	104.07846
45600.00000	105.55586	1051.69029	105.55586
45650.00000	103.55026	1045.75883	103.55026
45700.00000	103.08067	1041.94317	103.08067
45750.00000	103.32414	1049.24873	103.32414
45800.00000	102.84064	1035.17294	102.84064
45850.00000	102.16526	1039.25546	102.16526
45900.00000	101.21658	1035.28653	101.21658
45950.00000	100.78864	1034.52001	100.78864
46000.00000	99.52702	1019.26868	99.52702
46050.00000	99.48571	1019.17976	99.48571
46100.00000	98.85817	1022.60861	98.85817
46150.00000	98.40084	1022.08049	98.40084
46200.00000	95.83511	1010.38320	95.83511
46250.00000	97.60553	1014.57338	97.60553
46300.00000	95.77852	1014.93989	95.77852
46350.00000	97.34037	1006.70136	97.34037
46400.00000	95.05669	1008.41587	95.05669
46450.00000	93.08026	1004.66020	93.08026
46500.00000	93.93954	1014.45354	93.93954
46550.00000	93.79573	1016.20115	93.79573
46600.00000	93.90553	1019.98310	93.90553
46650.00000	91.14608	1014.67296	91.14608
46700.00000	90.61425	1023.02343	90.61425
46750.00000	92.26203	1032.66426	92.26203
46800.00000	91.63296	1012.22253	91.63296
46850.00000	91.61545	676.85336	91.61545
46900.00000	91.47866	669.12350	91.47866
46950.00000	91.69923	672.72316	91.69923
47000.00000	92.00352	678.42082	92.00352
47050.00000	93.99978	667.46296	93.99978
47100.00000	92.54681	665.87609	92.54681
47150.00000	93.09414	664.40656	93.09414
47200.00000	91.53489	669.35231	91.53489
47250.00000	93.63575	666.98077	93.63575
47300.00000	93.81881	654.57636	93.81881
47350.00000	93.13655	305.54315	93.13655
47400.00000	92.17986	302.95699	92.17986
47450.00000	93.66482	301.73830	93.66482
47500.00000	92.91146	290.89724	92.91146
47550.00000	91.39845	-63.43875	91.39845
47600.00000	91.96890	-61.82721	91.96890
47650.00000	94.00813	-69.34335	94.00813
47700.00000	92.25748	-69.31227	92.25748
47750.00000	90.95454	-71.20289	90.95454
47800.00000	91.64739	-92.21114	91.64739
47850.00000	92.29011	-433.13333	92.29011
47900.00000	92.18411	-788.61487	92.18411
47950.00000	91.45469	-787.44683	91.45469
48000.00000	91.62409	-786.43389	91.62409
48050.00000	92.07564	-792.85020	92.07564
48100.00000	89.97089	-800.31876	89.97089
48150.00000	91.67456	-1154.61789	91.67456
48200.00000	91.98212	-1150.68197	91.98212
48250.00000	91.39323	-1158.10255	91.39323
48300.00000	91.50196	-1157.67443	91.50196
48350.00000	91.99423	-1162.98187	91.99423
48400.00000	92.94675	-1507.20763	92.94675
48450.00000	93.19581	-1515.57863	93.19581
48500.00000	91.69723	-1517.24926	91.69723
48550.00000	90.98640	-1524.86632	90.98640
48600.00000	92.76328	-1881.15782	92.76328
48650.00000	92.75616	-1879.82573	92.75616
48700.00000	93.13196	-1895.05175	93.13196
48750.00000	93.63108	-2241.82033	93.63108
48800.00000	92.77840	-2253.81665	92.77840
48850.00000	92.67804	-2259.24694	92.67804
48900.00000	92.72225	-2612.21967	92.72225
48950.00000	92.42366	-2629.33483	92.42366
49000.00000	92.57092	-2629.97408	92.57092
49050.00000	92.65932	-2633.23328	92.65932
49100.00000	92.09086	-2999.67195	92.09086
49150.00000	93.49306	-3355.70531	93.49306
49200.00000	91.67255	-3351.97124	91.67255
49250.00000	93.03982	-3706.00744	93.03982
49300.00000	92.41733	-3363.80321	92.41733
49350.00000	89.50318	-3344.40171	89.50318
49400.00000	89.36882	-3013.29890	89.36882
49450.00000	86.63051	-2647.38174	86.63051
49500.00000	86.94350	-2303.98840	86.94350
49550.00000	89.68801	-1939.42566	89.68801
49600.00000	86.84760	-1929.28155	86.84760
49650.00000	89.04071	-1928.01140	89.04071
49700.00000	89.07236	-1606.23316	89.07236
49750.00000	83.80491	-1553.78950	83.80491
49800.00000	85.00525	-1556.76902	85.00525
49850.00000	87.52458	-1567.42432	87.52458
49900.00000	79.37027	-1198.10130	79.37027
49950.00000	88.18961	-818.22532	88.18961
