---ACOUSTIC CALIBRATION---
Filename: C:\Data\AZH DATA\AZH51\RightSecondary.calib
Date: 8/27/2019 11:16:48 AM
Format: 4
Probe Tube Correction File: C:\Data\Probe Tube Calibrations\50_ProbeTube.calib
Experiment VIs: 850
EPL_CFTS.exe V12.0.1 (2012)
DAQmx V9.6

Attenuation (dB): 40.000000
Min Freq (Hz): 50.000000
Max Freq (Hz): 49950.000000
Freq Step (Hz): 50.000000
Sample Rate (Hz): 100000.000000
[Smoothing]
Method=None
MA.Iterations=0
MA.Length=0
Loess.Length=0
Loess.Type=Linear
Loess.Robust=FALSE


Freq(Hz)	Mag(dB)	Phase(deg)	Unsmoothed(dB)

50.00000	100.71759	514.80864	100.71759
100.00000	84.52453	537.22524	84.52453
150.00000	85.85461	491.56673	85.85461
200.00000	86.82745	438.34469	86.82745
250.00000	94.24403	420.51908	94.24403
300.00000	91.78450	334.65949	91.78450
350.00000	88.53269	325.26087	88.53269
400.00000	89.62760	306.07349	89.62760
450.00000	87.83927	289.78128	87.83927
500.00000	87.70343	301.39825	87.70343
550.00000	88.63102	320.47205	88.63102
600.00000	91.43584	323.99519	91.43584
650.00000	94.58822	328.17856	94.58822
700.00000	97.38663	319.80681	97.38663
750.00000	99.81354	314.31957	99.81354
800.00000	102.34036	304.29566	102.34036
850.00000	104.48582	293.72744	104.48582
900.00000	106.00584	276.65879	106.00584
950.00000	107.28711	261.01310	107.28711
1000.00000	107.31742	243.46784	107.31742
1050.00000	106.84550	234.12400	106.84550
1100.00000	107.02424	222.51784	107.02424
1150.00000	106.13955	212.99882	106.13955
1200.00000	105.95578	211.38363	105.95578
1250.00000	106.02847	200.94131	106.02847
1300.00000	105.31083	195.64608	105.31083
1350.00000	104.67598	190.48532	104.67598
1400.00000	103.96505	190.39825	103.96505
1450.00000	104.10816	189.77358	104.10816
1500.00000	103.98818	188.89317	103.98818
1550.00000	104.20234	186.43187	104.20234
1600.00000	104.90874	184.25313	104.90874
1650.00000	105.74532	175.54255	105.74532
1700.00000	104.49148	171.74680	104.49148
1750.00000	104.47065	170.63554	104.47065
1800.00000	104.27194	168.47244	104.27194
1850.00000	104.24678	170.60932	104.24678
1900.00000	105.28475	170.49638	105.28475
1950.00000	106.10843	161.45761	106.10843
2000.00000	105.79778	151.99412	105.79778
2050.00000	104.80002	148.72180	104.80002
2100.00000	104.75227	147.13947	104.75227
2150.00000	104.28548	143.32645	104.28548
2200.00000	103.73414	140.84739	103.73414
2250.00000	102.60733	140.89951	102.60733
2300.00000	102.56060	144.61530	102.56060
2350.00000	102.46893	148.20057	102.46893
2400.00000	102.90306	150.35461	102.90306
2450.00000	103.02666	149.47696	103.02666
2500.00000	103.24690	152.58493	103.24690
2550.00000	103.77325	155.42888	103.77325
2600.00000	104.94091	157.55111	104.94091
2650.00000	106.43316	154.01681	106.43316
2700.00000	107.45784	145.78555	107.45784
2750.00000	107.69392	135.95644	107.69392
2800.00000	107.45298	128.69128	107.45298
2850.00000	107.07678	123.90663	107.07678
2900.00000	106.74375	119.88582	106.74375
2950.00000	106.44489	117.35725	106.44489
3000.00000	106.21460	114.57525	106.21460
3050.00000	105.90027	112.25825	105.90027
3100.00000	105.82642	110.37306	105.82642
3150.00000	105.55425	105.94694	105.55425
3200.00000	105.00124	103.16177	105.00124
3250.00000	104.34867	101.26018	104.34867
3300.00000	103.54966	99.95695	103.54966
3350.00000	102.48821	101.09476	102.48821
3400.00000	101.63583	107.73086	101.63583
3450.00000	101.39831	115.34956	101.39831
3500.00000	101.88015	121.24587	101.88015
3550.00000	102.17182	123.47795	102.17182
3600.00000	102.25218	126.01552	102.25218
3650.00000	101.87772	129.76194	101.87772
3700.00000	101.62522	140.14201	101.62522
3750.00000	102.62609	153.41035	102.62609
3800.00000	104.61469	161.81173	104.61469
3850.00000	106.67520	164.31407	106.67520
3900.00000	108.57350	163.62789	108.57350
3950.00000	110.24673	160.15473	110.24673
4000.00000	111.55043	155.57335	111.55043
4050.00000	112.56397	151.00285	112.56397
4100.00000	113.40331	147.32933	113.40331
4150.00000	114.35966	144.43009	114.35966
4200.00000	115.10600	141.79613	115.10600
4250.00000	116.05930	139.78740	116.05930
4300.00000	117.15385	137.57966	117.15385
4350.00000	118.34945	134.59068	118.34945
4400.00000	119.62411	131.00260	119.62411
4450.00000	120.96051	126.35282	120.96051
4500.00000	122.33594	120.53674	122.33594
4550.00000	123.71539	113.33055	123.71539
4600.00000	125.02607	104.84413	125.02607
4650.00000	126.32771	95.01171	126.32771
4700.00000	127.48244	83.20327	127.48244
4750.00000	128.39729	69.69683	128.39729
4800.00000	128.96966	54.78454	128.96966
4850.00000	129.09094	39.52467	129.09094
4900.00000	128.77748	24.78151	128.77748
4950.00000	128.07104	11.39645	128.07104
5000.00000	126.97741	 0.29270	126.97741
5050.00000	125.83152	-7.58907	125.83152
5100.00000	124.40676	-15.77727	124.40676
5150.00000	121.85805	-15.19527	121.85805
5200.00000	121.34033	 5.87397	121.34033
5250.00000	124.75403	 9.35633	124.75403
5300.00000	126.53488	-5.10504	126.53488
5350.00000	126.81743	-19.33596	126.81743
5400.00000	126.53745	-30.59406	126.53745
5450.00000	126.09438	-39.49859	126.09438
5500.00000	125.61282	-47.06372	125.61282
5550.00000	125.14054	-53.57879	125.14054
5600.00000	124.67600	-59.50491	124.67600
5650.00000	124.23845	-64.88655	124.23845
5700.00000	123.78910	-70.09100	123.78910
5750.00000	123.37440	-74.74903	123.37440
5800.00000	122.95422	-79.24488	122.95422
5850.00000	122.56875	-83.51806	122.56875
5900.00000	122.20839	-87.54192	122.20839
5950.00000	121.86902	-91.50853	121.86902
6000.00000	121.54307	-95.27995	121.54307
6050.00000	121.20891	-99.12212	121.20891
6100.00000	120.89347	-102.87949	120.89347
6150.00000	120.57475	-106.57810	120.57475
6200.00000	120.24521	-110.10683	120.24521
6250.00000	119.94532	-113.57629	119.94532
6300.00000	119.65289	-116.95109	119.65289
6350.00000	119.34923	-120.34875	119.34923
6400.00000	119.05102	-123.56756	119.05102
6450.00000	118.77235	-126.82214	118.77235
6500.00000	118.45946	-129.96082	118.45946
6550.00000	118.15117	-132.99025	118.15117
6600.00000	117.84477	-135.88516	117.84477
6650.00000	117.54833	-138.65131	117.54833
6700.00000	117.26199	-141.48445	117.26199
6750.00000	116.97801	-144.11091	116.97801
6800.00000	116.70575	-146.60749	116.70575
6850.00000	116.44748	-149.07933	116.44748
6900.00000	116.21161	-151.49956	116.21161
6950.00000	115.97821	-153.84687	115.97821
7000.00000	115.77691	-156.29428	115.77691
7050.00000	115.56000	-158.79597	115.56000
7100.00000	115.37387	-161.26963	115.37387
7150.00000	115.18259	-163.51113	115.18259
7200.00000	114.98394	-165.77345	114.98394
7250.00000	114.78725	-167.98099	114.78725
7300.00000	114.64973	-170.01215	114.64973
7350.00000	114.49819	-171.97849	114.49819
7400.00000	114.39568	-174.11659	114.39568
7450.00000	114.29569	-176.27146	114.29569
7500.00000	114.21960	-178.46741	114.21960
7550.00000	114.15977	-180.74322	114.15977
7600.00000	114.08907	-183.16864	114.08907
7650.00000	114.04641	-185.72543	114.04641
7700.00000	114.05449	-188.64721	114.05449
7750.00000	113.96255	-191.78208	113.96255
7800.00000	113.88746	-195.00513	113.88746
7850.00000	113.78485	-198.28747	113.78485
7900.00000	113.67726	-201.58287	113.67726
7950.00000	113.53109	-205.21694	113.53109
8000.00000	113.35823	-208.84559	113.35823
8050.00000	113.15317	-212.70733	113.15317
8100.00000	112.93560	-215.79926	112.93560
8150.00000	112.63686	-219.26250	112.63686
8200.00000	112.36739	-222.33074	112.36739
8250.00000	112.04872	-225.74191	112.04872
8300.00000	111.75566	-228.80728	111.75566
8350.00000	111.42554	-231.48026	111.42554
8400.00000	111.08707	-234.59561	111.08707
8450.00000	110.67261	-237.05624	110.67261
8500.00000	110.29802	-239.42859	110.29802
8550.00000	109.97149	-241.38683	109.97149
8600.00000	109.60274	-243.66725	109.60274
8650.00000	109.21301	-245.44484	109.21301
8700.00000	108.88425	-247.78157	108.88425
8750.00000	108.48789	-248.65721	108.48789
8800.00000	108.18183	-250.81159	108.18183
8850.00000	107.84434	-252.64976	107.84434
8900.00000	107.57370	-254.15242	107.57370
8950.00000	107.31001	-256.05133	107.31001
9000.00000	106.99998	-257.47761	106.99998
9050.00000	106.86140	-259.02624	106.86140
9100.00000	106.71103	-260.25278	106.71103
9150.00000	106.58877	-261.49726	106.58877
9200.00000	106.48575	-262.69387	106.48575
9250.00000	106.28071	-263.70570	106.28071
9300.00000	106.12382	-264.63743	106.12382
9350.00000	105.97106	-265.75022	105.97106
9400.00000	105.68798	-266.60285	105.68798
9450.00000	105.52281	-267.99049	105.52281
9500.00000	105.35898	-269.47807	105.35898
9550.00000	105.18449	-271.25848	105.18449
9600.00000	105.15091	-273.52051	105.15091
9650.00000	105.13115	-275.90744	105.13115
9700.00000	105.15456	-277.40142	105.15456
9750.00000	105.26257	-279.68791	105.26257
9800.00000	105.26405	-280.51415	105.26405
9850.00000	105.27115	-281.00677	105.27115
9900.00000	105.06215	-281.93604	105.06215
9950.00000	104.90197	-282.19595	104.90197
10000.00000	104.68692	-283.55918	104.68692
10050.00000	104.35829	-285.04539	104.35829
10100.00000	104.03803	-286.97523	104.03803
10150.00000	103.70885	-290.16978	103.70885
10200.00000	103.56056	-293.20245	103.56056
10250.00000	103.47967	-296.52544	103.47967
10300.00000	103.61411	-299.26784	103.61411
10350.00000	103.66573	-301.03291	103.66573
10400.00000	103.66884	-302.62095	103.66884
10450.00000	103.75315	-303.79462	103.75315
10500.00000	103.72976	-304.49764	103.72976
10550.00000	103.58400	-305.65996	103.58400
10600.00000	103.33576	-306.99744	103.33576
10650.00000	103.05622	-308.72012	103.05622
10700.00000	102.84699	-312.35135	102.84699
10750.00000	102.76074	-315.85702	102.76074
10800.00000	102.68794	-319.09981	102.68794
10850.00000	102.70444	-322.93028	102.70444
10900.00000	102.75754	-325.08989	102.75754
10950.00000	102.74107	-326.57237	102.74107
11000.00000	102.60446	-328.08051	102.60446
11050.00000	102.21479	-329.49258	102.21479
11100.00000	101.84219	-331.74989	101.84219
11150.00000	101.33825	-334.06467	101.33825
11200.00000	101.00261	-336.99401	101.00261
11250.00000	100.61605	-340.73638	100.61605
11300.00000	100.30532	-344.00234	100.30532
11350.00000	100.12176	-345.98856	100.12176
11400.00000	99.83522	-347.47577	99.83522
11450.00000	99.60318	-348.72257	99.60318
11500.00000	99.36467	-348.57419	99.36467
11550.00000	98.82395	-348.90373	98.82395
11600.00000	98.42382	-350.53470	98.42382
11650.00000	97.94087	-351.11637	97.94087
11700.00000	97.65032	-352.98492	97.65032
11750.00000	97.48444	-355.07166	97.48444
11800.00000	97.36895	-356.88052	97.36895
11850.00000	97.34613	-356.49287	97.34613
11900.00000	97.07497	-356.85459	97.07497
11950.00000	96.89314	-356.22335	96.89314
12000.00000	96.49819	-355.62695	96.49819
12050.00000	96.02026	-355.66060	96.02026
12100.00000	95.65222	-357.82693	95.65222
12150.00000	95.30939	-359.82145	95.30939
12200.00000	95.17306	-362.09114	95.17306
12250.00000	95.09819	-363.05916	95.09819
12300.00000	96.15024	-363.92764	96.15024
12350.00000	94.90866	-363.63436	94.90866
12400.00000	94.63939	-362.24751	94.63939
12450.00000	94.24373	-361.38714	94.24373
12500.00000	93.78799	-361.64090	93.78799
12550.00000	93.38395	-362.22419	93.38395
12600.00000	93.00545	-363.64799	93.00545
12650.00000	93.03261	-364.06612	93.03261
12700.00000	92.89125	-363.85482	92.89125
12750.00000	92.80749	-363.10644	92.80749
12800.00000	92.61116	-360.58553	92.61116
12850.00000	92.09839	-358.89454	92.09839
12900.00000	91.84587	-358.32619	91.84587
12950.00000	91.60557	-358.74588	91.60557
13000.00000	91.42082	-360.35915	91.42082
13050.00000	91.61491	-359.90797	91.61491
13100.00000	91.68194	-359.94485	91.68194
13150.00000	91.87876	-359.21222	91.87876
13200.00000	91.87804	-355.51915	91.87804
13250.00000	91.70318	-353.46056	91.70318
13300.00000	91.35587	-349.54803	91.35587
13350.00000	90.97566	-349.75140	90.97566
13400.00000	90.99541	-350.91821	90.99541
13450.00000	90.87721	-350.92114	90.87721
13500.00000	91.19466	-349.87090	91.19466
13550.00000	91.25229	-349.57644	91.25229
13600.00000	91.61153	-346.82210	91.61153
13650.00000	91.73900	-344.54428	91.73900
13700.00000	91.67959	-342.67418	91.67959
13750.00000	91.62905	-340.95207	91.62905
13800.00000	91.55280	-341.60733	91.55280
13850.00000	91.64478	-342.59618	91.64478
13900.00000	91.71051	-342.30239	91.71051
13950.00000	92.05017	-341.44841	92.05017
14000.00000	92.56309	-339.21351	92.56309
14050.00000	92.82283	-338.03851	92.82283
14100.00000	92.84167	-336.32969	92.84167
14150.00000	93.11543	-336.12717	93.11543
14200.00000	93.49020	-335.99806	93.49020
14250.00000	94.18814	-333.80427	94.18814
14300.00000	94.59962	-333.72408	94.59962
14350.00000	94.95623	-330.72077	94.95623
14400.00000	94.90843	-329.81281	94.90843
14450.00000	95.08774	-328.44384	95.08774
14500.00000	95.30974	-329.77846	95.30974
14550.00000	95.88080	-330.05074	95.88080
14600.00000	96.35236	-331.90463	96.35236
14650.00000	97.25310	-330.54640	97.25310
14700.00000	97.75306	-334.07963	97.75306
14750.00000	98.24669	-333.23781	98.24669
14800.00000	98.59669	-333.25596	98.59669
14850.00000	99.18576	-333.87529	99.18576
14900.00000	99.71596	-335.67047	99.71596
14950.00000	100.20992	-337.35025	100.20992
15000.00000	100.67591	-339.20625	100.67591
15050.00000	100.98565	-340.25635	100.98565
15100.00000	101.50922	-342.12474	101.50922
15150.00000	102.16222	-344.86642	102.16222
15200.00000	102.54656	-345.17082	102.54656
15250.00000	102.82045	-347.38653	102.82045
15300.00000	103.35922	-349.87711	103.35922
15350.00000	103.71161	-353.43460	103.71161
15400.00000	104.06374	-355.06545	104.06374
15450.00000	104.46751	-357.80914	104.46751
15500.00000	104.91191	-360.12474	104.91191
15550.00000	105.25033	-363.18096	105.25033
15600.00000	105.54286	-367.05858	105.54286
15650.00000	106.08928	-368.62524	106.08928
15700.00000	106.32195	-372.70532	106.32195
15750.00000	106.76764	-374.80829	106.76764
15800.00000	107.03611	-376.61815	107.03611
15850.00000	107.22944	-379.58393	107.22944
15900.00000	107.44086	-383.41302	107.44086
15950.00000	107.80846	-386.62432	107.80846
16000.00000	108.07069	-389.35875	108.07069
16050.00000	108.35001	-392.07445	108.35001
16100.00000	108.40628	-395.88086	108.40628
16150.00000	108.62186	-399.23622	108.62186
16200.00000	108.90737	-402.99058	108.90737
16250.00000	109.13443	-405.38774	109.13443
16300.00000	109.45269	-408.40813	109.45269
16350.00000	109.55405	-411.52327	109.55405
16400.00000	109.70212	-414.48010	109.70212
16450.00000	109.86323	-417.43583	109.86323
16500.00000	109.97929	-420.47863	109.97929
16550.00000	110.15160	-424.14001	110.15160
16600.00000	110.31768	-426.95443	110.31768
16650.00000	110.42770	-429.78842	110.42770
16700.00000	110.61375	-432.16227	110.61375
16750.00000	110.61192	-435.21024	110.61192
16800.00000	110.74292	-438.25304	110.74292
16850.00000	110.94198	-441.15770	110.94198
16900.00000	111.12846	-444.11171	111.12846
16950.00000	111.26616	-446.57286	111.26616
17000.00000	111.25708	-449.30310	111.25708
17050.00000	111.43041	-451.46062	111.43041
17100.00000	111.49203	-453.52885	111.49203
17150.00000	111.81326	-457.01515	111.81326
17200.00000	111.96092	-459.51335	111.96092
17250.00000	112.03933	-462.61846	112.03933
17300.00000	112.25265	-465.38189	112.25265
17350.00000	112.27804	-468.14752	112.27804
17400.00000	112.52626	-471.03522	112.52626
17450.00000	112.59556	-474.44794	112.59556
17500.00000	112.75906	-477.35399	112.75906
17550.00000	112.90746	-480.44312	112.90746
17600.00000	113.13496	-483.09569	113.13496
17650.00000	113.24006	-487.02987	113.24006
17700.00000	113.30579	-490.25651	113.30579
17750.00000	113.54151	-492.85300	113.54151
17800.00000	113.53854	-496.81690	113.53854
17850.00000	113.67461	-499.59722	113.67461
17900.00000	113.72741	-502.91546	113.72741
17950.00000	113.87913	-506.55043	113.87913
18000.00000	113.92942	-510.46568	113.92942
18050.00000	114.13675	-513.28192	114.13675
18100.00000	114.12343	-516.98599	114.12343
18150.00000	114.15224	-519.71550	114.15224
18200.00000	114.13389	-523.69065	114.13389
18250.00000	114.26351	-526.33263	114.26351
18300.00000	114.35775	-529.67261	114.35775
18350.00000	114.38095	-532.82556	114.38095
18400.00000	114.35884	-536.47025	114.35884
18450.00000	114.35166	-540.91069	114.35166
18500.00000	114.40065	-544.08205	114.40065
18550.00000	114.40493	-546.88069	114.40493
18600.00000	114.49970	-550.73124	114.49970
18650.00000	114.37756	-553.69835	114.37756
18700.00000	114.37571	-557.58602	114.37571
18750.00000	114.42383	-560.91773	114.42383
18800.00000	114.52717	-563.66008	114.52717
18850.00000	114.38484	-567.41544	114.38484
18900.00000	114.36091	-570.63872	114.36091
18950.00000	114.35565	-574.55172	114.35565
19000.00000	114.17829	-577.61947	114.17829
19050.00000	114.27332	-581.11686	114.27332
19100.00000	114.17219	-584.33952	114.17219
19150.00000	114.23898	-587.52654	114.23898
19200.00000	114.13629	-590.67146	114.13629
19250.00000	114.04746	-595.11757	114.04746
19300.00000	113.91181	-597.78333	113.91181
19350.00000	113.83891	-601.19298	113.83891
19400.00000	113.70593	-604.35478	113.70593
19450.00000	113.69305	-607.08812	113.69305
19500.00000	113.50462	-611.14274	113.50462
19550.00000	113.41061	-614.30732	113.41061
19600.00000	113.36633	-618.01405	113.36633
19650.00000	113.17591	-620.68474	113.17591
19700.00000	112.93596	-623.95815	112.93596
19750.00000	112.78530	-626.48342	112.78530
19800.00000	112.72847	-630.42888	112.72847
19850.00000	112.60556	-633.06946	112.60556
19900.00000	112.38621	-636.77820	112.38621
19950.00000	112.19095	-639.62893	112.19095
20000.00000	112.02432	-642.51975	112.02432
20050.00000	111.85850	-645.35254	111.85850
20100.00000	111.58046	-648.23443	111.58046
20150.00000	111.45417	-650.11338	111.45417
20200.00000	111.20839	-653.49701	111.20839
20250.00000	110.95163	-656.02006	110.95163
20300.00000	110.66675	-658.56118	110.66675
20350.00000	110.52566	-661.12848	110.52566
20400.00000	110.23011	-662.58674	110.23011
20450.00000	109.90731	-664.89873	109.90731
20500.00000	109.74099	-667.27249	109.74099
20550.00000	109.28115	-668.38372	109.28115
20600.00000	109.13530	-669.90195	109.13530
20650.00000	108.90974	-671.41958	108.90974
20700.00000	108.61434	-672.66117	108.61434
20750.00000	108.45580	-673.76110	108.45580
20800.00000	108.21573	-674.41292	108.21573
20850.00000	108.09583	-675.36783	108.09583
20900.00000	107.87132	-675.94299	107.87132
20950.00000	107.73498	-676.04584	107.73498
21000.00000	107.63560	-676.36798	107.63560
21050.00000	107.72147	-676.39654	107.72147
21100.00000	107.67688	-676.39079	107.67688
21150.00000	107.77623	-677.08000	107.77623
21200.00000	107.88022	-677.21134	107.88022
21250.00000	107.98003	-679.10652	107.98003
21300.00000	108.16740	-679.45283	108.16740
21350.00000	108.27439	-680.39700	108.27439
21400.00000	108.40231	-682.14633	108.40231
21450.00000	108.54629	-683.78649	108.54629
21500.00000	108.69744	-685.91942	108.69744
21550.00000	108.72400	-687.39818	108.72400
21600.00000	108.90027	-689.55694	108.90027
21650.00000	108.95339	-691.86350	108.95339
21700.00000	109.02329	-693.62234	109.02329
21750.00000	109.11646	-695.74948	109.11646
21800.00000	109.17208	-697.93786	109.17208
21850.00000	109.14579	-699.96550	109.14579
21900.00000	109.20866	-702.14120	109.20866
21950.00000	109.23441	-704.14607	109.23441
22000.00000	109.31243	-706.14745	109.31243
22050.00000	109.31414	-707.82468	109.31414
22100.00000	109.29210	-710.08745	109.29210
22150.00000	109.31503	-712.00970	109.31503
22200.00000	109.38949	-714.03942	109.38949
22250.00000	109.34073	-715.42622	109.34073
22300.00000	109.23188	-717.55344	109.23188
22350.00000	109.35329	-719.56068	109.35329
22400.00000	109.37178	-721.67536	109.37178
22450.00000	109.32791	-723.20483	109.32791
22500.00000	109.25250	-724.08669	109.25250
22550.00000	109.24787	-726.07824	109.24787
22600.00000	109.24739	-728.60814	109.24739
22650.00000	109.28391	-729.96147	109.28391
22700.00000	109.27719	-731.18390	109.27719
22750.00000	109.24584	-731.03912	109.24584
22800.00000	109.29021	-734.66986	109.29021
22850.00000	109.39599	-736.88335	109.39599
22900.00000	109.41752	-736.92534	109.41752
22950.00000	109.47340	-738.45436	109.47340
23000.00000	109.44660	-739.26076	109.44660
23050.00000	109.49878	-741.94319	109.49878
23100.00000	109.65408	-742.26414	109.65408
23150.00000	109.56035	-742.85068	109.56035
23200.00000	109.79149	-745.50799	109.79149
23250.00000	109.66566	-747.95917	109.66566
23300.00000	110.03010	-749.43647	110.03010
23350.00000	109.82120	-751.01940	109.82120
23400.00000	109.90021	-752.30930	109.90021
23450.00000	110.10125	-754.55743	110.10125
23500.00000	110.04907	-755.20585	110.04907
23550.00000	110.12744	-755.49336	110.12744
23600.00000	110.14092	-759.01490	110.14092
23650.00000	110.31965	-760.28846	110.31965
23700.00000	110.56705	-763.96967	110.56705
23750.00000	110.61423	-764.78332	110.61423
23800.00000	110.43821	-765.05708	110.43821
23850.00000	110.66246	-766.35572	110.66246
23900.00000	111.16511	-768.74928	111.16511
23950.00000	110.94430	-771.68442	110.94430
24000.00000	110.92522	-774.46712	110.92522
24050.00000	111.15993	-774.62851	111.15993
24100.00000	111.55278	-778.56574	111.55278
24150.00000	111.63378	-780.26020	111.63378
24200.00000	111.77526	-783.78131	111.77526
24250.00000	111.50168	-784.34702	111.50168
24300.00000	111.96141	-787.44003	111.96141
24350.00000	111.95422	-790.01644	111.95422
24400.00000	112.01131	-793.43180	112.01131
24450.00000	111.83957	-795.53113	111.83957
24500.00000	112.41241	-797.33502	112.41241
24550.00000	112.34988	-442.72462	112.34988
24600.00000	112.87990	-84.20973	112.87990
24650.00000	112.61488	271.14382	112.61488
24700.00000	112.59306	630.53778	112.59306
24750.00000	112.71933	985.13239	112.71933
24800.00000	112.72365	1342.11382	112.72365
24850.00000	112.42276	1700.17335	112.42276
24900.00000	112.61465	2058.01003	112.61465
24950.00000	112.76328	2412.90196	112.76328
25000.00000	112.79571	2404.76671	112.79571
25050.00000	112.75111	2403.64264	112.75111
25100.00000	112.34486	2400.41236	112.34486
25150.00000	112.67861	2399.04145	112.67861
25200.00000	112.38654	2394.13192	112.38654
25250.00000	112.45881	2392.34810	112.45881
25300.00000	112.42041	2389.65056	112.42041
25350.00000	112.27606	2382.46366	112.27606
25400.00000	112.17811	2378.53565	112.17811
25450.00000	112.12328	2376.18049	112.12328
25500.00000	111.88879	2373.53593	111.88879
25550.00000	111.75275	2368.93095	111.75275
25600.00000	111.70519	2366.03343	111.70519
25650.00000	111.51944	2364.17768	111.51944
25700.00000	111.40140	2360.17895	111.40140
25750.00000	111.08064	2356.56004	111.08064
25800.00000	110.93155	2352.57827	110.93155
25850.00000	110.78342	2349.51530	110.78342
25900.00000	110.57970	2345.23778	110.57970
25950.00000	110.26282	2346.24736	110.26282
26000.00000	110.15815	2340.58492	110.15815
26050.00000	109.98416	2338.04381	109.98416
26100.00000	109.77641	2335.07154	109.77641
26150.00000	109.62213	2332.29199	109.62213
26200.00000	109.55879	2329.42497	109.55879
26250.00000	109.23322	2326.47792	109.23322
26300.00000	109.18846	2322.97924	109.18846
26350.00000	108.58851	2321.92466	108.58851
26400.00000	108.52080	2319.10566	108.52080
26450.00000	108.64970	2315.06976	108.64970
26500.00000	108.23760	2312.59887	108.23760
26550.00000	108.05299	2307.22503	108.05299
26600.00000	107.76455	2305.27245	107.76455
26650.00000	107.73015	2305.20179	107.73015
26700.00000	107.55365	2301.72864	107.55365
26750.00000	107.21174	2299.14857	107.21174
26800.00000	106.98937	2293.54982	106.98937
26850.00000	107.14642	2293.33071	107.14642
26900.00000	106.98143	2291.40129	106.98143
26950.00000	106.94714	2287.06423	106.94714
27000.00000	106.36415	2286.51307	106.36415
27050.00000	106.45612	2282.78804	106.45612
27100.00000	105.97106	2282.01661	105.97106
27150.00000	105.86795	2277.71637	105.86795
27200.00000	105.85629	2275.76212	105.85629
27250.00000	105.32159	2274.78482	105.32159
27300.00000	105.05129	2271.24503	105.05129
27350.00000	105.04564	2270.09505	105.04564
27400.00000	104.56725	2267.33363	104.56725
27450.00000	104.41858	2265.93182	104.41858
27500.00000	104.20309	2263.75177	104.20309
27550.00000	104.05198	2261.66657	104.05198
27600.00000	104.15185	2257.98654	104.15185
27650.00000	103.52999	2258.48829	103.52999
27700.00000	103.51443	2253.55316	103.51443
27750.00000	103.34397	2251.25047	103.34397
27800.00000	103.27907	2248.67796	103.27907
27850.00000	103.37270	2250.84608	103.37270
27900.00000	102.71168	2248.76181	102.71168
27950.00000	102.06961	2246.75309	102.06961
28000.00000	102.11873	2246.78378	102.11873
28050.00000	102.51759	2243.89838	102.51759
28100.00000	101.79876	2242.81439	101.79876
28150.00000	101.76770	2242.72584	101.76770
28200.00000	101.82982	2238.16485	101.82982
28250.00000	101.52558	2236.69341	101.52558
28300.00000	101.17630	2237.90719	101.17630
28350.00000	101.20803	2236.78672	101.20803
28400.00000	101.11020	2236.88732	101.11020
28450.00000	101.73544	2234.87960	101.73544
28500.00000	101.13293	2234.27822	101.13293
28550.00000	101.06289	2236.21485	101.06289
28600.00000	101.01128	2234.39737	101.01128
28650.00000	101.22684	2230.05855	101.22684
28700.00000	101.18825	2231.96165	101.18825
28750.00000	101.78157	2232.74715	101.78157
28800.00000	101.60574	2229.86382	101.60574
28850.00000	101.01023	2226.51541	101.01023
28900.00000	101.17628	2226.41929	101.17628
28950.00000	101.16341	2226.43793	101.16341
29000.00000	101.44327	2224.79801	101.44327
29050.00000	101.24801	2225.48216	101.24801
29100.00000	101.22354	2224.79010	101.22354
29150.00000	101.11168	2223.74798	101.11168
29200.00000	101.15904	2221.37177	101.15904
29250.00000	101.56043	2220.26415	101.56043
29300.00000	101.29041	2218.66945	101.29041
29350.00000	101.64995	2216.28522	101.64995
29400.00000	101.45230	2215.72617	101.45230
29450.00000	101.42141	2215.30131	101.42141
29500.00000	101.79078	2214.69148	101.79078
29550.00000	101.53049	2211.54477	101.53049
29600.00000	101.44929	2211.74719	101.44929
29650.00000	101.65803	2209.46378	101.65803
29700.00000	101.56275	2210.74676	101.56275
29750.00000	101.39462	2210.64879	101.39462
29800.00000	101.24171	2208.52188	101.24171
29850.00000	101.37136	2207.03281	101.37136
29900.00000	101.61760	2208.52340	101.61760
29950.00000	100.79839	2208.60359	100.79839
30000.00000	101.24835	2209.09703	101.24835
30050.00000	101.38498	2207.66336	101.38498
30100.00000	101.13760	2209.29480	101.13760
30150.00000	101.30916	2206.57870	101.30916
30200.00000	101.31340	2206.67951	101.31340
30250.00000	101.18416	2207.79816	101.18416
30300.00000	100.96764	2209.08381	100.96764
30350.00000	101.22764	2211.16917	101.22764
30400.00000	101.29980	2209.52563	101.29980
30450.00000	100.98731	2210.61943	100.98731
30500.00000	101.11781	2210.68367	101.11781
30550.00000	101.19936	2213.24403	101.19936
30600.00000	101.32051	2214.30737	101.32051
30650.00000	101.50996	2215.51082	101.50996
30700.00000	101.69336	2215.91555	101.69336
30750.00000	101.65019	2218.21795	101.65019
30800.00000	101.92134	2218.85195	101.92134
30850.00000	102.24158	2221.61077	102.24158
30900.00000	102.30578	2223.83248	102.30578
30950.00000	102.83523	2223.84282	102.83523
31000.00000	103.17110	2223.90768	103.17110
31050.00000	103.61008	2225.58950	103.61008
31100.00000	104.25681	2227.04175	104.25681
31150.00000	104.31715	2226.82104	104.31715
31200.00000	105.13195	2226.99104	105.13195
31250.00000	105.53045	2227.03920	105.53045
31300.00000	106.04919	2226.13863	106.04919
31350.00000	106.57602	2225.43688	106.57602
31400.00000	106.91360	2223.58253	106.91360
31450.00000	107.43045	2222.56476	107.43045
31500.00000	107.83672	2219.86218	107.83672
31550.00000	108.29604	2218.49289	108.29604
31600.00000	108.88067	2215.14435	108.88067
31650.00000	109.19291	2212.75293	109.19291
31700.00000	109.59559	2210.70313	109.59559
31750.00000	109.96149	2208.75535	109.96149
31800.00000	110.21975	2204.72170	110.21975
31850.00000	110.58590	2201.51478	110.58590
31900.00000	110.69532	2199.09322	110.69532
31950.00000	110.99044	2195.85210	110.99044
32000.00000	111.22963	2192.38492	111.22963
32050.00000	111.39085	2189.20344	111.39085
32100.00000	111.50020	2185.67262	111.50020
32150.00000	111.69221	2183.32245	111.69221
32200.00000	111.85384	2179.32183	111.85384
32250.00000	111.90979	2175.90442	111.90979
32300.00000	111.96569	2172.90551	111.96569
32350.00000	112.02119	2170.49611	112.02119
32400.00000	112.13064	2167.67726	112.13064
32450.00000	112.09782	2164.05197	112.09782
32500.00000	112.21661	2161.94011	112.21661
32550.00000	112.32703	2158.24950	112.32703
32600.00000	112.33385	2155.92060	112.33385
32650.00000	112.40797	2152.93488	112.40797
32700.00000	112.31972	2150.20271	112.31972
32750.00000	112.42106	2147.15717	112.42106
32800.00000	112.59647	2145.26343	112.59647
32850.00000	112.68570	2142.38277	112.68570
32900.00000	112.65762	2139.15082	112.65762
32950.00000	112.61221	2135.68891	112.61221
33000.00000	112.70376	2135.23488	112.70376
33050.00000	112.72700	2131.66941	112.72700
33100.00000	112.88399	2129.79122	112.88399
33150.00000	113.07580	2127.81245	113.07580
33200.00000	113.29160	2126.18178	113.29160
33250.00000	113.28330	2123.46530	113.28330
33300.00000	113.45968	2120.05926	113.45968
33350.00000	113.59602	2117.42981	113.59602
33400.00000	113.71003	2115.81638	113.71003
33450.00000	113.99414	2112.18249	113.99414
33500.00000	114.38321	2111.08423	114.38321
33550.00000	114.29594	2106.28310	114.29594
33600.00000	114.81810	2103.88813	114.81810
33650.00000	115.03178	2100.26856	115.03178
33700.00000	115.20403	2097.75790	115.20403
33750.00000	115.33798	2093.87432	115.33798
33800.00000	115.78674	2090.23541	115.78674
33850.00000	115.69255	2086.45759	115.69255
33900.00000	116.12125	2082.12488	116.12125
33950.00000	116.35280	2078.73957	116.35280
34000.00000	116.56622	2074.02214	116.56622
34050.00000	116.65196	2070.01077	116.65196
34100.00000	116.69814	2066.53150	116.69814
34150.00000	116.99892	2061.33337	116.99892
34200.00000	117.10930	2058.45181	117.10930
34250.00000	117.18963	2052.80282	117.18963
34300.00000	117.23144	2048.52754	117.23144
34350.00000	117.42335	2044.01556	117.42335
34400.00000	117.17784	2041.19970	117.17784
34450.00000	117.32275	2034.53495	117.32275
34500.00000	117.27071	2030.85775	117.27071
34550.00000	117.26454	2027.43770	117.26454
34600.00000	116.96506	2022.35296	116.96506
34650.00000	117.33404	2021.16533	117.33404
34700.00000	116.88883	2018.21388	116.88883
34750.00000	117.05176	2010.40603	117.05176
34800.00000	117.17887	2010.35996	117.17887
34850.00000	117.18389	2007.96681	117.18389
34900.00000	117.28737	2002.42052	117.28737
34950.00000	117.10154	2000.59218	117.10154
35000.00000	117.01466	1996.85214	117.01466
35050.00000	117.08217	1994.79831	117.08217
35100.00000	117.12273	1991.38154	117.12273
35150.00000	116.83060	1989.55646	116.83060
35200.00000	116.91363	1985.05190	116.91363
35250.00000	116.92780	1982.13260	116.92780
35300.00000	117.05083	1979.49416	117.05083
35350.00000	117.05452	1976.72299	117.05452
35400.00000	117.02982	1974.09256	117.02982
35450.00000	117.09541	1972.18888	117.09541
35500.00000	116.86385	1969.50138	116.86385
35550.00000	117.23847	1968.13361	117.23847
35600.00000	117.16790	1964.69450	117.16790
35650.00000	117.34224	1962.56140	117.34224
35700.00000	117.35504	1960.23490	117.35504
35750.00000	117.29470	1958.83221	117.29470
35800.00000	117.45801	1957.34847	117.45801
35850.00000	117.69922	1953.65902	117.69922
35900.00000	117.77531	1950.75467	117.77531
35950.00000	118.03284	1948.94389	118.03284
36000.00000	117.96858	1946.98202	117.96858
36050.00000	118.26336	1943.91186	118.26336
36100.00000	118.43267	1941.11070	118.43267
36150.00000	118.45406	1939.01300	118.45406
36200.00000	118.62764	1936.43461	118.62764
36250.00000	118.71414	1933.54048	118.71414
36300.00000	118.68362	1931.69315	118.68362
36350.00000	119.03992	1928.88404	119.03992
36400.00000	119.70355	1925.18373	119.70355
36450.00000	119.02641	1922.90940	119.02641
36500.00000	119.33701	1921.08728	119.33701
36550.00000	119.25954	1917.66865	119.25954
36600.00000	119.41763	1914.94073	119.41763
36650.00000	119.56042	1912.74256	119.56042
36700.00000	119.57989	1909.38877	119.57989
36750.00000	119.69899	1906.75742	119.69899
36800.00000	119.70136	1904.76902	119.70136
36850.00000	119.57018	1901.67723	119.57018
36900.00000	119.88607	1899.02933	119.88607
36950.00000	119.60661	1895.82146	119.60661
37000.00000	119.35254	1894.14302	119.35254
37050.00000	119.39231	1892.36720	119.39231
37100.00000	119.48740	1889.02106	119.48740
37150.00000	119.49412	1886.63783	119.49412
37200.00000	119.65440	1885.57577	119.65440
37250.00000	119.21174	1883.01961	119.21174
37300.00000	119.23131	1880.91994	119.23131
37350.00000	119.40107	1879.56938	119.40107
37400.00000	119.14082	1878.26451	119.14082
37450.00000	118.85376	1875.77413	118.85376
37500.00000	119.41411	1874.49134	119.41411
37550.00000	119.09120	1873.45036	119.09120
37600.00000	119.18447	1871.82443	119.18447
37650.00000	119.07773	1870.34199	119.07773
37700.00000	119.17599	1867.55662	119.17599
37750.00000	119.25115	1867.45947	119.25115
37800.00000	119.10279	1864.78425	119.10279
37850.00000	119.19909	1861.59478	119.19909
37900.00000	119.15694	1861.10897	119.15694
37950.00000	119.29759	1860.03670	119.29759
38000.00000	119.27234	1858.24235	119.27234
38050.00000	119.34916	1855.81493	119.34916
38100.00000	119.45154	1853.45761	119.45154
38150.00000	119.47781	1851.29459	119.47781
38200.00000	119.62458	1848.09577	119.62458
38250.00000	119.65992	1846.17819	119.65992
38300.00000	119.80993	1843.13558	119.80993
38350.00000	119.75835	1840.87450	119.75835
38400.00000	119.88984	1837.83505	119.88984
38450.00000	119.92314	1834.22854	119.92314
38500.00000	120.04028	1830.84420	120.04028
38550.00000	120.13608	1828.25283	120.13608
38600.00000	120.13962	1824.59688	120.13962
38650.00000	120.21181	1820.79491	120.21181
38700.00000	120.13573	1816.59812	120.13573
38750.00000	120.14805	1813.11672	120.14805
38800.00000	120.18050	1809.70177	120.18050
38850.00000	120.06376	1805.17699	120.06376
38900.00000	120.03610	1801.55711	120.03610
38950.00000	119.93043	1797.43776	119.93043
39000.00000	119.82054	1793.36356	119.82054
39050.00000	119.80915	1789.97222	119.80915
39100.00000	119.53497	1786.14941	119.53497
39150.00000	119.37797	1782.17719	119.37797
39200.00000	119.28138	1779.15157	119.28138
39250.00000	119.12633	1774.88547	119.12633
39300.00000	118.97834	1771.58676	118.97834
39350.00000	118.76579	1768.32839	118.76579
39400.00000	118.63531	1764.70929	118.63531
39450.00000	118.42298	1762.01640	118.42298
39500.00000	118.32486	1758.23978	118.32486
39550.00000	118.15348	1755.24093	118.15348
39600.00000	117.92563	1752.17125	117.92563
39650.00000	117.83665	1749.10399	117.83665
39700.00000	117.65037	1746.46351	117.65037
39750.00000	117.53720	1742.56296	117.53720
39800.00000	117.39079	1739.65621	117.39079
39850.00000	117.18002	1736.77002	117.18002
39900.00000	117.09160	1734.12752	117.09160
39950.00000	116.98293	1731.46377	116.98293
40000.00000	116.76258	1729.77985	116.76258
40050.00000	116.77335	1725.61591	116.77335
40100.00000	116.59313	1722.69952	116.59313
40150.00000	116.42868	1719.35939	116.42868
40200.00000	116.34497	1716.64904	116.34497
40250.00000	116.15515	1713.73029	116.15515
40300.00000	116.15316	1711.69486	116.15316
40350.00000	115.78861	1709.30612	115.78861
40400.00000	115.65105	1707.03227	115.65105
40450.00000	115.52085	1705.26944	115.52085
40500.00000	115.60778	1702.90711	115.60778
40550.00000	115.39939	1700.26687	115.39939
40600.00000	115.28788	1698.69622	115.28788
40650.00000	115.16585	1697.28019	115.16585
40700.00000	114.94891	1696.13253	114.94891
40750.00000	115.14046	1693.75265	115.14046
40800.00000	115.01488	1692.39316	115.01488
40850.00000	114.88516	1691.02625	114.88516
40900.00000	114.87339	1689.20238	114.87339
40950.00000	114.68417	1688.99882	114.68417
41000.00000	114.60174	1687.73851	114.60174
41050.00000	114.71180	1687.04383	114.71180
41100.00000	114.91456	1685.32785	114.91456
41150.00000	115.00355	1685.96555	115.00355
41200.00000	115.11415	1684.66910	115.11415
41250.00000	115.06148	1681.57527	115.06148
41300.00000	115.01680	1682.48430	115.01680
41350.00000	115.26916	1683.02834	115.26916
41400.00000	115.50497	1677.13908	115.50497
41450.00000	115.72845	1679.66919	115.72845
41500.00000	115.63443	1678.15228	115.63443
41550.00000	115.75114	1681.33593	115.75114
41600.00000	115.63508	1678.20615	115.63508
41650.00000	116.29629	1675.29626	116.29629
41700.00000	116.57854	1676.01832	116.57854
41750.00000	116.54581	1678.85617	116.54581
41800.00000	115.96440	1673.19127	115.96440
41850.00000	116.16373	1673.36338	116.16373
41900.00000	116.18523	1673.37057	116.18523
41950.00000	117.50614	1677.01536	117.50614
42000.00000	116.71308	1669.78617	116.71308
42050.00000	115.91345	1669.05325	115.91345
42100.00000	116.56449	1668.32174	116.56449
42150.00000	116.35841	1663.39838	116.35841
42200.00000	116.34698	1669.28578	116.34698
42250.00000	116.53124	1668.20666	116.53124
42300.00000	115.62496	1663.77954	115.62496
42350.00000	116.34504	1664.53550	116.34504
42400.00000	116.14282	1665.54401	116.14282
42450.00000	116.77746	1660.05017	116.77746
42500.00000	116.03701	1659.82207	116.03701
42550.00000	116.36710	1669.26299	116.36710
42600.00000	115.85431	1660.83776	115.85431
42650.00000	115.63608	1662.04415	115.63608
42700.00000	115.57449	1659.25115	115.57449
42750.00000	116.22155	1657.42326	116.22155
42800.00000	115.67408	1649.74889	115.67408
42850.00000	115.22393	1648.29013	115.22393
42900.00000	116.13569	1653.74725	116.13569
42950.00000	115.17821	1649.05658	115.17821
43000.00000	115.63129	1640.31396	115.63129
43050.00000	114.99605	1638.90996	114.99605
43100.00000	115.24341	1642.36047	115.24341
43150.00000	114.15446	1639.09058	114.15446
43200.00000	114.55714	1635.06431	114.55714
43250.00000	114.41819	1633.22807	114.41819
43300.00000	114.33598	1631.40709	114.33598
43350.00000	114.74639	1627.36634	114.74639
43400.00000	114.28851	1624.68899	114.28851
43450.00000	114.79566	1626.02858	114.79566
43500.00000	113.45043	1617.18278	113.45043
43550.00000	114.04007	1614.29386	114.04007
43600.00000	113.53582	1609.01521	113.53582
43650.00000	113.74381	1601.05399	113.74381
43700.00000	113.33621	1600.94375	113.33621
43750.00000	112.51218	1599.96987	112.51218
43800.00000	112.68270	1592.55398	112.68270
43850.00000	113.08405	1586.35094	113.08405
43900.00000	112.91248	1586.15293	112.91248
43950.00000	112.70377	1580.95372	112.70377
44000.00000	111.78527	1576.29227	111.78527
44050.00000	112.03829	1571.08836	112.03829
44100.00000	112.00985	1562.14830	112.00985
44150.00000	111.32634	1562.66533	111.32634
44200.00000	110.87535	1561.59249	110.87535
44250.00000	111.14474	1555.28108	111.14474
44300.00000	111.20593	1548.90150	111.20593
44350.00000	109.96462	1547.52444	109.96462
44400.00000	110.44677	1543.39649	110.44677
44450.00000	110.59140	1541.23841	110.59140
44500.00000	109.91328	1537.30961	109.91328
44550.00000	110.92659	1526.89487	110.92659
44600.00000	109.72026	1529.51849	109.72026
44650.00000	109.22190	1519.41205	109.22190
44700.00000	108.94681	1517.03354	108.94681
44750.00000	108.87303	1516.25195	108.87303
44800.00000	109.34017	1509.63881	109.34017
44850.00000	108.85399	1503.36929	108.85399
44900.00000	108.62834	1504.11127	108.62834
44950.00000	108.92599	1499.04266	108.92599
45000.00000	108.95327	1488.28158	108.95327
45050.00000	107.11627	1494.89825	107.11627
45100.00000	107.62385	1485.09063	107.62385
45150.00000	107.57466	1473.92850	107.57466
45200.00000	107.43582	1479.86196	107.43582
45250.00000	107.27004	1471.65943	107.27004
45300.00000	107.05472	1464.24712	107.05472
45350.00000	106.78045	1457.45959	106.78045
45400.00000	106.75194	1454.38339	106.75194
45450.00000	106.97530	1447.18840	106.97530
45500.00000	105.11256	1438.60790	105.11256
45550.00000	104.80317	1445.83022	104.80317
45600.00000	106.48830	1431.59393	106.48830
45650.00000	104.39510	1425.15344	104.39510
45700.00000	104.31949	1420.76332	104.31949
45750.00000	104.93090	1421.82281	104.93090
45800.00000	104.02469	1410.18039	104.02469
45850.00000	103.34009	1407.36912	103.34009
45900.00000	103.47331	1400.04545	103.47331
45950.00000	102.85190	1400.24512	102.85190
46000.00000	101.53028	1384.28315	101.53028
46050.00000	101.88593	1383.01519	101.88593
46100.00000	100.34607	1382.50899	100.34607
46150.00000	99.89636	1377.87497	99.89636
46200.00000	98.04946	1365.88073	98.04946
46250.00000	99.44109	1365.96140	99.44109
46300.00000	97.86062	1364.49209	97.86062
46350.00000	99.11206	1357.06335	99.11206
46400.00000	96.97358	1349.48960	96.97358
46450.00000	94.86532	1353.73719	94.86532
46500.00000	96.17043	1352.63134	96.17043
46550.00000	94.78149	1352.57121	94.78149
46600.00000	95.10442	1353.02242	95.10442
46650.00000	92.25218	1344.86002	92.25218
46700.00000	91.92984	1357.11244	91.92984
46750.00000	92.31694	1360.40386	92.31694
46800.00000	90.11432	1337.40665	90.11432
46850.00000	91.53060	1002.16595	91.53060
46900.00000	91.20070	991.46562	91.20070
46950.00000	91.64628	991.37517	91.64628
47000.00000	91.25996	995.78243	91.25996
47050.00000	93.80466	984.75629	93.80466
47100.00000	92.13816	985.35708	92.13816
47150.00000	91.45985	977.49224	91.45985
47200.00000	91.45561	976.82720	91.45561
47250.00000	92.70901	979.42527	92.70901
47300.00000	92.27402	963.68579	92.27402
47350.00000	90.97460	619.87372	90.97460
47400.00000	90.88431	611.98660	90.88431
47450.00000	91.59002	614.63499	91.59002
47500.00000	89.71855	607.94726	89.71855
47550.00000	88.77988	249.73844	88.77988
47600.00000	89.77481	249.01122	89.77481
47650.00000	90.00070	248.24723	90.00070
47700.00000	89.58872	252.67649	89.58872
47750.00000	88.05718	251.68299	88.05718
47800.00000	89.55423	226.04624	89.55423
47850.00000	90.80900	-115.77350	90.80900
47900.00000	89.69639	-471.78011	89.69639
47950.00000	90.65537	-478.82306	90.65537
48000.00000	89.68376	-479.98194	89.68376
48050.00000	91.91831	-493.39597	91.91831
48100.00000	90.32799	-493.22527	90.32799
48150.00000	91.30411	-852.11859	91.30411
48200.00000	91.77914	-857.21488	91.77914
48250.00000	91.85630	-866.62455	91.85630
48300.00000	90.91150	-870.20587	90.91150
48350.00000	90.99102	-877.63340	90.99102
48400.00000	92.28917	-1224.74874	92.28917
48450.00000	91.00379	-1236.11621	91.00379
48500.00000	91.87613	-1236.78266	91.87613
48550.00000	88.49005	-1253.55054	88.49005
48600.00000	90.93533	-1598.36122	90.93533
48650.00000	90.94652	-1603.31839	90.94652
48700.00000	91.20836	-1616.61425	91.20836
48750.00000	90.95911	-1966.52384	90.95911
48800.00000	89.54748	-1970.90341	89.54748
48850.00000	90.22622	-1979.81877	90.22622
48900.00000	89.34150	-2333.11092	89.34150
48950.00000	90.48212	-2353.76501	90.48212
49000.00000	90.12625	-2352.68722	90.12625
49050.00000	90.55653	-2354.73800	90.55653
49100.00000	89.32106	-2717.57942	89.32106
49150.00000	90.17990	-3072.80677	90.17990
49200.00000	88.77537	-3089.82819	88.77537
49250.00000	91.12334	-3447.08825	91.12334
49300.00000	90.00188	-3113.62227	90.00188
49350.00000	89.39439	-3079.20951	89.39439
49400.00000	90.79501	-2742.73805	90.79501
49450.00000	89.15123	-2378.24358	89.15123
49500.00000	90.72862	-2050.08489	90.72862
49550.00000	91.18721	-1686.19807	91.18721
49600.00000	90.18287	-1663.22001	90.18287
49650.00000	91.29234	-1692.06606	91.29234
49700.00000	91.45119	-1351.95605	91.45119
49750.00000	94.03538	-1332.47751	94.03538
49800.00000	92.00915	-1329.08106	92.00915
49850.00000	90.93464	-1343.26399	90.93464
49900.00000	92.15369	-995.09154	92.15369
49950.00000	94.98595	-675.42638	94.98595
