---ACOUSTIC CALIBRATION---
Filename: C:\Data\AZH DATA\AZH52\RightPrimary.calib
Date: 8/27/2019 6:36:03 PM
Format: 4
Probe Tube Correction File: C:\Data\Probe Tube Calibrations\50_ProbeTube.calib
Experiment VIs: 850
EPL_CFTS.exe V12.0.1 (2012)
DAQmx V9.6

Attenuation (dB): 40.000000
Min Freq (Hz): 50.000000
Max Freq (Hz): 49950.000000
Freq Step (Hz): 50.000000
Sample Rate (Hz): 100000.000000
[Smoothing]
Method=None
MA.Iterations=0
MA.Length=0
Loess.Length=0
Loess.Type=Linear
Loess.Robust=FALSE


Freq(Hz)	Mag(dB)	Phase(deg)	Unsmoothed(dB)

50.00000	109.50125	315.71962	109.50125
100.00000	81.65524	138.45314	81.65524
150.00000	70.71730	164.34098	70.71730
200.00000	79.80937	41.87301	79.80937
250.00000	85.23919	76.84545	85.23919
300.00000	85.38794	-20.91903	85.38794
350.00000	85.48842	15.46227	85.48842
400.00000	84.57615	33.00809	84.57615
450.00000	82.94563	17.01091	82.94563
500.00000	90.63599	30.28157	90.63599
550.00000	91.62842	25.41763	91.62842
600.00000	94.56092	13.07075	94.56092
650.00000	95.76026	-4.23555	95.76026
700.00000	98.17979	-17.40655	98.17979
750.00000	99.70954	-39.10681	99.70954
800.00000	99.96555	-61.17477	99.96555
850.00000	99.87816	-78.21059	99.87816
900.00000	97.93317	-95.62373	97.93317
950.00000	96.20694	-98.13012	96.20694
1000.00000	94.93378	-98.60748	94.93378
1050.00000	92.59218	-80.69842	92.59218
1100.00000	95.09830	-58.13681	95.09830
1150.00000	98.04419	-56.59140	98.04419
1200.00000	100.66590	-57.94678	100.66590
1250.00000	102.27743	-67.92579	102.27743
1300.00000	103.70513	-72.08699	103.70513
1350.00000	105.08298	-83.52645	105.08298
1400.00000	105.65619	-90.37671	105.65619
1450.00000	106.84402	-96.21375	106.84402
1500.00000	107.82643	-105.57237	107.82643
1550.00000	108.80000	-112.18581	108.80000
1600.00000	110.25869	-123.11638	110.25869
1650.00000	111.04688	-139.63889	111.04688
1700.00000	109.81497	-149.52374	109.81497
1750.00000	109.45200	-155.01947	109.45200
1800.00000	109.08824	-158.78254	109.08824
1850.00000	109.25594	-159.40546	109.25594
1900.00000	110.45467	-162.78732	110.45467
1950.00000	111.18297	-176.43952	111.18297
2000.00000	110.20349	-187.89575	110.20349
2050.00000	109.13760	-182.23284	109.13760
2100.00000	110.95214	-185.11324	110.95214
2150.00000	111.49317	-196.44435	111.49317
2200.00000	111.35252	-205.66950	111.35252
2250.00000	110.78708	-213.15445	110.78708
2300.00000	110.86760	-218.12206	110.86760
2350.00000	110.70166	-224.93268	110.70166
2400.00000	110.39146	-230.59291	110.39146
2450.00000	110.15587	-236.87516	110.15587
2500.00000	109.75540	-242.27594	109.75540
2550.00000	109.31662	-247.14073	109.31662
2600.00000	108.79627	-251.82322	108.79627
2650.00000	108.23816	-256.00469	108.23816
2700.00000	107.74214	-259.65028	107.74214
2750.00000	107.07323	-262.96323	107.07323
2800.00000	106.47143	-265.89444	106.47143
2850.00000	105.89984	-267.90671	105.89984
2900.00000	105.23440	-270.20924	105.23440
2950.00000	104.54587	-271.10346	104.54587
3000.00000	103.76267	-272.21241	103.76267
3050.00000	102.98495	-272.95977	102.98495
3100.00000	102.07941	-271.49657	102.07941
3150.00000	100.82526	-269.43676	100.82526
3200.00000	99.57478	-262.30485	99.57478
3250.00000	98.78338	-250.33468	98.78338
3300.00000	98.43606	-236.60606	98.43606
3350.00000	99.18665	-218.83764	99.18665
3400.00000	101.41707	-204.62404	101.41707
3450.00000	103.98901	-199.15903	103.98901
3500.00000	106.49570	-199.47316	106.49570
3550.00000	108.41362	-203.43955	108.41362
3600.00000	110.08235	-207.29682	110.08235
3650.00000	111.46787	-212.67964	111.46787
3700.00000	112.72991	-217.37160	112.72991
3750.00000	114.05145	-222.89474	114.05145
3800.00000	115.24061	-229.40927	115.24061
3850.00000	116.25671	-236.36614	116.25671
3900.00000	117.17552	-243.17145	117.17552
3950.00000	118.08245	-250.32685	118.08245
4000.00000	118.88846	-257.80013	118.88846
4050.00000	119.66201	-265.08898	119.66201
4100.00000	120.46487	-272.54186	120.46487
4150.00000	121.45436	-280.79999	121.45436
4200.00000	122.15960	-290.73457	122.15960
4250.00000	122.84194	-301.71510	122.84194
4300.00000	123.26774	-313.72356	123.26774
4350.00000	123.38865	-325.98287	123.38865
4400.00000	123.24363	-337.47238	123.24363
4450.00000	122.93103	-348.05362	122.93103
4500.00000	122.53361	-357.69321	122.53361
4550.00000	122.11217	-366.47804	122.11217
4600.00000	121.65261	-374.86882	121.65261
4650.00000	121.22784	-382.86128	121.22784
4700.00000	120.75740	-391.22295	120.75740
4750.00000	120.14564	-399.92575	120.14564
4800.00000	119.31539	-408.65244	119.31539
4850.00000	118.18726	-416.35476	118.18726
4900.00000	116.85775	-422.00084	116.85775
4950.00000	115.49003	-424.97748	115.49003
5000.00000	114.24559	-425.85647	114.24559
5050.00000	113.12547	-425.45597	113.12547
5100.00000	111.96514	-421.20139	111.96514
5150.00000	111.94569	-416.50396	111.94569
5200.00000	111.15132	-410.74812	111.15132
5250.00000	112.84807	-399.03505	112.84807
5300.00000	115.02079	-408.55665	115.02079
5350.00000	115.10019	-420.97504	115.10019
5400.00000	114.55272	-428.22777	114.55272
5450.00000	114.04143	-432.53570	114.04143
5500.00000	113.63217	-435.74258	113.63217
5550.00000	113.31479	-438.38260	113.31479
5600.00000	113.05310	-440.88166	113.05310
5650.00000	112.83339	-443.31235	112.83339
5700.00000	112.62340	-445.80258	112.62340
5750.00000	112.46174	-448.11141	112.46174
5800.00000	112.28536	-450.49229	112.28536
5850.00000	112.14862	-452.88737	112.14862
5900.00000	112.02421	-455.26139	112.02421
5950.00000	111.88971	-457.60548	111.88971
6000.00000	111.77387	-459.71949	111.77387
6050.00000	111.65293	-461.96999	111.65293
6100.00000	111.57849	-464.19006	111.57849
6150.00000	111.49644	-466.42840	111.49644
6200.00000	111.43960	-468.81907	111.43960
6250.00000	111.39748	-471.41098	111.39748
6300.00000	111.35354	-474.04339	111.35354
6350.00000	111.27256	-476.79661	111.27256
6400.00000	111.18276	-479.40589	111.18276
6450.00000	111.11370	-482.02089	111.11370
6500.00000	111.01495	-484.69493	111.01495
6550.00000	110.92041	-487.26176	110.92041
6600.00000	110.85724	-489.77467	110.85724
6650.00000	110.77891	-492.29173	110.77891
6700.00000	110.70894	-494.90355	110.70894
6750.00000	110.66212	-497.40859	110.66212
6800.00000	110.60007	-499.91959	110.60007
6850.00000	110.56527	-502.38485	110.56527
6900.00000	110.51433	-504.98862	110.51433
6950.00000	110.47048	-507.51210	110.47048
7000.00000	110.44920	-510.19110	110.44920
7050.00000	110.40649	-512.96885	110.40649
7100.00000	110.37501	-515.78773	110.37501
7150.00000	110.34839	-518.53220	110.34839
7200.00000	110.30763	-521.48709	110.30763
7250.00000	110.24813	-524.56321	110.24813
7300.00000	110.22268	-527.66867	110.22268
7350.00000	110.15318	-530.68118	110.15318
7400.00000	110.09256	-533.86542	110.09256
7450.00000	110.00231	-537.04015	110.00231
7500.00000	109.92944	-539.96469	109.92944
7550.00000	109.84791	-543.38836	109.84791
7600.00000	109.72948	-546.55996	109.72948
7650.00000	109.61544	-549.67237	109.61544
7700.00000	109.52243	-552.73708	109.52243
7750.00000	109.37026	-555.78091	109.37026
7800.00000	109.23422	-558.82067	109.23422
7850.00000	109.09520	-561.72038	109.09520
7900.00000	108.98497	-564.56791	108.98497
7950.00000	108.83221	-567.56447	108.83221
8000.00000	108.70684	-570.53477	108.70684
8050.00000	108.55675	-573.85755	108.55675
8100.00000	108.42616	-576.47375	108.42616
8150.00000	108.21225	-579.39029	108.21225
8200.00000	108.07112	-581.99776	108.07112
8250.00000	107.89704	-585.05784	107.89704
8300.00000	107.73534	-587.87880	107.73534
8350.00000	107.53608	-590.54159	107.53608
8400.00000	107.32392	-593.60012	107.32392
8450.00000	107.07637	-596.42926	107.07637
8500.00000	106.84776	-599.16943	106.84776
8550.00000	106.65044	-601.88613	106.65044
8600.00000	106.43146	-604.73100	106.43146
8650.00000	106.18531	-607.49679	106.18531
8700.00000	105.99681	-610.68413	105.99681
8750.00000	105.71132	-612.30080	105.71132
8800.00000	105.50791	-615.04004	105.50791
8850.00000	105.25118	-617.42769	105.25118
8900.00000	105.00257	-619.39008	105.00257
8950.00000	104.73321	-621.83935	104.73321
9000.00000	104.40597	-623.94836	104.40597
9050.00000	104.18669	-626.30910	104.18669
9100.00000	103.94735	-628.58065	103.94735
9150.00000	103.72800	-630.90181	103.72800
9200.00000	103.58078	-633.53077	103.58078
9250.00000	103.36373	-636.08603	103.36373
9300.00000	103.26323	-638.47960	103.26323
9350.00000	103.17264	-640.71602	103.17264
9400.00000	102.97716	-642.25906	102.97716
9450.00000	102.86461	-643.72727	102.86461
9500.00000	102.77385	-644.30586	102.77385
9550.00000	102.75721	-645.12539	102.75721
9600.00000	102.71693	-646.87913	102.71693
9650.00000	102.54253	-648.83965	102.54253
9700.00000	102.35394	-650.14109	102.35394
9750.00000	102.22103	-652.79581	102.22103
9800.00000	102.00091	-654.57833	102.00091
9850.00000	101.87864	-656.17061	101.87864
9900.00000	101.62996	-658.64365	101.62996
9950.00000	101.51300	-660.12308	101.51300
10000.00000	101.43795	-662.25101	101.43795
10050.00000	101.35262	-663.95636	101.35262
10100.00000	101.24165	-665.44937	101.24165
10150.00000	101.01018	-667.64685	101.01018
10200.00000	100.86664	-669.26154	100.86664
10250.00000	100.65354	-671.38764	100.65354
10300.00000	100.58548	-673.61663	100.58548
10350.00000	100.38147	-675.68231	100.38147
10400.00000	100.16288	-678.54855	100.16288
10450.00000	100.11200	-681.42039	100.11200
10500.00000	100.06070	-684.07044	100.06070
10550.00000	100.01464	-686.65637	100.01464
10600.00000	99.93301	-688.92446	99.93301
10650.00000	99.83151	-690.73669	99.83151
10700.00000	99.75106	-693.61672	99.75106
10750.00000	99.67690	-695.82672	99.67690
10800.00000	99.47145	-697.69032	99.47145
10850.00000	99.27452	-700.72602	99.27452
10900.00000	99.10733	-702.89280	99.10733
10950.00000	98.93604	-704.90792	98.93604
11000.00000	98.75296	-707.42020	98.75296
11050.00000	98.40033	-709.68484	98.40033
11100.00000	98.18458	-712.29489	98.18458
11150.00000	97.87082	-714.33488	97.87082
11200.00000	97.68776	-716.24209	97.68776
11250.00000	97.36070	-718.52448	97.36070
11300.00000	97.02428	-720.69122	97.02428
11350.00000	96.74310	-722.21164	96.74310
11400.00000	96.38252	-724.05656	96.38252
11450.00000	96.13244	-726.29895	96.13244
11500.00000	95.96837	-727.38850	95.96837
11550.00000	95.61476	-728.68133	95.61476
11600.00000	95.47044	-730.62655	95.47044
11650.00000	95.21308	-730.69523	95.21308
11700.00000	95.07119	-731.75939	95.07119
11750.00000	94.91733	-733.06482	94.91733
11800.00000	94.75950	-734.65378	94.75950
11850.00000	94.63085	-734.70438	94.63085
11900.00000	94.30645	-736.62693	94.30645
11950.00000	94.16839	-737.62441	94.16839
12000.00000	93.95333	-738.63288	93.95333
12050.00000	93.72888	-739.51841	93.72888
12100.00000	93.64626	-741.64155	93.64626
12150.00000	93.54634	-743.01034	93.54634
12200.00000	93.47590	-744.72209	93.47590
12250.00000	93.31291	-745.62475	93.31291
12300.00000	94.28574	-747.68431	94.28574
12350.00000	92.99819	-749.19471	92.99819
12400.00000	92.78697	-750.30617	92.78697
12450.00000	92.60187	-751.72267	92.60187
12500.00000	92.42017	-753.67259	92.42017
12550.00000	92.24694	-755.63321	92.24694
12600.00000	91.95874	-757.29781	91.95874
12650.00000	91.90219	-758.30018	91.90219
12700.00000	91.53400	-760.31707	91.53400
12750.00000	91.28285	-762.11897	91.28285
12800.00000	90.99003	-763.00215	90.99003
12850.00000	90.43772	-764.09437	90.43772
12900.00000	90.19282	-765.61230	90.19282
12950.00000	89.98132	-766.71450	89.98132
13000.00000	89.57362	-767.94101	89.57362
13050.00000	89.29989	-768.22480	89.29989
13100.00000	88.85975	-769.27602	88.85975
13150.00000	88.65446	-770.01990	88.65446
13200.00000	88.37566	-769.02329	88.37566
13250.00000	88.12754	-769.12086	88.12754
13300.00000	87.78730	-766.31412	87.78730
13350.00000	87.38490	-766.42167	87.38490
13400.00000	87.20536	-765.92365	87.20536
13450.00000	86.79935	-764.48282	86.79935
13500.00000	86.80044	-762.75441	86.80044
13550.00000	86.56817	-761.67023	86.56817
13600.00000	86.55470	-760.32739	86.55470
13650.00000	86.38852	-758.57504	86.38852
13700.00000	86.14813	-757.48656	86.14813
13750.00000	85.90849	-755.68212	85.90849
13800.00000	85.96909	-757.21078	85.96909
13850.00000	86.09245	-757.91589	86.09245
13900.00000	86.21882	-755.07259	86.21882
13950.00000	86.39433	-753.24818	86.39433
14000.00000	86.70311	-750.64636	86.70311
14050.00000	86.75399	-749.95652	86.75399
14100.00000	86.72622	-748.50180	86.72622
14150.00000	86.97478	-749.54258	86.97478
14200.00000	87.38109	-748.95931	87.38109
14250.00000	88.01963	-747.15436	88.01963
14300.00000	88.09281	-747.10264	88.09281
14350.00000	88.25671	-745.60686	88.25671
14400.00000	88.34165	-745.70509	88.34165
14450.00000	88.44622	-744.65172	88.44622
14500.00000	88.61803	-746.82489	88.61803
14550.00000	89.00427	-746.82895	89.00427
14600.00000	89.22324	-748.08448	89.22324
14650.00000	89.53351	-746.66194	89.53351
14700.00000	89.88298	-751.55360	89.88298
14750.00000	90.14203	-751.41467	90.14203
14800.00000	90.25849	-751.80955	90.25849
14850.00000	90.64008	-752.80188	90.64008
14900.00000	91.03902	-753.28932	91.03902
14950.00000	91.30430	-754.82680	91.30430
15000.00000	91.59886	-755.68937	91.59886
15050.00000	91.68674	-755.91483	91.68674
15100.00000	91.95691	-756.63295	91.95691
15150.00000	92.25365	-759.39801	92.25365
15200.00000	92.45069	-759.52026	92.45069
15250.00000	92.38537	-761.40968	92.38537
15300.00000	92.83310	-763.54711	92.83310
15350.00000	92.93274	-766.04142	92.93274
15400.00000	93.10937	-766.19782	93.10937
15450.00000	93.19809	-768.15547	93.19809
15500.00000	93.37055	-769.61320	93.37055
15550.00000	93.59853	-771.14411	93.59853
15600.00000	93.67514	-773.05702	93.67514
15650.00000	93.96100	-773.23412	93.96100
15700.00000	94.00368	-775.66080	94.00368
15750.00000	94.25995	-776.49555	94.25995
15800.00000	94.43838	-777.23092	94.43838
15850.00000	94.49485	-778.91874	94.49485
15900.00000	94.57287	-780.06470	94.57287
15950.00000	94.78381	-781.81251	94.78381
16000.00000	94.95694	-783.05479	94.95694
16050.00000	95.25424	-783.44763	95.25424
16100.00000	95.25200	-785.23957	95.25200
16150.00000	95.40202	-786.15191	95.40202
16200.00000	95.71982	-788.00455	95.71982
16250.00000	95.86706	-788.99552	95.86706
16300.00000	96.28945	-790.43271	96.28945
16350.00000	96.49827	-791.11637	96.49827
16400.00000	96.72511	-792.49173	96.72511
16450.00000	97.05078	-793.99412	97.05078
16500.00000	97.30996	-795.59828	97.30996
16550.00000	97.64849	-797.87492	97.64849
16600.00000	97.99235	-799.76714	97.99235
16650.00000	98.25462	-801.55000	98.25462
16700.00000	98.53058	-803.77340	98.53058
16750.00000	98.78661	-806.54460	98.78661
16800.00000	99.01215	-809.05096	99.01215
16850.00000	99.38352	-811.75849	99.38352
16900.00000	99.65971	-814.64981	99.65971
16950.00000	99.90400	-817.05097	99.90400
17000.00000	100.00060	-820.02679	100.00060
17050.00000	100.20182	-822.44362	100.20182
17100.00000	100.28638	-824.57819	100.28638
17150.00000	100.66458	-828.46418	100.66458
17200.00000	100.84246	-830.74405	100.84246
17250.00000	100.93369	-834.11067	100.93369
17300.00000	101.14570	-836.78017	101.14570
17350.00000	101.13772	-839.45356	101.13772
17400.00000	101.35043	-842.70338	101.35043
17450.00000	101.43074	-846.07646	101.43074
17500.00000	101.59852	-848.59747	101.59852
17550.00000	101.67869	-851.35042	101.67869
17600.00000	101.83916	-853.89293	101.83916
17650.00000	101.89948	-857.43669	101.89948
17700.00000	101.98100	-860.57775	101.98100
17750.00000	102.18414	-862.80371	102.18414
17800.00000	102.13785	-866.06932	102.13785
17850.00000	102.24159	-868.74189	102.24159
17900.00000	102.30691	-871.44790	102.30691
17950.00000	102.40901	-874.84068	102.40901
18000.00000	102.46874	-878.15466	102.46874
18050.00000	102.65562	-880.55691	102.65562
18100.00000	102.63895	-884.03127	102.63895
18150.00000	102.69881	-886.34413	102.69881
18200.00000	102.67101	-889.53773	102.67101
18250.00000	102.77017	-892.09341	102.77017
18300.00000	102.87572	-894.74030	102.87572
18350.00000	102.86236	-897.60193	102.86236
18400.00000	102.92158	-900.84812	102.92158
18450.00000	102.89364	-904.37865	102.89364
18500.00000	102.92598	-907.22200	102.92598
18550.00000	102.89590	-909.55347	102.89590
18600.00000	103.01921	-912.76640	103.01921
18650.00000	102.90056	-915.38916	102.90056
18700.00000	102.92882	-918.33787	102.92882
18750.00000	102.93186	-920.88597	102.93186
18800.00000	103.05450	-923.21967	103.05450
18850.00000	102.93136	-926.10818	102.93136
18900.00000	102.94956	-928.61727	102.94956
18950.00000	102.97925	-931.60698	102.97925
19000.00000	102.83645	-933.91236	102.83645
19050.00000	102.98143	-936.49182	102.98143
19100.00000	102.92739	-938.81921	102.92739
19150.00000	103.06752	-941.37382	103.06752
19200.00000	103.06800	-943.58671	103.06800
19250.00000	103.06969	-947.24614	103.06969
19300.00000	103.01547	-949.14992	103.01547
19350.00000	103.08003	-951.54874	103.08003
19400.00000	103.05572	-954.13481	103.05572
19450.00000	103.17765	-956.18882	103.17765
19500.00000	103.11560	-959.69845	103.11560
19550.00000	103.19281	-962.05531	103.19281
19600.00000	103.29970	-965.23851	103.29970
19650.00000	103.23274	-967.33484	103.23274
19700.00000	103.16046	-970.34858	103.16046
19750.00000	103.18123	-972.55432	103.18123
19800.00000	103.31032	-976.23519	103.31032
19850.00000	103.32890	-978.66100	103.32890
19900.00000	103.28060	-982.20626	103.28060
19950.00000	103.26243	-985.02018	103.26243
20000.00000	103.26070	-987.97878	103.26070
20050.00000	103.26974	-990.90035	103.26974
20100.00000	103.14383	-993.94071	103.14383
20150.00000	103.16516	-996.10517	103.16516
20200.00000	103.07539	-999.56162	103.07539
20250.00000	102.94272	-1002.36682	102.94272
20300.00000	102.78586	-1005.24156	102.78586
20350.00000	102.78835	-1008.16993	102.78835
20400.00000	102.62003	-1010.05785	102.62003
20450.00000	102.40458	-1012.68977	102.40458
20500.00000	102.33140	-1015.50833	102.33140
20550.00000	101.97934	-1017.06983	101.97934
20600.00000	101.92740	-1018.97825	101.92740
20650.00000	101.78239	-1020.98189	101.78239
20700.00000	101.59188	-1022.59590	101.59188
20750.00000	101.49359	-1024.15416	101.49359
20800.00000	101.32751	-1025.28243	101.32751
20850.00000	101.29437	-1026.62095	101.29437
20900.00000	101.15200	-1027.57308	101.15200
20950.00000	101.05195	-1028.08011	101.05195
21000.00000	101.03240	-1028.96086	101.03240
21050.00000	101.19915	-1029.31687	101.19915
21100.00000	101.23030	-1029.75653	101.23030
21150.00000	101.40146	-1030.96395	101.40146
21200.00000	101.58101	-1031.75785	101.58101
21250.00000	101.74056	-1034.09210	101.74056
21300.00000	101.97275	-1035.20275	101.97275
21350.00000	102.15664	-1036.86924	102.15664
21400.00000	102.33287	-1039.26877	102.33287
21450.00000	102.54256	-1041.64398	102.54256
21500.00000	102.70160	-1044.55903	102.70160
21550.00000	102.73180	-1047.03334	102.73180
21600.00000	102.93916	-1049.90656	102.93916
21650.00000	102.99967	-1053.11723	102.99967
21700.00000	103.04619	-1055.77379	103.04619
21750.00000	103.07835	-1058.92478	103.07835
21800.00000	103.11261	-1061.84528	103.11261
21850.00000	103.00701	-1064.56159	103.00701
21900.00000	103.03916	-1067.45903	103.03916
21950.00000	102.97345	-1069.90389	102.97345
22000.00000	103.00796	-1072.54879	103.00796
22050.00000	102.91925	-1074.67042	102.91925
22100.00000	102.84498	-1077.41094	102.84498
22150.00000	102.80304	-1079.50855	102.80304
22200.00000	102.81723	-1082.05999	102.81723
22250.00000	102.74164	-1083.90826	102.74164
22300.00000	102.56054	-1086.45184	102.56054
22350.00000	102.65354	-1088.72506	102.65354
22400.00000	102.61527	-1091.27387	102.61527
22450.00000	102.51355	-1093.34812	102.51355
22500.00000	102.40284	-1094.43171	102.40284
22550.00000	102.38461	-1097.00442	102.38461
22600.00000	102.31271	-1100.11383	102.31271
22650.00000	102.28423	-1102.29392	102.28423
22700.00000	102.23075	-1103.63014	102.23075
22750.00000	102.18358	-1104.56694	102.18358
22800.00000	102.13316	-1108.53392	102.13316
22850.00000	102.10981	-1111.60006	102.10981
22900.00000	102.11847	-1112.30277	102.11847
22950.00000	102.04259	-1114.53314	102.04259
23000.00000	102.01552	-1115.49256	102.01552
23050.00000	101.91928	-1118.57644	101.91928
23100.00000	101.98301	-1119.98304	101.98301
23150.00000	101.76214	-1121.21044	101.76214
23200.00000	101.91155	-1124.40880	101.91155
23250.00000	101.65303	-1127.07545	101.65303
23300.00000	101.90945	-1129.56899	101.90945
23350.00000	101.54158	-1131.80243	101.54158
23400.00000	101.50290	-1133.59555	101.50290
23450.00000	101.67973	-1136.07127	101.67973
23500.00000	101.44475	-1137.71808	101.44475
23550.00000	101.38046	-1137.39226	101.38046
23600.00000	101.28532	-1141.92810	101.28532
23650.00000	101.37570	-1143.20235	101.37570
23700.00000	101.42794	-1147.44487	101.42794
23750.00000	101.35807	-1147.97470	101.35807
23800.00000	101.05433	-1149.75352	101.05433
23850.00000	101.18110	-1150.63078	101.18110
23900.00000	101.53100	-1153.11165	101.53100
23950.00000	101.13643	-1156.41671	101.13643
24000.00000	101.05891	-1159.37183	101.05891
24050.00000	101.16939	-1159.26453	101.16939
24100.00000	101.36935	-1163.97146	101.36935
24150.00000	101.34266	-1165.58860	101.34266
24200.00000	101.28167	-1169.47268	101.28167
24250.00000	100.89727	-1170.59325	100.89727
24300.00000	101.20302	-1171.67000	101.20302
24350.00000	101.08906	-1175.43452	101.08906
24400.00000	100.93605	-1178.87336	100.93605
24450.00000	100.70249	-1181.02144	100.70249
24500.00000	101.10800	-1182.35314	101.10800
24550.00000	100.81868	-827.80880	100.81868
24600.00000	101.24605	-828.76702	101.24605
24650.00000	100.87343	-472.90575	100.87343
24700.00000	100.57475	-112.90479	100.57475
24750.00000	100.61689	242.11829	100.61689
24800.00000	100.51459	600.60857	100.51459
24850.00000	100.21481	958.57257	100.21481
24900.00000	100.17803	1316.58442	100.17803
24950.00000	100.60643	1671.92647	100.60643
25000.00000	100.00182	1666.60495	100.00182
25050.00000	100.35044	1667.66723	100.35044
25100.00000	99.40568	1663.44720	99.40568
25150.00000	99.81946	1663.47622	99.81946
25200.00000	99.44697	1658.91382	99.44697
25250.00000	99.69578	1659.04487	99.69578
25300.00000	99.37533	1657.60518	99.37533
25350.00000	99.30918	1650.94836	99.30918
25400.00000	99.20136	1648.19845	99.20136
25450.00000	99.25046	1647.47051	99.25046
25500.00000	98.97946	1645.69566	98.97946
25550.00000	98.79253	1642.98823	98.79253
25600.00000	98.87058	1642.04900	98.87058
25650.00000	98.63809	1641.38651	98.63809
25700.00000	98.64670	1637.82817	98.64670
25750.00000	98.26630	1636.42393	98.26630
25800.00000	98.36563	1633.30653	98.36563
25850.00000	98.13553	1631.86934	98.13553
25900.00000	98.14922	1628.04536	98.14922
25950.00000	97.90095	1630.91571	97.90095
26000.00000	98.02722	1626.68507	98.02722
26050.00000	97.87292	1624.96268	97.87292
26100.00000	97.82497	1622.92773	97.82497
26150.00000	97.65922	1622.04588	97.65922
26200.00000	97.96048	1620.32015	97.96048
26250.00000	97.82607	1617.62756	97.82607
26300.00000	97.88042	1615.36014	97.88042
26350.00000	97.46755	1615.23726	97.46755
26400.00000	97.45691	1612.17399	97.45691
26450.00000	97.68305	1609.92590	97.68305
26500.00000	97.58693	1608.04849	97.58693
26550.00000	97.44223	1603.62270	97.44223
26600.00000	97.31754	1601.47207	97.31754
26650.00000	97.59238	1602.18255	97.59238
26700.00000	97.47192	1600.27623	97.47192
26750.00000	97.27363	1598.05323	97.27363
26800.00000	97.11868	1591.92131	97.11868
26850.00000	97.36989	1591.96596	97.36989
26900.00000	97.37749	1591.03351	97.37749
26950.00000	97.43247	1587.29391	97.43247
27000.00000	96.83117	1586.24731	96.83117
27050.00000	97.22588	1584.45870	97.22588
27100.00000	96.76258	1583.27356	96.76258
27150.00000	96.74353	1579.77068	96.74353
27200.00000	96.79241	1577.95611	96.79241
27250.00000	96.45654	1577.99488	96.45654
27300.00000	96.10010	1574.38914	96.10010
27350.00000	96.19270	1575.11282	96.19270
27400.00000	95.93667	1573.35706	95.93667
27450.00000	95.67711	1570.52671	95.67711
27500.00000	95.78142	1569.76208	95.78142
27550.00000	95.62488	1568.59649	95.62488
27600.00000	95.94847	1566.00246	95.94847
27650.00000	95.47915	1566.91477	95.47915
27700.00000	95.29864	1562.51942	95.29864
27750.00000	95.35377	1561.13974	95.35377
27800.00000	95.37691	1558.30120	95.37691
27850.00000	95.55690	1561.54781	95.55690
27900.00000	95.06648	1559.65201	95.06648
27950.00000	94.55551	1557.86552	94.55551
28000.00000	94.73649	1556.59068	94.73649
28050.00000	95.18165	1556.09337	95.18165
28100.00000	94.55094	1554.49123	94.55094
28150.00000	94.54446	1553.81885	94.54446
28200.00000	94.68649	1552.27055	94.68649
28250.00000	94.29297	1548.28748	94.29297
28300.00000	94.08243	1551.87512	94.08243
28350.00000	94.40020	1550.42433	94.40020
28400.00000	94.10228	1551.22472	94.10228
28450.00000	94.77507	1549.19631	94.77507
28500.00000	94.21549	1549.20775	94.21549
28550.00000	94.21490	1551.63428	94.21490
28600.00000	93.96039	1549.52276	93.96039
28650.00000	94.51183	1545.51374	94.51183
28700.00000	94.47319	1547.97620	94.47319
28750.00000	94.96250	1548.14125	94.96250
28800.00000	94.93133	1547.14445	94.93133
28850.00000	94.04960	1543.78409	94.04960
28900.00000	94.64842	1544.14127	94.64842
28950.00000	94.64391	1544.05374	94.64391
29000.00000	94.77447	1543.84589	94.77447
29050.00000	94.62081	1544.15966	94.62081
29100.00000	94.57922	1545.43126	94.57922
29150.00000	94.77071	1544.18052	94.77071
29200.00000	94.56291	1542.85060	94.56291
29250.00000	95.06418	1542.26949	95.06418
29300.00000	95.12312	1540.27181	95.12312
29350.00000	95.39622	1539.29757	95.39622
29400.00000	95.41793	1538.83870	95.41793
29450.00000	95.48553	1539.37540	95.48553
29500.00000	96.05433	1538.46110	96.05433
29550.00000	95.70765	1533.81619	95.70765
29600.00000	95.79135	1535.20404	95.79135
29650.00000	95.91972	1533.20340	95.91972
29700.00000	96.10357	1534.54735	96.10357
29750.00000	96.12206	1533.82237	96.12206
29800.00000	96.10794	1531.43343	96.10794
29850.00000	96.28275	1530.08890	96.28275
29900.00000	96.69912	1529.07443	96.69912
29950.00000	95.99768	1528.83290	95.99768
30000.00000	96.49232	1529.77164	96.49232
30050.00000	96.63300	1526.87679	96.63300
30100.00000	96.48823	1527.18440	96.48823
30150.00000	96.72900	1523.72475	96.72900
30200.00000	96.77020	1522.24370	96.77020
30250.00000	96.71964	1523.27206	96.71964
30300.00000	96.58123	1521.90413	96.58123
30350.00000	96.77280	1523.74210	96.77280
30400.00000	96.88793	1521.76634	96.88793
30450.00000	96.56598	1520.51700	96.56598
30500.00000	96.73692	1519.71114	96.73692
30550.00000	96.83458	1521.30777	96.83458
30600.00000	96.90127	1520.95739	96.90127
30650.00000	96.97898	1521.32991	96.97898
30700.00000	97.21482	1519.47882	97.21482
30750.00000	97.19522	1520.90307	97.19522
30800.00000	97.46714	1520.98682	97.46714
30850.00000	97.71226	1522.01493	97.71226
30900.00000	97.67688	1523.13574	97.67688
30950.00000	98.27340	1521.76200	98.27340
31000.00000	98.54463	1520.66451	98.54463
31050.00000	98.94110	1521.43167	98.94110
31100.00000	99.55571	1521.14973	99.55571
31150.00000	99.59298	1519.85106	99.59298
31200.00000	100.43145	1518.90489	100.43145
31250.00000	100.77459	1517.92447	100.77459
31300.00000	101.23221	1516.00689	101.23221
31350.00000	101.80851	1513.65365	101.80851
31400.00000	102.04988	1510.81889	102.04988
31450.00000	102.61010	1508.46922	102.61010
31500.00000	102.97293	1504.74769	102.97293
31550.00000	103.46706	1502.24892	103.46706
31600.00000	104.01821	1497.67739	104.01821
31650.00000	104.31856	1494.34705	104.31856
31700.00000	104.60181	1490.99664	104.60181
31750.00000	105.03262	1488.71009	105.03262
31800.00000	105.31289	1483.90322	105.31289
31850.00000	105.63179	1479.21202	105.63179
31900.00000	105.74871	1476.47764	105.74871
31950.00000	106.11217	1471.87898	106.11217
32000.00000	106.31532	1468.20639	106.31532
32050.00000	106.61851	1464.61348	106.61851
32100.00000	106.74968	1459.35173	106.74968
32150.00000	106.97781	1456.47898	106.97781
32200.00000	107.16331	1451.48815	107.16331
32250.00000	107.27948	1446.91478	107.27948
32300.00000	107.38812	1443.56717	107.38812
32350.00000	107.55620	1439.72014	107.55620
32400.00000	107.77831	1436.26119	107.77831
32450.00000	107.64456	1431.88877	107.64456
32500.00000	107.90636	1428.66846	107.90636
32550.00000	108.08224	1423.73271	108.08224
32600.00000	108.10302	1420.57632	108.10302
32650.00000	108.23627	1416.36253	108.23627
32700.00000	108.22424	1412.52325	108.22424
32750.00000	108.21265	1408.44986	108.21265
32800.00000	108.50004	1405.47661	108.50004
32850.00000	108.51470	1401.16111	108.51470
32900.00000	108.54963	1396.66550	108.54963
32950.00000	108.49775	1392.25659	108.49775
33000.00000	108.51902	1390.26845	108.51902
33050.00000	108.39326	1385.20907	108.39326
33100.00000	108.52379	1382.21625	108.52379
33150.00000	108.57060	1378.82910	108.57060
33200.00000	108.64288	1376.55310	108.64288
33250.00000	108.55627	1372.42694	108.55627
33300.00000	108.49267	1368.15191	108.49267
33350.00000	108.38536	1364.58293	108.38536
33400.00000	108.30978	1362.44333	108.30978
33450.00000	108.28624	1358.14207	108.28624
33500.00000	108.37166	1356.88820	108.37166
33550.00000	108.05134	1351.93802	108.05134
33600.00000	108.16190	1349.94467	108.16190
33650.00000	108.24815	1346.14969	108.24815
33700.00000	108.08800	1343.46840	108.08800
33750.00000	108.01733	1340.39145	108.01733
33800.00000	107.92094	1336.94070	107.92094
33850.00000	107.53691	1335.26634	107.53691
33900.00000	107.79276	1332.25176	107.79276
33950.00000	107.45887	1329.67574	107.45887
34000.00000	107.59473	1327.53663	107.59473
34050.00000	107.42578	1324.54899	107.42578
34100.00000	107.05748	1323.43374	107.05748
34150.00000	107.03328	1320.77996	107.03328
34200.00000	107.25904	1320.38462	107.25904
34250.00000	107.08215	1315.96589	107.08215
34300.00000	106.83647	1315.25651	106.83647
34350.00000	107.01257	1313.56463	107.01257
34400.00000	106.68162	1312.49473	106.68162
34450.00000	106.78544	1308.60070	106.78544
34500.00000	106.65351	1307.57672	106.65351
34550.00000	106.73923	1306.55981	106.73923
34600.00000	106.40047	1303.10816	106.40047
34650.00000	106.75609	1305.00883	106.75609
34700.00000	106.27857	1303.40894	106.27857
34750.00000	106.46649	1297.89879	106.46649
34800.00000	106.49686	1300.07662	106.49686
34850.00000	106.61698	1299.75577	106.61698
34900.00000	106.73537	1296.53164	106.73537
34950.00000	106.59513	1296.83412	106.59513
35000.00000	106.58006	1295.51123	106.58006
35050.00000	106.81837	1293.97515	106.81837
35100.00000	107.01132	1291.98532	107.01132
35150.00000	106.73306	1291.67756	106.73306
35200.00000	107.06752	1289.65574	107.06752
35250.00000	107.13186	1288.17593	107.13186
35300.00000	107.22130	1286.13692	107.22130
35350.00000	107.45663	1284.26815	107.45663
35400.00000	107.50965	1282.45463	107.50965
35450.00000	107.55972	1281.30437	107.55972
35500.00000	107.40582	1279.76027	107.40582
35550.00000	107.68481	1279.14269	107.68481
35600.00000	107.63738	1275.92021	107.63738
35650.00000	107.80469	1275.30978	107.80469
35700.00000	107.97610	1274.36730	107.97610
35750.00000	107.91961	1273.64383	107.91961
35800.00000	108.17300	1272.45223	108.17300
35850.00000	108.38530	1269.90920	108.38530
35900.00000	108.55246	1267.67353	108.55246
35950.00000	108.69720	1265.80978	108.69720
36000.00000	108.58797	1264.38845	108.58797
36050.00000	108.97108	1262.42025	108.97108
36100.00000	109.18337	1260.83172	109.18337
36150.00000	109.16678	1258.75628	109.16678
36200.00000	109.39154	1256.38826	109.39154
36250.00000	109.35706	1253.52247	109.35706
36300.00000	109.22913	1251.61064	109.22913
36350.00000	109.49040	1250.40268	109.49040
36400.00000	109.46312	1248.27539	109.46312
36450.00000	109.53091	1246.01905	109.53091
36500.00000	109.90000	1243.67805	109.90000
36550.00000	109.62931	1241.29916	109.62931
36600.00000	109.70274	1239.99130	109.70274
36650.00000	109.73522	1237.85401	109.73522
36700.00000	110.02820	1234.88181	110.02820
36750.00000	110.06630	1231.75994	110.06630
36800.00000	110.11620	1230.75260	110.11620
36850.00000	109.92443	1228.37547	109.92443
36900.00000	110.08822	1224.98857	110.08822
36950.00000	109.90870	1221.98608	109.90870
37000.00000	109.61626	1221.67391	109.61626
37050.00000	109.76648	1220.68939	109.76648
37100.00000	110.09364	1217.02050	110.09364
37150.00000	110.03775	1213.03066	110.03775
37200.00000	110.23122	1212.60332	110.23122
37250.00000	109.81425	1209.13812	109.81425
37300.00000	109.97867	1206.97070	109.97867
37350.00000	110.28966	1204.75148	110.28966
37400.00000	109.96071	1204.14106	109.96071
37450.00000	110.06259	1201.19683	110.06259
37500.00000	110.58448	1197.90944	110.58448
37550.00000	110.27720	1195.04193	110.27720
37600.00000	110.36731	1194.07940	110.36731
37650.00000	110.33897	1189.59594	110.33897
37700.00000	110.51173	1185.83559	110.51173
37750.00000	110.39053	1183.04522	110.39053
37800.00000	110.58130	1181.10268	110.58130
37850.00000	110.61857	1176.03482	110.61857
37900.00000	110.72291	1174.75419	110.72291
37950.00000	110.74901	1170.98328	110.74901
38000.00000	110.74791	1170.77414	110.74791
38050.00000	111.05614	1166.97386	111.05614
38100.00000	111.28703	1162.91331	111.28703
38150.00000	111.29580	1158.50639	111.29580
38200.00000	111.49441	1154.36049	111.49441
38250.00000	111.55472	1151.59397	111.55472
38300.00000	111.78879	1146.74871	111.78879
38350.00000	111.73655	1143.97250	111.73655
38400.00000	112.06553	1140.67813	112.06553
38450.00000	112.18983	1135.54104	112.18983
38500.00000	112.42861	1131.99268	112.42861
38550.00000	112.66892	1127.78534	112.66892
38600.00000	112.90748	1123.54451	112.90748
38650.00000	113.08958	1118.37303	113.08958
38700.00000	112.98784	1114.27874	112.98784
38750.00000	113.12815	1109.96798	113.12815
38800.00000	113.33398	1105.19765	113.33398
38850.00000	113.46441	1100.33766	113.46441
38900.00000	113.58135	1095.76917	113.58135
38950.00000	113.64303	1089.77912	113.64303
39000.00000	113.71563	1085.20046	113.71563
39050.00000	113.79168	1080.85670	113.79168
39100.00000	113.76334	1075.41352	113.76334
39150.00000	113.64774	1069.62456	113.64774
39200.00000	113.59876	1065.56531	113.59876
39250.00000	113.56144	1060.36726	113.56144
39300.00000	113.47267	1055.25103	113.47267
39350.00000	113.34191	1051.04111	113.34191
39400.00000	113.10591	1045.55914	113.10591
39450.00000	112.84281	1042.00605	112.84281
39500.00000	112.70083	1037.85561	112.70083
39550.00000	112.49412	1033.39839	112.49412
39600.00000	112.15668	1029.95598	112.15668
39650.00000	111.81928	1026.26885	111.81928
39700.00000	111.55220	1023.39130	111.55220
39750.00000	111.38372	1020.18722	111.38372
39800.00000	111.10181	1017.43412	111.10181
39850.00000	110.90928	1014.17964	110.90928
39900.00000	110.60994	1012.22799	110.60994
39950.00000	110.36368	1009.30868	110.36368
40000.00000	110.08071	1008.74491	110.08071
40050.00000	109.93200	1004.89907	109.93200
40100.00000	109.73098	1003.14961	109.73098
40150.00000	109.48022	1000.99249	109.48022
40200.00000	109.30189	999.68554	109.30189
40250.00000	109.18120	997.88320	109.18120
40300.00000	108.99326	996.13981	108.99326
40350.00000	108.70444	994.05929	108.70444
40400.00000	108.53433	992.62548	108.53433
40450.00000	108.32364	991.49988	108.32364
40500.00000	108.26595	990.00159	108.26595
40550.00000	108.16599	988.76877	108.16599
40600.00000	107.98663	987.47577	107.98663
40650.00000	107.92975	986.74003	107.92975
40700.00000	107.64915	985.51542	107.64915
40750.00000	107.65300	984.78585	107.65300
40800.00000	107.45377	982.98655	107.45377
40850.00000	107.29245	982.80993	107.29245
40900.00000	107.26873	980.48874	107.26873
40950.00000	106.98713	982.05039	106.98713
41000.00000	106.67804	981.06041	106.67804
41050.00000	106.83143	980.52706	106.83143
41100.00000	106.78036	979.86612	106.78036
41150.00000	106.70849	981.01819	106.70849
41200.00000	106.62377	980.44716	106.62377
41250.00000	106.39421	978.48134	106.39421
41300.00000	106.02706	979.77862	106.02706
41350.00000	106.14519	980.52009	106.14519
41400.00000	106.09138	976.86421	106.09138
41450.00000	106.08241	980.31314	106.08241
41500.00000	105.79883	978.90610	105.79883
41550.00000	105.76834	983.26579	105.76834
41600.00000	105.35597	981.01651	105.35597
41650.00000	105.57334	980.09184	105.57334
41700.00000	105.69783	980.12883	105.69783
41750.00000	105.40295	987.25646	105.40295
41800.00000	104.51931	982.13936	104.51931
41850.00000	104.45294	983.44462	104.45294
41900.00000	104.35488	984.78205	104.35488
41950.00000	105.37387	991.14857	105.37387
42000.00000	104.52532	985.99287	104.52532
42050.00000	103.31923	987.93152	103.31923
42100.00000	103.83174	990.05616	103.83174
42150.00000	103.25219	983.12253	103.25219
42200.00000	102.99296	992.64246	102.99296
42250.00000	103.05253	992.47153	103.05253
42300.00000	101.49106	989.60897	101.49106
42350.00000	102.24222	993.65277	102.24222
42400.00000	101.81955	996.87080	101.81955
42450.00000	102.27322	990.74845	102.27322
42500.00000	101.64500	989.51528	101.64500
42550.00000	101.90582	1000.35316	101.90582
42600.00000	101.75385	993.80905	101.75385
42650.00000	100.75863	999.03786	100.75863
42700.00000	100.58260	993.87456	100.58260
42750.00000	101.09114	995.68267	101.09114
42800.00000	100.32787	989.38104	100.32787
42850.00000	100.44436	983.82627	100.44436
42900.00000	100.76605	994.01828	100.76605
42950.00000	100.13420	986.36501	100.13420
43000.00000	100.40280	977.71950	100.40280
43050.00000	99.13471	973.72143	99.13471
43100.00000	100.02214	975.26511	100.02214
43150.00000	99.17045	972.07668	99.17045
43200.00000	100.00765	967.07251	100.00765
43250.00000	100.19205	962.50825	100.19205
43300.00000	100.02101	953.21346	100.02101
43350.00000	100.68163	946.88077	100.68163
43400.00000	100.96188	944.17697	100.96188
43450.00000	101.61140	939.66142	101.61140
43500.00000	100.08641	927.23417	100.08641
43550.00000	101.39804	924.63718	101.39804
43600.00000	101.41412	919.78458	101.41412
43650.00000	101.82075	906.30078	101.82075
43700.00000	102.11566	903.17646	102.11566
43750.00000	101.71439	898.76130	101.71439
43800.00000	102.63883	888.67859	102.63883
43850.00000	103.90761	882.43410	103.90761
43900.00000	104.02011	875.87346	104.02011
43950.00000	104.49746	867.82799	104.49746
44000.00000	104.26946	862.30072	104.26946
44050.00000	104.74327	856.46717	104.74327
44100.00000	105.19184	845.29479	105.19184
44150.00000	105.16384	842.60151	105.16384
44200.00000	105.28919	838.79337	105.28919
44250.00000	105.80030	831.40334	105.80030
44300.00000	106.22506	824.06469	106.22506
44350.00000	105.31036	819.08657	105.31036
44400.00000	106.37824	812.80529	106.37824
44450.00000	106.66916	808.17766	106.66916
44500.00000	106.30527	804.84624	106.30527
44550.00000	107.70337	795.47787	107.70337
44600.00000	106.66121	796.68182	106.66121
44650.00000	106.66600	787.00703	106.66600
44700.00000	106.76906	780.29980	106.76906
44750.00000	106.51906	782.46724	106.51906
44800.00000	107.21484	772.62064	107.21484
44850.00000	106.98675	767.55937	106.98675
44900.00000	106.73775	765.20830	106.73775
44950.00000	106.75160	757.38633	106.75160
45000.00000	107.12103	751.24891	107.12103
45050.00000	105.78175	757.26440	105.78175
45100.00000	106.16765	746.72631	106.16765
45150.00000	106.16581	736.61032	106.16581
45200.00000	105.85278	739.48495	105.85278
45250.00000	105.96452	732.58389	105.96452
45300.00000	105.87215	728.71561	105.87215
45350.00000	105.28867	720.03694	105.28867
45400.00000	105.45736	720.74558	105.45736
45450.00000	105.42823	713.16206	105.42823
45500.00000	103.67218	706.64803	103.67218
45550.00000	103.31133	710.05045	103.31133
45600.00000	104.95647	703.23166	104.95647
45650.00000	103.37333	695.92724	103.37333
45700.00000	103.14282	696.98398	103.14282
45750.00000	103.92935	700.02176	103.92935
45800.00000	102.80291	688.45049	102.80291
45850.00000	102.67163	688.30598	102.67163
45900.00000	102.73008	685.91178	102.73008
45950.00000	102.13193	687.95572	102.13193
46000.00000	101.13828	670.81848	101.13828
46050.00000	100.78392	669.97144	100.78392
46100.00000	99.65427	675.36122	99.65427
46150.00000	99.61989	672.95095	99.61989
46200.00000	97.54012	664.91852	97.54012
46250.00000	98.88644	662.62341	98.88644
46300.00000	97.76946	665.55576	97.76946
46350.00000	98.88322	660.67333	98.88322
46400.00000	97.22913	657.98919	97.22913
46450.00000	95.37866	659.30647	95.37866
46500.00000	96.51388	660.84926	96.51388
46550.00000	96.17148	663.40952	96.17148
46600.00000	96.24726	664.97367	96.24726
46650.00000	94.20213	660.66293	94.20213
46700.00000	93.63141	674.14843	93.63141
46750.00000	94.43440	679.97229	94.43440
46800.00000	92.77154	668.16308	92.77154
46850.00000	93.81085	327.21750	93.81085
46900.00000	94.00334	316.02512	94.00334
46950.00000	94.49893	316.18481	94.49893
47000.00000	94.32414	322.00804	94.32414
47050.00000	95.69672	313.52255	95.69672
47100.00000	94.80090	313.63745	94.80090
47150.00000	95.40714	310.67244	95.40714
47200.00000	94.43944	312.28537	94.43944
47250.00000	95.84723	310.98038	95.84723
47300.00000	95.61384	301.39104	95.61384
47350.00000	95.34872	-47.04833	95.34872
47400.00000	94.61665	-49.24689	94.61665
47450.00000	96.40151	-44.34184	96.40151
47500.00000	94.70859	-60.55607	94.70859
47550.00000	94.17489	-408.83183	94.17489
47600.00000	94.33791	-413.46576	94.33791
47650.00000	95.96742	-419.08497	95.96742
47700.00000	94.81373	-422.64500	94.81373
47750.00000	93.25265	-417.16248	93.25265
47800.00000	93.68599	-434.10495	93.68599
47850.00000	94.53804	-783.13804	94.53804
47900.00000	94.82490	-1133.55096	94.82490
47950.00000	93.68170	-1136.37061	93.68170
48000.00000	93.44387	-1132.32371	93.44387
48050.00000	94.84724	-1145.26875	94.84724
48100.00000	93.65302	-1148.32192	93.65302
48150.00000	94.27899	-1494.45406	94.27899
48200.00000	94.86200	-1494.78608	94.86200
48250.00000	93.86397	-1502.04678	93.86397
48300.00000	95.09325	-1499.88801	95.09325
48350.00000	94.70340	-1508.78473	94.70340
48400.00000	95.72518	-1852.57378	95.72518
48450.00000	96.30343	-1858.65001	96.30343
48500.00000	95.27763	-1865.19244	95.27763
48550.00000	94.84570	-1868.84036	94.84570
48600.00000	96.83432	-2221.08014	96.83432
48650.00000	97.43891	-2224.82905	97.43891
48700.00000	97.15675	-2235.99818	97.15675
48750.00000	95.71891	-2582.05048	95.71891
48800.00000	96.66297	-2589.35822	96.66297
48850.00000	96.68047	-2592.86629	96.68047
48900.00000	95.77865	-2953.09233	95.77865
48950.00000	96.84811	-2963.05321	96.84811
49000.00000	97.27007	-2963.76521	97.27007
49050.00000	96.46484	-2968.93427	96.46484
49100.00000	96.56601	-3327.19125	96.56601
49150.00000	97.62427	-3687.08541	97.62427
49200.00000	97.36107	-3697.55660	97.36107
49250.00000	97.52920	-4050.16560	97.52920
49300.00000	98.26043	-3703.44368	98.26043
49350.00000	95.29969	-3683.14545	95.29969
49400.00000	96.09799	-3340.49885	96.09799
49450.00000	94.98643	-2986.24122	94.98643
49500.00000	95.93176	-2636.87528	95.93176
49550.00000	96.50271	-2272.90017	96.50271
49600.00000	95.29737	-2265.18271	95.29737
49650.00000	96.17450	-2262.94638	96.17450
49700.00000	96.28804	-1924.80542	96.28804
49750.00000	95.81129	-1915.99442	95.81129
49800.00000	94.72593	-1917.49982	94.72593
49850.00000	94.97206	-1903.40514	94.97206
49900.00000	94.59369	-1547.78829	94.59369
49950.00000	96.41860	-1212.82937	96.41860
