---ACOUSTIC CALIBRATION---
Filename: C:\Data\AZH DATA\AZH52\RightSecondary.calib
Date: 8/27/2019 6:36:30 PM
Format: 4
Probe Tube Correction File: C:\Data\Probe Tube Calibrations\50_ProbeTube.calib
Experiment VIs: 850
EPL_CFTS.exe V12.0.1 (2012)
DAQmx V9.6

Attenuation (dB): 40.000000
Min Freq (Hz): 50.000000
Max Freq (Hz): 49950.000000
Freq Step (Hz): 50.000000
Sample Rate (Hz): 100000.000000
[Smoothing]
Method=None
MA.Iterations=0
MA.Length=0
Loess.Length=0
Loess.Type=Linear
Loess.Robust=FALSE


Freq(Hz)	Mag(dB)	Phase(deg)	Unsmoothed(dB)

50.00000	104.93146	505.03507	104.93146
100.00000	84.01947	630.19654	84.01947
150.00000	74.52743	450.11047	74.52743
200.00000	75.81190	577.33276	75.81190
250.00000	89.59604	760.40022	89.59604
300.00000	88.31483	682.70056	88.31483
350.00000	83.86940	703.44795	83.86940
400.00000	86.68080	684.60273	86.68080
450.00000	84.41998	670.81301	84.41998
500.00000	87.24605	703.01805	87.24605
550.00000	87.84332	697.90551	87.84332
600.00000	91.67704	695.78905	91.67704
650.00000	92.79263	671.81615	92.79263
700.00000	91.76265	669.63160	91.76265
750.00000	94.48069	671.50796	94.48069
800.00000	98.83145	664.09420	98.83145
850.00000	101.37104	653.31775	101.37104
900.00000	103.12134	635.56425	103.12134
950.00000	104.37385	617.24086	104.37385
1000.00000	104.00678	599.20592	104.00678
1050.00000	103.59624	590.75279	103.59624
1100.00000	103.76706	579.21409	103.76706
1150.00000	103.04089	569.30092	103.04089
1200.00000	102.71341	566.68670	102.71341
1250.00000	102.62490	555.98521	102.62490
1300.00000	101.71292	550.57033	101.71292
1350.00000	100.96878	545.38120	100.96878
1400.00000	100.26749	545.19760	100.26749
1450.00000	100.49997	544.43209	100.49997
1500.00000	100.63539	543.45886	100.63539
1550.00000	100.70486	544.19923	100.70486
1600.00000	101.44394	539.30329	101.44394
1650.00000	102.25050	530.45904	102.25050
1700.00000	101.08423	525.60801	101.08423
1750.00000	101.07620	523.08497	101.07620
1800.00000	100.24915	520.83154	100.24915
1850.00000	100.02055	523.93796	100.02055
1900.00000	101.26867	525.83119	101.26867
1950.00000	102.06348	516.46262	102.06348
2000.00000	101.72858	508.54393	101.72858
2050.00000	101.01175	505.81944	101.01175
2100.00000	101.12597	503.21742	101.12597
2150.00000	100.68830	498.31335	100.68830
2200.00000	100.27763	494.74815	100.27763
2250.00000	99.41211	493.35246	99.41211
2300.00000	99.35086	495.54486	99.35086
2350.00000	99.07441	494.55331	99.07441
2400.00000	98.80714	495.18808	98.80714
2450.00000	98.82384	491.99686	98.82384
2500.00000	98.16585	493.68858	98.16585
2550.00000	97.69433	495.61174	97.69433
2600.00000	97.72054	504.39187	97.72054
2650.00000	98.73018	512.83118	98.73018
2700.00000	100.71593	512.79819	100.71593
2750.00000	102.38988	503.96402	102.38988
2800.00000	102.75525	493.94361	102.75525
2850.00000	102.62738	485.57936	102.62738
2900.00000	102.31248	479.23843	102.31248
2950.00000	101.68976	475.56617	101.68976
3000.00000	101.48729	471.49808	101.48729
3050.00000	101.12171	469.01586	101.12171
3100.00000	100.73258	466.71204	100.73258
3150.00000	100.27050	463.43797	100.27050
3200.00000	99.43332	461.42224	99.43332
3250.00000	98.79848	460.62490	98.79848
3300.00000	97.61224	460.81401	97.61224
3350.00000	96.47514	464.02902	96.47514
3400.00000	95.86389	475.46883	95.86389
3450.00000	96.01003	484.61000	96.01003
3500.00000	96.83765	490.76920	96.83765
3550.00000	97.44830	493.61211	97.44830
3600.00000	97.79933	494.78322	97.79933
3650.00000	97.75493	497.17625	97.75493
3700.00000	97.90061	505.29573	97.90061
3750.00000	98.58431	515.38840	98.58431
3800.00000	100.19443	524.31454	100.19443
3850.00000	102.24046	528.54831	102.24046
3900.00000	104.24760	527.64377	104.24760
3950.00000	105.93226	524.66123	105.93226
4000.00000	107.35045	520.38758	107.35045
4050.00000	108.40922	515.49549	108.40922
4100.00000	109.37299	511.50526	109.37299
4150.00000	110.46313	507.90626	110.46313
4200.00000	111.15109	503.68941	111.15109
4250.00000	112.05974	499.92724	112.05974
4300.00000	112.85767	496.83491	112.85767
4350.00000	113.75754	493.77950	113.75754
4400.00000	114.79656	490.95120	114.79656
4450.00000	115.95936	487.83447	115.95936
4500.00000	117.26555	483.78936	117.26555
4550.00000	118.68488	478.14812	118.68488
4600.00000	120.06804	471.08322	120.06804
4650.00000	121.49348	462.37405	121.49348
4700.00000	122.82578	451.54466	122.82578
4750.00000	123.96403	438.57494	123.96403
4800.00000	124.76002	423.65128	124.76002
4850.00000	125.09338	407.93944	125.09338
4900.00000	124.91919	392.17730	124.91919
4950.00000	124.26738	377.84033	124.26738
5000.00000	123.18061	366.24684	123.18061
5050.00000	122.13059	358.33934	122.13059
5100.00000	120.80201	348.87581	120.80201
5150.00000	118.26713	348.26345	118.26713
5200.00000	117.76388	367.56910	117.76388
5250.00000	120.88369	368.67840	120.88369
5300.00000	122.20975	354.67588	122.20975
5350.00000	122.33441	342.08352	122.33441
5400.00000	122.03013	331.88842	122.03013
5450.00000	121.60075	323.55778	121.60075
5500.00000	121.12622	316.23227	121.12622
5550.00000	120.65775	310.00927	120.65775
5600.00000	120.18652	304.21103	120.18652
5650.00000	119.74422	298.97322	119.74422
5700.00000	119.28613	293.77107	119.28613
5750.00000	118.85830	289.29849	118.85830
5800.00000	118.43096	284.92460	118.43096
5850.00000	118.02276	280.75101	118.02276
5900.00000	117.66474	276.74041	117.66474
5950.00000	117.29990	272.77045	117.29990
6000.00000	116.93849	269.06952	116.93849
6050.00000	116.54687	265.46870	116.54687
6100.00000	116.19599	261.99149	116.19599
6150.00000	115.87762	258.46406	115.87762
6200.00000	115.50320	255.12335	115.50320
6250.00000	115.17999	251.78099	115.17999
6300.00000	114.82540	248.74374	114.82540
6350.00000	114.52081	245.69360	114.52081
6400.00000	114.21740	242.79874	114.21740
6450.00000	113.88604	239.65248	113.88604
6500.00000	113.53447	236.67496	113.53447
6550.00000	113.18681	234.05743	113.18681
6600.00000	112.80503	231.49912	112.80503
6650.00000	112.53913	229.37997	112.53913
6700.00000	112.21162	226.94646	112.21162
6750.00000	111.90403	224.57760	111.90403
6800.00000	111.59469	222.69741	111.59469
6850.00000	111.34217	220.76677	111.34217
6900.00000	111.07892	218.96756	111.07892
6950.00000	110.77704	217.22246	110.77704
7000.00000	110.59887	215.18166	110.59887
7050.00000	110.34519	213.26913	110.34519
7100.00000	110.13110	211.27567	110.13110
7150.00000	109.91162	209.82516	109.91162
7200.00000	109.68818	208.36989	109.68818
7250.00000	109.45195	207.18024	109.45195
7300.00000	109.29355	205.72001	109.29355
7350.00000	109.13913	204.91234	109.13913
7400.00000	109.06718	203.86805	109.06718
7450.00000	108.99271	202.59499	108.99271
7500.00000	108.97946	201.50170	108.97946
7550.00000	108.96367	200.30302	108.96367
7600.00000	108.96087	198.81344	108.96087
7650.00000	109.00102	197.33308	109.00102
7700.00000	109.08669	195.78996	109.08669
7750.00000	109.09922	193.86222	109.09922
7800.00000	109.19374	192.06609	109.19374
7850.00000	109.35386	190.07539	109.35386
7900.00000	109.51690	187.67687	109.51690
7950.00000	109.56725	184.51990	109.56725
8000.00000	109.64860	181.55628	109.64860
8050.00000	109.69063	178.09091	109.69063
8100.00000	109.77934	175.04164	109.77934
8150.00000	109.68344	171.69054	109.68344
8200.00000	109.66432	168.59017	109.66432
8250.00000	109.60374	164.69958	109.60374
8300.00000	109.49274	161.50476	109.49274
8350.00000	109.40548	158.37838	109.40548
8400.00000	109.28411	154.97451	109.28411
8450.00000	109.00151	151.75173	109.00151
8500.00000	108.81434	148.94349	108.81434
8550.00000	108.68737	146.73557	108.68737
8600.00000	108.51033	143.53452	108.51033
8650.00000	108.31130	141.00446	108.31130
8700.00000	108.14525	137.37543	108.14525
8750.00000	107.89448	135.39901	107.89448
8800.00000	107.71564	132.41263	107.71564
8850.00000	107.44957	129.61470	107.44957
8900.00000	107.25759	127.45325	107.25759
8950.00000	107.05801	124.87811	107.05801
9000.00000	106.85979	122.98208	106.85979
9050.00000	106.81461	120.36893	106.81461
9100.00000	106.70963	118.15736	106.70963
9150.00000	106.63637	115.91371	106.63637
9200.00000	106.60896	113.29836	106.60896
9250.00000	106.41360	111.04724	106.41360
9300.00000	106.27799	108.95780	106.27799
9350.00000	106.19943	107.01018	106.19943
9400.00000	106.01240	105.29633	106.01240
9450.00000	105.92805	103.38089	105.92805
9500.00000	105.86774	101.53673	105.86774
9550.00000	105.76942	99.04276	105.76942
9600.00000	105.76134	97.14717	105.76134
9650.00000	105.74863	94.56089	105.74863
9700.00000	105.75196	92.69293	105.75196
9750.00000	105.77096	89.62907	105.77096
9800.00000	105.66901	87.92565	105.66901
9850.00000	105.62054	86.51825	105.62054
9900.00000	105.39399	84.56164	105.39399
9950.00000	105.24546	82.94829	105.24546
10000.00000	105.09062	80.60598	105.09062
10050.00000	104.88536	78.07731	104.88536
10100.00000	104.66901	75.64977	104.66901
10150.00000	104.36715	72.31044	104.36715
10200.00000	104.24097	69.16016	104.24097
10250.00000	104.02649	65.97907	104.02649
10300.00000	104.04259	63.12931	104.04259
10350.00000	103.92409	60.83712	103.92409
10400.00000	103.79738	58.08396	103.79738
10450.00000	103.75210	55.30196	103.75210
10500.00000	103.67896	52.95411	103.67896
10550.00000	103.52856	50.26493	103.52856
10600.00000	103.35349	48.06650	103.35349
10650.00000	103.17094	46.01288	103.17094
10700.00000	103.06261	42.43428	103.06261
10750.00000	102.95405	39.45721	102.95405
10800.00000	102.77146	36.83204	102.77146
10850.00000	102.62969	33.33439	102.62969
10900.00000	102.45372	31.05713	102.45372
10950.00000	102.31340	29.26022	102.31340
11000.00000	102.12711	26.83635	102.12711
11050.00000	101.75155	24.30512	101.75155
11100.00000	101.44826	21.58628	101.44826
11150.00000	101.03892	19.25361	101.03892
11200.00000	100.77683	16.96318	100.77683
11250.00000	100.44217	14.47855	100.44217
11300.00000	100.10622	12.30016	100.10622
11350.00000	99.85913	10.45328	99.85913
11400.00000	99.47585	 8.75903	99.47585
11450.00000	99.17963	 6.80206	99.17963
11500.00000	99.01707	 6.13555	99.01707
11550.00000	98.63386	 4.78862	98.63386
11600.00000	98.44194	 2.22000	98.44194
11650.00000	98.14201	 1.91436	98.14201
11700.00000	97.95786	 0.29610	97.95786
11750.00000	97.78045	-1.01382	97.78045
11800.00000	97.61334	-2.80509	97.61334
11850.00000	97.52648	-3.12676	97.52648
11900.00000	97.17617	-4.96562	97.17617
11950.00000	97.04847	-5.67069	97.04847
12000.00000	96.83877	-7.04026	96.83877
12050.00000	96.39881	-8.99230	96.39881
12100.00000	96.37437	-11.28987	96.37437
12150.00000	96.20305	-13.71240	96.20305
12200.00000	96.08970	-15.41844	96.08970
12250.00000	95.92923	-16.32318	95.92923
12300.00000	96.89297	-19.16867	96.89297
12350.00000	95.35422	-20.41287	95.35422
12400.00000	95.02082	-21.18865	95.02082
12450.00000	94.54080	-22.99511	94.54080
12500.00000	94.05533	-25.73510	94.05533
12550.00000	93.59581	-26.68756	93.59581
12600.00000	93.21291	-27.55451	93.21291
12650.00000	93.11070	-28.53478	93.11070
12700.00000	92.66500	-29.34223	92.66500
12750.00000	92.31588	-30.25847	92.31588
12800.00000	91.90993	-29.49580	91.90993
12850.00000	91.47443	-29.60324	91.47443
12900.00000	91.13371	-30.71466	91.13371
12950.00000	90.94103	-31.88816	90.94103
13000.00000	90.93340	-32.33923	90.93340
13050.00000	90.53802	-30.65119	90.53802
13100.00000	90.46785	-29.81286	90.46785
13150.00000	90.44853	-29.57492	90.44853
13200.00000	90.18755	-24.53149	90.18755
13250.00000	89.95788	-25.29802	89.95788
13300.00000	89.34639	-24.19907	89.34639
13350.00000	89.29829	-24.48891	89.29829
13400.00000	89.48441	-25.05575	89.48441
13450.00000	89.34113	-24.86764	89.34113
13500.00000	89.48394	-21.65625	89.48394
13550.00000	89.25477	-20.55019	89.25477
13600.00000	89.32778	-18.03748	89.32778
13650.00000	89.06687	-17.06049	89.06687
13700.00000	89.05352	-15.88884	89.05352
13750.00000	88.82311	-15.52538	88.82311
13800.00000	88.71240	-17.18736	88.71240
13850.00000	88.92208	-17.02431	88.92208
13900.00000	89.09781	-17.34710	89.09781
13950.00000	89.44893	-15.23680	89.44893
14000.00000	89.84764	-15.22622	89.84764
14050.00000	90.06745	-13.61016	90.06745
14100.00000	90.21924	-12.77094	90.21924
14150.00000	90.35670	-12.87173	90.35670
14200.00000	90.38909	-12.73923	90.38909
14250.00000	90.71139	-11.01384	90.71139
14300.00000	91.02226	-12.78158	91.02226
14350.00000	91.11765	-12.33792	91.11765
14400.00000	91.19930	-12.21328	91.19930
14450.00000	91.16555	-11.28065	91.16555
14500.00000	91.37526	-13.62522	91.37526
14550.00000	91.79091	-15.07592	91.79091
14600.00000	91.87887	-15.50385	91.87887
14650.00000	92.43979	-14.10107	92.43979
14700.00000	92.70275	-17.44320	92.70275
14750.00000	93.01019	-18.12307	93.01019
14800.00000	93.01924	-17.76047	93.01924
14850.00000	93.24151	-18.59714	93.24151
14900.00000	93.48217	-21.47700	93.48217
14950.00000	93.75151	-23.14681	93.75151
15000.00000	94.09185	-24.27742	94.09185
15050.00000	94.26117	-24.36707	94.26117
15100.00000	94.42091	-25.31681	94.42091
15150.00000	94.81529	-26.68906	94.81529
15200.00000	94.86606	-26.17770	94.86606
15250.00000	94.90415	-28.25793	94.90415
15300.00000	95.22803	-30.39205	95.22803
15350.00000	95.35367	-32.88649	95.35367
15400.00000	95.36137	-33.84815	95.36137
15450.00000	95.48764	-35.18669	95.48764
15500.00000	95.67076	-36.92166	95.67076
15550.00000	95.84815	-38.83533	95.84815
15600.00000	95.90079	-40.78446	95.90079
15650.00000	96.26479	-40.18917	96.26479
15700.00000	96.23374	-43.16803	96.23374
15750.00000	96.59432	-43.05918	96.59432
15800.00000	96.62583	-43.24561	96.62583
15850.00000	96.66021	-43.66626	96.66021
15900.00000	96.57095	-45.28318	96.57095
15950.00000	96.85079	-46.31312	96.85079
16000.00000	97.11588	-47.49458	97.11588
16050.00000	97.36223	-47.82480	97.36223
16100.00000	97.34361	-49.45310	97.34361
16150.00000	97.61340	-50.39283	97.61340
16200.00000	98.01404	-51.21457	98.01404
16250.00000	98.25499	-52.01391	98.25499
16300.00000	98.68406	-53.14049	98.68406
16350.00000	98.96494	-54.01255	98.96494
16400.00000	99.22416	-54.90804	99.22416
16450.00000	99.48495	-56.39752	99.48495
16500.00000	99.76678	-58.50250	99.76678
16550.00000	100.23053	-61.33279	100.23053
16600.00000	100.64149	-62.43195	100.64149
16650.00000	100.85749	-64.52369	100.85749
16700.00000	101.14597	-66.34268	101.14597
16750.00000	101.31984	-69.41635	101.31984
16800.00000	101.67801	-71.97838	101.67801
16850.00000	101.99667	-74.23846	101.99667
16900.00000	102.35015	-76.30029	102.35015
16950.00000	102.57680	-78.94903	102.57680
17000.00000	102.60431	-81.73622	102.60431
17050.00000	102.88613	-84.19529	102.88613
17100.00000	103.09380	-85.96437	103.09380
17150.00000	103.46884	-89.27830	103.46884
17200.00000	103.64729	-91.59582	103.64729
17250.00000	103.75802	-94.56982	103.75802
17300.00000	103.98227	-97.41007	103.98227
17350.00000	104.09694	-99.64127	104.09694
17400.00000	104.33818	-102.38696	104.33818
17450.00000	104.44243	-105.52928	104.44243
17500.00000	104.61685	-108.04180	104.61685
17550.00000	104.77326	-110.92838	104.77326
17600.00000	105.00806	-113.25012	105.00806
17650.00000	105.13880	-116.66873	105.13880
17700.00000	105.24227	-119.48937	105.24227
17750.00000	105.50793	-121.63126	105.50793
17800.00000	105.52374	-124.91234	105.52374
17850.00000	105.64124	-127.02139	105.64124
17900.00000	105.74473	-129.75234	105.74473
17950.00000	105.90960	-132.97504	105.90960
18000.00000	106.03795	-136.21058	106.03795
18050.00000	106.28589	-138.34415	106.28589
18100.00000	106.35137	-141.50935	106.35137
18150.00000	106.41022	-143.28289	106.41022
18200.00000	106.45772	-146.50985	106.45772
18250.00000	106.65121	-148.62214	106.65121
18300.00000	106.85210	-151.47743	106.85210
18350.00000	106.96025	-154.17142	106.96025
18400.00000	107.03429	-157.03634	107.03429
18450.00000	107.08233	-160.99336	107.08233
18500.00000	107.23721	-163.64139	107.23721
18550.00000	107.35810	-166.13327	107.35810
18600.00000	107.57974	-169.60209	107.57974
18650.00000	107.57671	-172.05893	107.57671
18700.00000	107.70266	-175.48148	107.70266
18750.00000	107.86513	-178.43290	107.86513
18800.00000	108.07340	-181.02133	108.07340
18850.00000	108.06159	-184.58049	108.06159
18900.00000	108.16173	-187.72178	108.16173
18950.00000	108.29043	-191.46269	108.29043
19000.00000	108.25502	-194.20256	108.25502
19050.00000	108.44643	-197.79739	108.44643
19100.00000	108.45855	-201.11195	108.45855
19150.00000	108.64502	-204.38870	108.64502
19200.00000	108.68227	-207.50443	108.68227
19250.00000	108.68377	-212.02596	108.68377
19300.00000	108.64745	-214.90726	108.64745
19350.00000	108.68985	-218.38193	108.68985
19400.00000	108.64887	-221.79053	108.64887
19450.00000	108.73727	-224.74191	108.73727
19500.00000	108.62390	-228.91781	108.62390
19550.00000	108.64362	-232.29393	108.64362
19600.00000	108.68857	-236.24514	108.68857
19650.00000	108.57989	-239.15364	108.57989
19700.00000	108.43215	-242.59374	108.43215
19750.00000	108.35484	-245.43685	108.35484
19800.00000	108.40150	-249.77889	108.40150
19850.00000	108.34710	-252.57794	108.34710
19900.00000	108.20067	-256.68989	108.20067
19950.00000	108.08653	-259.82730	108.08653
20000.00000	107.99686	-263.19466	107.99686
20050.00000	107.92185	-266.45744	107.92185
20100.00000	107.70838	-269.73887	107.70838
20150.00000	107.62711	-272.06015	107.62711
20200.00000	107.43750	-275.81807	107.43750
20250.00000	107.23781	-278.81782	107.23781
20300.00000	106.99964	-281.84400	106.99964
20350.00000	106.90851	-284.87944	106.90851
20400.00000	106.63367	-286.74333	106.63367
20450.00000	106.34963	-289.53133	106.34963
20500.00000	106.21858	-292.36940	106.21858
20550.00000	105.78338	-293.96980	105.78338
20600.00000	105.65444	-295.85816	105.65444
20650.00000	105.43392	-297.77108	105.43392
20700.00000	105.16430	-299.46514	105.16430
20750.00000	105.01232	-300.87938	105.01232
20800.00000	104.77514	-301.82495	104.77514
20850.00000	104.67902	-303.12425	104.67902
20900.00000	104.47521	-304.00821	104.47521
20950.00000	104.33044	-304.32716	104.33044
21000.00000	104.24809	-304.96851	104.24809
21050.00000	104.34604	-305.31763	104.34604
21100.00000	104.32740	-305.60864	104.32740
21150.00000	104.43285	-306.45923	104.43285
21200.00000	104.55133	-307.04857	104.55133
21250.00000	104.68115	-309.23240	104.68115
21300.00000	104.89034	-309.84050	104.89034
21350.00000	105.01596	-310.99149	105.01596
21400.00000	105.14759	-313.13409	105.14759
21450.00000	105.32350	-315.07348	105.32350
21500.00000	105.49501	-317.54699	105.49501
21550.00000	105.52726	-319.47114	105.52726
21600.00000	105.72282	-321.95072	105.72282
21650.00000	105.77958	-324.60309	105.77958
21700.00000	105.84782	-326.81292	105.84782
21750.00000	105.94161	-329.46941	105.94161
21800.00000	106.00420	-332.06171	106.00420
21850.00000	105.97930	-334.40857	105.97930
21900.00000	106.02896	-337.17899	106.02896
21950.00000	106.04459	-339.41418	106.04459
22000.00000	106.13321	-341.83426	106.13321
22050.00000	106.10962	-343.87768	106.10962
22100.00000	106.04392	-346.43067	106.04392
22150.00000	106.03750	-348.57360	106.03750
22200.00000	106.11632	-351.21608	106.11632
22250.00000	106.05536	-352.76514	106.05536
22300.00000	105.91812	-355.02070	105.91812
22350.00000	106.01688	-357.65562	106.01688
22400.00000	106.01155	-359.97042	106.01155
22450.00000	105.96284	-361.79698	105.96284
22500.00000	105.84864	-362.77661	105.84864
22550.00000	105.86272	-365.11970	105.86272
22600.00000	105.81984	-367.79253	105.81984
22650.00000	105.82905	-369.80785	105.82905
22700.00000	105.79680	-371.25993	105.79680
22750.00000	105.74258	-371.52784	105.74258
22800.00000	105.77132	-375.45954	105.77132
22850.00000	105.86131	-377.89617	105.86131
22900.00000	105.86929	-378.16687	105.86929
22950.00000	105.87821	-380.08276	105.87821
23000.00000	105.87157	-381.16455	105.87157
23050.00000	105.76250	-383.85350	105.76250
23100.00000	105.92713	-384.50127	105.92713
23150.00000	105.82395	-385.52963	105.82395
23200.00000	105.96021	-388.78017	105.96021
23250.00000	105.79893	-391.17413	105.79893
23300.00000	106.12950	-393.26767	106.12950
23350.00000	105.89333	-395.19163	105.89333
23400.00000	105.95622	-396.70601	105.95622
23450.00000	106.10060	-398.91789	106.10060
23500.00000	105.93926	-399.96711	105.93926
23550.00000	106.00569	-400.80434	106.00569
23600.00000	105.99572	-404.66921	105.99572
23650.00000	106.11972	-405.75526	106.11972
23700.00000	106.30745	-409.69617	106.30745
23750.00000	106.27039	-410.51239	106.27039
23800.00000	106.01903	-411.53845	106.01903
23850.00000	106.23741	-412.84055	106.23741
23900.00000	106.59287	-415.74276	106.59287
23950.00000	106.31314	-418.83181	106.31314
24000.00000	106.27317	-421.58935	106.27317
24050.00000	106.44907	-422.00756	106.44907
24100.00000	106.73380	-425.62932	106.73380
24150.00000	106.73648	-427.81629	106.73648
24200.00000	106.71013	-432.08595	106.71013
24250.00000	106.48894	-432.99128	106.48894
24300.00000	106.81130	-435.87702	106.81130
24350.00000	106.72447	-438.13310	106.72447
24400.00000	106.65212	-442.00562	106.65212
24450.00000	106.44481	-444.35110	106.44481
24500.00000	106.85182	-445.97919	106.85182
24550.00000	106.67046	-91.47039	106.67046
24600.00000	107.07066	267.03972	107.07066
24650.00000	106.75937	622.86872	106.75937
24700.00000	106.50152	982.27311	106.50152
24750.00000	106.56315	1336.92042	106.56315
24800.00000	106.50674	1694.38931	106.50674
24850.00000	106.07682	2052.67696	106.07682
24900.00000	106.18906	2410.89652	106.18906
24950.00000	106.27769	2765.44405	106.27769
25000.00000	106.03251	2759.03714	106.03251
25050.00000	105.98889	2759.44021	105.98889
25100.00000	105.49773	2755.78770	105.49773
25150.00000	105.73210	2754.42113	105.73210
25200.00000	105.38415	2750.28629	105.38415
25250.00000	105.38527	2748.60540	105.38527
25300.00000	105.36597	2746.81849	105.36597
25350.00000	105.16853	2739.93905	105.16853
25400.00000	104.95259	2736.49210	104.95259
25450.00000	104.92694	2734.75585	104.92694
25500.00000	104.54767	2732.87296	104.54767
25550.00000	104.38773	2728.98750	104.38773
25600.00000	104.28500	2726.58065	104.28500
25650.00000	104.14637	2724.95633	104.14637
25700.00000	103.96724	2722.06698	103.96724
25750.00000	103.63511	2719.46500	103.63511
25800.00000	103.40577	2715.25590	103.40577
25850.00000	103.27536	2713.59900	103.27536
25900.00000	103.08720	2709.35098	103.08720
25950.00000	102.76293	2711.26896	102.76293
26000.00000	102.65239	2705.82349	102.65239
26050.00000	102.48613	2703.44964	102.48613
26100.00000	102.23534	2701.48143	102.23534
26150.00000	102.17018	2699.12388	102.17018
26200.00000	102.03161	2696.79020	102.03161
26250.00000	101.81080	2693.90907	101.81080
26300.00000	101.78458	2690.98930	101.78458
26350.00000	101.05224	2690.09583	101.05224
26400.00000	101.05141	2688.29235	101.05141
26450.00000	101.25896	2684.27533	101.25896
26500.00000	100.82122	2682.05141	100.82122
26550.00000	100.56312	2676.81053	100.56312
26600.00000	100.28396	2674.88956	100.28396
26650.00000	100.28153	2675.64659	100.28153
26700.00000	100.04632	2671.85422	100.04632
26750.00000	99.64737	2670.05373	99.64737
26800.00000	99.48050	2665.63521	99.48050
26850.00000	99.61145	2665.38517	99.61145
26900.00000	99.25340	2663.39220	99.25340
26950.00000	99.21242	2659.62862	99.21242
27000.00000	98.70667	2659.54298	98.70667
27050.00000	98.74982	2656.45171	98.74982
27100.00000	98.18617	2655.78794	98.18617
27150.00000	98.11033	2653.48687	98.11033
27200.00000	97.97353	2651.66497	97.97353
27250.00000	97.43310	2651.30902	97.43310
27300.00000	97.29490	2648.74757	97.29490
27350.00000	97.19105	2648.68250	97.19105
27400.00000	96.72816	2647.28743	96.72816
27450.00000	96.68757	2645.34565	96.68757
27500.00000	96.45990	2645.35454	96.45990
27550.00000	96.41008	2642.83726	96.41008
27600.00000	96.41229	2642.91030	96.41229
27650.00000	95.98506	2644.02666	95.98506
27700.00000	96.13554	2640.03879	96.13554
27750.00000	96.09639	2637.18144	96.09639
27800.00000	96.12441	2634.87498	96.12441
27850.00000	96.40421	2638.74437	96.40421
27900.00000	95.87651	2638.27614	95.87651
27950.00000	95.38496	2636.07220	95.38496
28000.00000	95.63938	2635.41493	95.63938
28050.00000	96.08132	2632.70776	96.08132
28100.00000	95.55735	2632.63403	95.55735
28150.00000	95.62195	2631.99420	95.62195
28200.00000	95.94948	2628.46884	95.94948
28250.00000	95.53557	2624.98118	95.53557
28300.00000	95.46317	2627.56545	95.46317
28350.00000	95.66743	2626.64971	95.66743
28400.00000	95.57163	2627.01786	95.57163
28450.00000	96.35179	2624.09335	96.35179
28500.00000	95.87862	2623.68771	95.87862
28550.00000	95.90824	2626.15415	95.90824
28600.00000	95.88830	2623.52798	95.88830
28650.00000	96.15160	2619.89915	96.15160
28700.00000	96.26883	2620.31588	96.26883
28750.00000	96.81539	2621.50064	96.81539
28800.00000	96.84664	2618.52887	96.84664
28850.00000	96.32300	2614.62539	96.32300
28900.00000	96.67190	2613.67659	96.67190
28950.00000	96.54947	2614.16670	96.54947
29000.00000	96.93805	2612.72192	96.93805
29050.00000	96.88848	2613.12209	96.88848
29100.00000	97.03592	2613.87834	97.03592
29150.00000	96.92278	2611.84807	96.92278
29200.00000	96.98110	2608.69265	96.98110
29250.00000	97.47805	2608.96276	97.47805
29300.00000	97.21901	2606.72782	97.21901
29350.00000	97.91125	2604.47412	97.91125
29400.00000	97.86722	2603.61560	97.86722
29450.00000	97.96753	2602.18455	97.96753
29500.00000	98.34443	2601.39772	98.34443
29550.00000	98.16346	2597.43651	98.16346
29600.00000	98.15855	2598.39135	98.15855
29650.00000	98.58471	2595.47664	98.58471
29700.00000	98.56918	2596.70584	98.56918
29750.00000	98.64078	2595.57269	98.64078
29800.00000	98.50072	2592.25370	98.50072
29850.00000	98.74059	2590.09180	98.74059
29900.00000	99.04983	2590.36417	99.04983
29950.00000	98.46544	2589.54192	98.46544
30000.00000	98.92291	2589.76133	98.92291
30050.00000	99.16976	2587.25044	99.16976
30100.00000	98.94918	2587.49857	98.94918
30150.00000	99.07927	2583.99331	99.07927
30200.00000	99.18393	2582.48005	99.18393
30250.00000	99.01937	2582.53435	99.01937
30300.00000	98.89585	2582.74533	98.89585
30350.00000	99.07036	2583.78055	99.07036
30400.00000	99.10740	2581.57366	99.10740
30450.00000	98.93035	2580.85268	98.93035
30500.00000	99.01214	2580.17772	99.01214
30550.00000	99.03984	2581.81163	99.03984
30600.00000	99.04403	2582.07886	99.04403
30650.00000	99.20369	2582.21741	99.20369
30700.00000	99.32909	2581.34761	99.32909
30750.00000	99.18782	2583.14177	99.18782
30800.00000	99.36089	2583.50268	99.36089
30850.00000	99.63845	2584.62205	99.63845
30900.00000	99.52736	2586.60669	99.52736
30950.00000	99.97894	2585.81774	99.97894
31000.00000	100.23694	2586.01099	100.23694
31050.00000	100.52467	2587.08207	100.52467
31100.00000	101.02636	2587.54436	101.02636
31150.00000	101.02425	2587.24919	101.02425
31200.00000	101.76973	2587.14348	101.76973
31250.00000	102.01869	2586.33071	102.01869
31300.00000	102.35682	2585.79777	102.35682
31350.00000	102.87713	2584.36332	102.87713
31400.00000	103.11810	2582.64264	103.11810
31450.00000	103.52096	2581.37017	103.52096
31500.00000	103.83599	2578.59904	103.83599
31550.00000	104.28220	2576.97142	104.28220
31600.00000	104.76106	2573.60414	104.76106
31650.00000	104.97776	2571.11338	104.97776
31700.00000	105.26415	2568.92617	105.26415
31750.00000	105.57800	2567.47853	105.57800
31800.00000	105.76808	2563.50706	105.76808
31850.00000	106.09042	2559.92069	106.09042
31900.00000	106.07677	2557.76372	106.07677
31950.00000	106.43950	2554.36696	106.43950
32000.00000	106.57194	2551.24686	106.57194
32050.00000	106.76912	2548.07569	106.76912
32100.00000	106.80554	2543.92769	106.80554
32150.00000	106.82783	2541.57724	106.82783
32200.00000	107.05003	2537.64461	107.05003
32250.00000	107.06992	2533.74000	107.06992
32300.00000	107.08366	2530.75548	107.08366
32350.00000	107.00468	2528.07889	107.00468
32400.00000	107.14539	2525.13168	107.14539
32450.00000	107.08415	2521.91950	107.08415
32500.00000	107.06185	2519.34073	107.06185
32550.00000	107.22500	2514.13874	107.22500
32600.00000	107.01401	2512.53714	107.01401
32650.00000	107.13055	2509.26820	107.13055
32700.00000	106.94862	2505.84341	106.94862
32750.00000	106.86302	2503.03763	106.86302
32800.00000	107.02951	2500.95110	107.02951
32850.00000	106.98083	2497.52454	106.98083
32900.00000	106.81674	2494.13739	106.81674
32950.00000	106.74730	2490.52481	106.74730
33000.00000	106.74591	2489.93526	106.74591
33050.00000	106.59007	2486.10990	106.59007
33100.00000	106.69203	2483.80537	106.69203
33150.00000	106.68246	2480.52711	106.68246
33200.00000	106.77952	2479.29006	106.77952
33250.00000	106.60421	2477.27038	106.60421
33300.00000	106.60447	2474.31366	106.60447
33350.00000	106.66713	2471.34064	106.66713
33400.00000	106.58674	2469.80020	106.58674
33450.00000	106.79665	2466.66904	106.79665
33500.00000	106.91098	2465.55076	106.91098
33550.00000	106.67643	2461.65819	106.67643
33600.00000	107.06593	2459.39413	107.06593
33650.00000	107.13481	2456.10830	107.13481
33700.00000	107.16799	2453.39877	107.16799
33750.00000	107.10221	2451.01344	107.10221
33800.00000	107.42364	2447.50472	107.42364
33850.00000	107.08047	2444.61855	107.08047
33900.00000	107.48294	2441.10921	107.48294
33950.00000	107.52309	2438.63637	107.52309
34000.00000	107.77603	2434.75055	107.77603
34050.00000	107.61617	2431.29440	107.61617
34100.00000	107.59589	2429.48403	107.59589
34150.00000	107.68461	2425.28035	107.68461
34200.00000	107.75938	2424.16805	107.75938
34250.00000	107.91236	2418.90094	107.91236
34300.00000	107.77852	2416.68825	107.77852
34350.00000	107.91676	2413.16947	107.91676
34400.00000	107.64181	2411.42928	107.64181
34450.00000	107.94327	2405.87246	107.94327
34500.00000	107.91692	2403.66933	107.91692
34550.00000	107.99897	2399.92766	107.99897
34600.00000	107.52500	2396.38479	107.52500
34650.00000	107.95532	2396.61013	107.95532
34700.00000	107.48226	2393.84720	107.48226
34750.00000	107.62785	2386.95287	107.62785
34800.00000	107.70714	2388.19429	107.70714
34850.00000	107.70233	2386.45851	107.70233
34900.00000	107.94363	2381.69161	107.94363
34950.00000	107.72983	2381.56730	107.72983
35000.00000	107.73809	2378.91693	107.73809
35050.00000	107.94585	2377.59337	107.94585
35100.00000	108.02663	2375.10900	108.02663
35150.00000	107.68886	2373.14874	107.68886
35200.00000	107.98767	2369.19676	107.98767
35250.00000	108.02425	2366.29881	108.02425
35300.00000	108.17704	2363.99877	108.17704
35350.00000	108.34072	2361.28960	108.34072
35400.00000	108.36865	2360.52962	108.36865
35450.00000	108.32319	2357.97742	108.32319
35500.00000	108.13960	2356.47894	108.13960
35550.00000	108.62115	2355.19533	108.62115
35600.00000	108.55728	2352.47094	108.55728
35650.00000	108.70104	2350.63725	108.70104
35700.00000	108.77748	2349.19731	108.77748
35750.00000	108.80587	2348.15528	108.80587
35800.00000	109.01158	2346.03273	109.01158
35850.00000	109.20899	2343.20988	109.20899
35900.00000	109.41177	2341.52159	109.41177
35950.00000	109.72225	2339.23485	109.72225
36000.00000	109.74918	2337.18730	109.74918
36050.00000	110.05873	2335.37193	110.05873
36100.00000	110.35509	2333.70392	110.35509
36150.00000	110.14400	2329.89614	110.14400
36200.00000	110.36251	2328.99767	110.36251
36250.00000	110.42141	2326.09269	110.42141
36300.00000	110.57270	2323.96941	110.57270
36350.00000	110.70642	2322.51952	110.70642
36400.00000	110.95865	2320.52851	110.95865
36450.00000	110.77607	2318.15097	110.77607
36500.00000	111.11715	2317.42782	111.11715
36550.00000	111.18298	2314.00971	111.18298
36600.00000	111.24836	2312.40105	111.24836
36650.00000	111.53434	2311.15687	111.53434
36700.00000	111.82523	2307.33047	111.82523
36750.00000	111.72227	2306.07077	111.72227
36800.00000	111.80840	2304.62695	111.80840
36850.00000	111.84110	2302.53688	111.84110
36900.00000	112.10804	2300.38783	112.10804
36950.00000	112.05760	2298.25851	112.05760
37000.00000	111.99571	2297.81447	111.99571
37050.00000	112.13443	2296.29434	112.13443
37100.00000	112.35903	2293.63357	112.35903
37150.00000	112.41293	2290.86651	112.41293
37200.00000	112.77940	2291.17945	112.77940
37250.00000	112.53045	2288.94353	112.53045
37300.00000	112.67951	2286.92854	112.67951
37350.00000	113.05480	2285.50560	113.05480
37400.00000	112.87983	2284.70213	112.87983
37450.00000	112.94698	2283.13852	112.94698
37500.00000	113.50896	2280.31080	113.50896
37550.00000	113.25923	2279.13243	113.25923
37600.00000	113.42618	2277.55334	113.42618
37650.00000	113.53625	2275.65461	113.53625
37700.00000	113.79858	2272.96991	113.79858
37750.00000	113.85857	2271.72471	113.85857
37800.00000	113.85925	2268.85663	113.85925
37850.00000	113.99775	2265.80839	113.99775
37900.00000	114.11892	2264.55076	114.11892
37950.00000	114.23857	2263.20727	114.23857
38000.00000	114.22577	2261.24555	114.22577
38050.00000	114.39708	2258.56835	114.39708
38100.00000	114.58629	2256.51086	114.58629
38150.00000	114.63830	2253.14869	114.63830
38200.00000	114.87379	2250.09012	114.87379
38250.00000	114.96440	2247.73508	114.96440
38300.00000	115.08038	2244.40853	115.08038
38350.00000	115.11652	2242.41659	115.11652
38400.00000	115.19658	2239.52374	115.19658
38450.00000	115.30947	2235.66481	115.30947
38500.00000	115.48346	2231.82002	115.48346
38550.00000	115.57405	2229.21176	115.57405
38600.00000	115.69529	2225.68862	115.69529
38650.00000	115.76776	2222.24053	115.76776
38700.00000	115.79911	2218.14803	115.79911
38750.00000	115.87288	2214.46835	115.87288
38800.00000	115.93032	2211.06671	115.93032
38850.00000	115.95228	2206.83240	115.95228
38900.00000	115.99699	2202.65900	115.99699
38950.00000	115.99579	2198.81496	115.99579
39000.00000	115.98523	2194.10553	115.98523
39050.00000	116.02489	2190.32765	116.02489
39100.00000	115.84927	2185.88081	115.84927
39150.00000	115.75687	2181.60626	115.75687
39200.00000	115.70122	2177.73710	115.70122
39250.00000	115.63804	2173.28361	115.63804
39300.00000	115.53623	2169.19993	115.53623
39350.00000	115.37755	2165.60598	115.37755
39400.00000	115.23703	2161.03838	115.23703
39450.00000	115.03608	2157.50167	115.03608
39500.00000	114.94889	2153.66667	114.94889
39550.00000	114.73362	2149.85122	114.73362
39600.00000	114.52437	2146.18641	114.52437
39650.00000	114.36101	2143.09847	114.36101
39700.00000	114.21123	2139.75600	114.21123
39750.00000	114.10345	2136.27047	114.10345
39800.00000	113.96444	2132.79403	113.96444
39850.00000	113.78720	2129.35902	113.78720
39900.00000	113.67297	2126.62052	113.67297
39950.00000	113.50176	2123.46496	113.50176
40000.00000	113.29129	2121.52695	113.29129
40050.00000	113.26383	2117.05837	113.26383
40100.00000	113.13993	2113.79602	113.13993
40150.00000	112.99704	2110.45437	112.99704
40200.00000	112.84168	2107.53784	112.84168
40250.00000	112.76767	2104.89383	112.76767
40300.00000	112.71985	2101.86931	112.71985
40350.00000	112.42137	2098.81199	112.42137
40400.00000	112.26391	2096.04817	112.26391
40450.00000	112.17336	2093.10416	112.17336
40500.00000	112.08394	2091.21517	112.08394
40550.00000	112.00786	2087.81876	112.00786
40600.00000	111.82282	2085.56077	111.82282
40650.00000	111.63647	2083.49806	111.63647
40700.00000	111.41894	2081.67315	111.41894
40750.00000	111.48791	2079.41359	111.48791
40800.00000	111.32988	2076.92218	111.32988
40850.00000	111.18360	2075.99061	111.18360
40900.00000	111.01273	2073.17051	111.01273
40950.00000	110.81427	2072.52559	110.81427
41000.00000	110.59209	2070.97981	110.59209
41050.00000	110.63197	2069.79220	110.63197
41100.00000	110.66612	2068.07859	110.66612
41150.00000	110.76141	2068.71036	110.76141
41200.00000	110.73756	2067.11319	110.73756
41250.00000	110.70318	2064.21364	110.70318
41300.00000	110.42630	2064.46921	110.42630
41350.00000	110.70352	2065.21895	110.70352
41400.00000	110.72167	2059.18689	110.72167
41450.00000	110.74076	2061.53329	110.74076
41500.00000	110.72149	2060.66324	110.72149
41550.00000	110.63762	2063.78655	110.63762
41600.00000	110.47048	2060.59842	110.47048
41650.00000	111.10442	2059.65454	111.10442
41700.00000	111.23248	2059.48355	111.23248
41750.00000	111.09605	2062.87953	111.09605
41800.00000	110.38303	2056.97443	110.38303
41850.00000	111.00024	2059.56982	111.00024
41900.00000	110.31973	2057.66191	110.31973
41950.00000	111.79024	2062.05832	111.79024
42000.00000	110.74781	2056.08985	110.74781
42050.00000	109.95191	2055.88268	109.95191
42100.00000	110.60182	2056.50574	110.60182
42150.00000	110.09846	2052.47516	110.09846
42200.00000	110.10968	2057.49654	110.10968
42250.00000	110.44107	2057.53520	110.44107
42300.00000	109.40242	2053.78921	109.40242
42350.00000	109.93238	2056.41729	109.93238
42400.00000	109.85899	2056.73408	109.85899
42450.00000	110.35337	2052.40303	110.35337
42500.00000	109.87980	2052.45877	109.87980
42550.00000	109.82886	2063.76492	109.82886
42600.00000	109.54591	2055.45743	109.54591
42650.00000	109.39653	2057.45108	109.39653
42700.00000	109.03496	2055.48734	109.03496
42750.00000	110.03712	2054.55323	110.03712
42800.00000	109.27705	2049.24978	109.27705
42850.00000	109.20624	2050.40038	109.20624
42900.00000	110.20736	2052.88024	110.20736
42950.00000	109.20503	2050.12098	109.20503
43000.00000	109.94798	2039.36860	109.94798
43050.00000	109.06972	2040.47519	109.06972
43100.00000	109.56952	2045.03400	109.56952
43150.00000	108.57496	2040.61030	108.57496
43200.00000	108.99541	2038.15779	108.99541
43250.00000	109.16978	2036.54130	109.16978
43300.00000	109.19100	2034.07753	109.19100
43350.00000	109.73758	2030.20364	109.73758
43400.00000	108.99683	2028.32448	108.99683
43450.00000	109.89906	2029.28840	109.89906
43500.00000	108.74731	2019.85345	108.74731
43550.00000	109.14103	2018.21380	109.14103
43600.00000	109.04885	2013.30213	109.04885
43650.00000	109.61526	2005.29737	109.61526
43700.00000	108.89067	2004.19520	108.89067
43750.00000	108.46620	2004.68679	108.46620
43800.00000	108.70346	1994.75076	108.70346
43850.00000	109.03923	1988.55937	109.03923
43900.00000	109.13089	1986.54995	109.13089
43950.00000	109.08487	1979.86938	109.08487
44000.00000	107.91209	1975.48230	107.91209
44050.00000	108.07060	1971.57454	108.07060
44100.00000	108.21994	1958.44689	108.21994
44150.00000	107.49764	1960.53620	107.49764
44200.00000	107.29351	1959.49735	107.29351
44250.00000	107.19422	1950.85405	107.19422
44300.00000	107.34864	1944.37793	107.34864
44350.00000	106.13797	1939.00691	106.13797
44400.00000	106.74262	1935.61196	106.74262
44450.00000	106.61025	1934.07136	106.61025
44500.00000	105.56410	1928.69786	105.56410
44550.00000	106.66750	1920.42437	106.66750
44600.00000	105.58514	1923.47362	105.58514
44650.00000	105.24527	1912.20392	105.24527
44700.00000	104.52415	1909.39522	104.52415
44750.00000	104.36135	1908.36421	104.36135
44800.00000	104.65465	1900.19653	104.65465
44850.00000	104.32613	1896.43660	104.32613
44900.00000	104.00415	1895.55562	104.00415
44950.00000	103.94440	1886.65692	103.94440
45000.00000	103.70385	1879.12062	103.70385
45050.00000	102.26126	1885.55751	102.26126
45100.00000	102.65149	1876.58815	102.65149
45150.00000	102.94899	1866.05172	102.94899
45200.00000	102.28877	1868.53783	102.28877
45250.00000	101.48394	1863.45451	101.48394
45300.00000	101.26831	1856.06204	101.26831
45350.00000	101.24748	1850.30874	101.24748
45400.00000	101.31540	1848.98065	101.31540
45450.00000	101.12347	1840.55269	101.12347
45500.00000	98.51905	1827.59820	98.51905
45550.00000	99.12520	1837.97720	99.12520
45600.00000	100.14447	1825.39254	100.14447
45650.00000	98.29068	1819.88678	98.29068
45700.00000	98.06466	1818.15017	98.06466
45750.00000	98.66635	1816.33507	98.66635
45800.00000	98.05493	1809.08252	98.05493
45850.00000	97.95728	1806.21785	97.95728
45900.00000	97.17800	1802.79524	97.17800
45950.00000	97.10504	1804.38582	97.10504
46000.00000	94.25326	1779.83233	94.25326
46050.00000	95.25784	1785.69704	95.25784
46100.00000	94.15541	1789.19616	94.15541
46150.00000	94.02478	1786.46318	94.02478
46200.00000	91.61538	1775.29790	91.61538
46250.00000	92.88004	1772.17815	92.88004
46300.00000	91.58812	1772.86897	91.58812
46350.00000	92.27485	1767.39420	92.27485
46400.00000	91.27597	1762.56277	91.27597
46450.00000	87.93513	1758.78575	87.93513
46500.00000	90.43891	1763.49269	90.43891
46550.00000	89.03928	1763.30655	89.03928
46600.00000	89.51353	1770.76808	89.51353
46650.00000	86.26494	1758.31925	86.26494
46700.00000	86.13334	1771.08854	86.13334
46750.00000	86.58560	1775.62020	86.58560
46800.00000	84.21958	1756.61945	84.21958
46850.00000	86.90670	1418.49776	86.90670
46900.00000	86.22895	1403.34173	86.22895
46950.00000	85.52540	1407.59941	85.52540
47000.00000	86.17024	1407.11866	86.17024
47050.00000	87.52252	1396.08925	87.52252
47100.00000	86.05414	1398.04018	86.05414
47150.00000	85.83700	1393.37147	85.83700
47200.00000	85.20596	1394.19010	85.20596
47250.00000	86.90421	1391.82524	86.90421
47300.00000	86.16786	1388.33918	86.16786
47350.00000	85.96060	1036.49518	85.96060
47400.00000	83.26312	1029.07322	83.26312
47450.00000	85.95966	1037.34954	85.95966
47500.00000	85.46645	1023.01313	85.46645
47550.00000	83.58784	667.90856	83.58784
47600.00000	85.03912	671.97662	85.03912
47650.00000	86.42922	665.02922	86.42922
47700.00000	86.20141	653.47484	86.20141
47750.00000	83.09470	669.55663	83.09470
47800.00000	86.00877	656.18763	86.00877
47850.00000	84.48761	298.48697	84.48761
47900.00000	86.20051	-47.60741	86.20051
47950.00000	85.58218	-55.75336	85.58218
48000.00000	84.81105	-47.46424	84.81105
48050.00000	87.41816	-56.69630	87.41816
48100.00000	86.32305	-68.71896	86.32305
48150.00000	87.35487	-429.68326	87.35487
48200.00000	88.52222	-422.40773	88.52222
48250.00000	87.87209	-435.26547	87.87209
48300.00000	87.75028	-442.28970	87.75028
48350.00000	87.92344	-444.05730	87.92344
48400.00000	87.59336	-798.06574	87.59336
48450.00000	88.52669	-803.15508	88.52669
48500.00000	88.49044	-807.08088	88.49044
48550.00000	88.05580	-826.30414	88.05580
48600.00000	88.83123	-1170.02305	88.83123
48650.00000	88.89141	-1177.33586	88.89141
48700.00000	89.14805	-1176.99266	89.14805
48750.00000	86.99618	-1536.38465	86.99618
48800.00000	88.35866	-1545.69636	88.35866
48850.00000	88.68701	-1557.55508	88.68701
48900.00000	88.49685	-1910.62310	88.49685
48950.00000	86.21326	-1921.92454	86.21326
49000.00000	88.74276	-1921.85311	88.74276
49050.00000	86.67543	-1926.70460	86.67543
49100.00000	86.62150	-2292.57297	86.62150
49150.00000	89.42116	-2644.74267	89.42116
49200.00000	89.85522	-2654.61765	89.85522
49250.00000	87.67429	-3031.01655	87.67429
49300.00000	86.56758	-2673.55956	86.56758
49350.00000	84.18894	-2667.61372	84.18894
49400.00000	86.37426	-2316.43137	86.37426
49450.00000	84.86699	-1971.50157	84.86699
49500.00000	82.41818	-1619.82109	82.41818
49550.00000	85.72298	-1267.92138	85.72298
49600.00000	84.63277	-1268.36228	84.63277
49650.00000	83.91482	-1270.12589	83.91482
49700.00000	85.72664	-927.42716	85.72664
49750.00000	85.08911	-980.38682	85.08911
49800.00000	80.97035	-936.70537	80.97035
49850.00000	79.61872	-941.42110	79.61872
49900.00000	82.27443	-579.12482	82.27443
49950.00000	71.32835	-292.26921	71.32835
