---ACOUSTIC CALIBRATION---
Filename: C:\Data\AZH DATA\AZH72\RightPrimary.calib
Date: 8/27/2019 5:52:34 PM
Format: 4
Probe Tube Correction File: C:\Data\Probe Tube Calibrations\50_ProbeTube.calib
Experiment VIs: 850
EPL_CFTS.exe V12.0.1 (2012)
DAQmx V9.6

Attenuation (dB): 40.000000
Min Freq (Hz): 50.000000
Max Freq (Hz): 49950.000000
Freq Step (Hz): 50.000000
Sample Rate (Hz): 100000.000000
[Smoothing]
Method=None
MA.Iterations=0
MA.Length=0
Loess.Length=0
Loess.Type=Linear
Loess.Robust=FALSE


Freq(Hz)	Mag(dB)	Phase(deg)	Unsmoothed(dB)

50.00000	103.06817	477.66344	103.06817
100.00000	80.71314	576.63461	80.71314
150.00000	76.77730	468.41278	76.77730
200.00000	81.91506	432.47448	81.91506
250.00000	85.78261	439.59655	85.78261
300.00000	92.53302	373.16871	92.53302
350.00000	83.71583	436.02009	83.71583
400.00000	86.76431	371.90606	86.76431
450.00000	86.69699	366.11450	86.69699
500.00000	86.88127	378.85758	86.88127
550.00000	92.36535	371.65023	92.36535
600.00000	93.89653	364.28242	93.89653
650.00000	96.52815	352.50817	96.52815
700.00000	98.70022	335.84154	98.70022
750.00000	100.69327	319.10154	100.69327
800.00000	101.38752	292.09224	101.38752
850.00000	101.09404	278.41876	101.09404
900.00000	99.49168	259.23707	99.49168
950.00000	97.63929	259.02488	97.63929
1000.00000	96.25681	258.78268	96.25681
1050.00000	94.40451	273.56299	94.40451
1100.00000	95.96335	294.68676	95.96335
1150.00000	98.66260	300.52573	98.66260
1200.00000	101.49269	298.12263	101.49269
1250.00000	103.17998	290.75037	103.17998
1300.00000	104.95429	285.11204	104.95429
1350.00000	106.14405	275.58940	106.14405
1400.00000	107.00280	269.15777	107.00280
1450.00000	107.92128	262.08367	107.92128
1500.00000	108.99062	255.83242	108.99062
1550.00000	109.88160	246.95377	109.88160
1600.00000	111.23831	237.66002	111.23831
1650.00000	112.32158	220.92461	112.32158
1700.00000	111.03803	210.83827	111.03803
1750.00000	110.81635	205.15503	110.81635
1800.00000	110.51957	200.24862	110.51957
1850.00000	110.69047	199.14573	110.69047
1900.00000	111.73544	195.13496	111.73544
1950.00000	112.47837	182.30880	112.47837
2000.00000	111.64385	170.33554	111.64385
2050.00000	110.30990	174.02822	110.30990
2100.00000	112.07302	174.36858	112.07302
2150.00000	112.69081	163.13028	112.69081
2200.00000	112.66775	153.15346	112.66775
2250.00000	112.07095	146.01294	112.07095
2300.00000	112.23595	140.64629	112.23595
2350.00000	111.95615	134.10207	111.95615
2400.00000	111.70932	128.70801	111.70932
2450.00000	111.43815	121.87388	111.43815
2500.00000	111.08921	116.97325	111.08921
2550.00000	110.67918	111.36363	110.67918
2600.00000	110.09386	106.94849	110.09386
2650.00000	109.63735	103.11730	109.63735
2700.00000	109.05539	99.32427	109.05539
2750.00000	108.56410	95.87911	108.56410
2800.00000	107.96910	93.38934	107.96910
2850.00000	107.41686	91.11901	107.41686
2900.00000	106.86199	88.89862	106.86199
2950.00000	106.26678	88.00508	106.26678
3000.00000	105.68342	86.54337	105.68342
3050.00000	104.97936	85.15041	104.97936
3100.00000	104.22544	85.07160	104.22544
3150.00000	103.11129	84.45331	103.11129
3200.00000	101.84048	89.25384	101.84048
3250.00000	100.76389	97.19016	100.76389
3300.00000	99.84136	107.49778	99.84136
3350.00000	99.67644	124.62118	99.67644
3400.00000	101.00720	143.77978	101.00720
3450.00000	103.62709	153.83537	103.62709
3500.00000	106.23087	156.47937	106.23087
3550.00000	108.34492	154.33661	108.34492
3600.00000	110.23547	150.82480	110.23547
3650.00000	111.68797	146.01889	111.68797
3700.00000	113.00538	141.34525	113.00538
3750.00000	114.31305	136.58248	114.31305
3800.00000	115.57087	130.80917	115.57087
3850.00000	116.66595	124.49539	116.66595
3900.00000	117.68724	118.06675	117.68724
3950.00000	118.69891	111.05218	118.69891
4000.00000	119.57887	103.67216	119.57887
4050.00000	120.42700	96.42436	120.42700
4100.00000	121.30517	89.14586	121.30517
4150.00000	122.37175	80.84804	122.37175
4200.00000	123.16092	71.02952	123.16092
4250.00000	123.92720	59.91118	123.92720
4300.00000	124.45157	47.64979	124.45157
4350.00000	124.64670	34.86372	124.64670
4400.00000	124.54628	22.76731	124.54628
4450.00000	124.25598	11.59642	124.25598
4500.00000	123.84669	 1.49914	123.84669
4550.00000	123.38677	-7.84723	123.38677
4600.00000	122.87943	-16.44369	122.87943
4650.00000	122.41650	-24.52673	122.41650
4700.00000	121.91376	-32.87283	121.91376
4750.00000	121.29470	-41.45158	121.29470
4800.00000	120.49977	-50.16763	120.49977
4850.00000	119.41935	-58.22180	119.41935
4900.00000	118.09513	-64.35730	118.09513
4950.00000	116.66197	-68.00465	116.66197
5000.00000	115.29227	-69.23389	115.29227
5050.00000	114.16731	-68.59128	114.16731
5100.00000	112.92721	-65.12231	112.92721
5150.00000	112.77492	-59.15970	112.77492
5200.00000	111.91800	-55.75878	111.91800
5250.00000	112.83237	-40.68096	112.83237
5300.00000	115.64971	-45.01120	115.64971
5350.00000	116.26609	-59.06915	116.26609
5400.00000	115.77621	-68.16755	115.77621
5450.00000	115.23446	-73.23880	115.23446
5500.00000	114.78363	-76.85346	114.78363
5550.00000	114.45665	-79.57265	114.45665
5600.00000	114.18374	-82.21438	114.18374
5650.00000	113.96494	-84.62041	113.96494
5700.00000	113.74559	-87.05434	113.74559
5750.00000	113.59725	-89.48265	113.59725
5800.00000	113.43561	-91.95652	113.43561
5850.00000	113.29163	-94.45469	113.29163
5900.00000	113.17850	-96.90796	113.17850
5950.00000	113.05460	-99.37027	113.05460
6000.00000	112.94479	-101.59283	112.94479
6050.00000	112.83062	-104.00348	112.83062
6100.00000	112.74812	-106.39486	112.74812
6150.00000	112.67182	-108.73975	112.67182
6200.00000	112.60619	-111.21159	112.60619
6250.00000	112.57035	-113.73648	112.57035
6300.00000	112.53824	-116.45497	112.53824
6350.00000	112.46843	-119.29496	112.46843
6400.00000	112.39235	-122.08497	112.39235
6450.00000	112.33420	-124.87899	112.33420
6500.00000	112.25522	-127.74348	112.25522
6550.00000	112.16451	-130.54945	112.16451
6600.00000	112.10609	-133.31188	112.10609
6650.00000	112.02244	-136.08102	112.02244
6700.00000	111.96850	-138.95347	111.96850
6750.00000	111.88521	-141.82581	111.88521
6800.00000	111.82967	-144.65675	111.82967
6850.00000	111.75880	-147.50054	111.75880
6900.00000	111.69800	-150.38497	111.69800
6950.00000	111.62231	-153.18196	111.62231
7000.00000	111.56246	-156.25744	111.56246
7050.00000	111.48580	-159.36567	111.48580
7100.00000	111.42407	-162.43487	111.42407
7150.00000	111.32098	-165.62318	111.32098
7200.00000	111.22526	-168.77103	111.22526
7250.00000	111.08649	-172.24364	111.08649
7300.00000	110.96569	-175.50784	110.96569
7350.00000	110.79369	-178.61348	110.79369
7400.00000	110.64540	-181.83935	110.64540
7450.00000	110.45888	-184.92657	110.45888
7500.00000	110.26556	-187.96282	110.26556
7550.00000	110.05141	-191.02086	110.05141
7600.00000	109.82802	-193.72092	109.82802
7650.00000	109.60995	-196.34728	109.60995
7700.00000	109.45056	-198.82423	109.45056
7750.00000	109.20245	-201.39531	109.20245
7800.00000	108.99852	-203.70639	108.99852
7850.00000	108.81437	-205.89199	108.81437
7900.00000	108.65038	-207.92393	108.65038
7950.00000	108.52415	-210.05917	108.52415
8000.00000	108.39875	-212.17828	108.39875
8050.00000	108.29336	-214.62235	108.29336
8100.00000	108.19689	-216.31994	108.19689
8150.00000	108.06754	-218.43284	108.06754
8200.00000	108.02327	-220.36552	108.02327
8250.00000	107.92981	-222.69764	107.92981
8300.00000	107.89589	-225.01789	107.89589
8350.00000	107.81582	-227.27652	107.81582
8400.00000	107.74825	-230.28234	107.74825
8450.00000	107.62133	-232.92714	107.62133
8500.00000	107.51565	-236.04739	107.51565
8550.00000	107.43815	-239.05037	107.43815
8600.00000	107.31748	-242.63926	107.31748
8650.00000	107.16493	-246.08383	107.16493
8700.00000	107.03097	-250.17736	107.03097
8750.00000	106.81638	-252.74148	106.81638
8800.00000	106.63816	-256.63498	106.63816
8850.00000	106.34713	-260.01433	106.34713
8900.00000	106.06193	-262.83747	106.06193
8950.00000	105.74581	-265.96780	105.74581
9000.00000	105.33044	-268.78430	105.33044
9050.00000	104.94860	-271.66739	104.94860
9100.00000	104.55446	-274.13264	104.55446
9150.00000	104.16761	-276.50830	104.16761
9200.00000	103.82345	-279.06262	103.82345
9250.00000	103.39291	-281.36123	103.39291
9300.00000	103.09673	-283.49404	103.09673
9350.00000	102.85948	-285.18248	102.85948
9400.00000	102.49588	-286.31520	102.49588
9450.00000	102.24256	-287.19207	102.24256
9500.00000	102.03137	-286.84673	102.03137
9550.00000	101.94906	-286.58565	101.94906
9600.00000	101.92761	-287.29907	101.92761
9650.00000	101.76848	-288.10280	101.76848
9700.00000	101.62509	-288.27917	101.62509
9750.00000	101.58546	-289.60427	101.58546
9800.00000	101.49478	-290.04562	101.49478
9850.00000	101.49990	-290.77897	101.49990
9900.00000	101.38948	-292.20500	101.38948
9950.00000	101.46809	-293.19877	101.46809
10000.00000	101.55920	-295.07525	101.55920
10050.00000	101.60314	-296.63522	101.60314
10100.00000	101.64815	-298.32296	101.64815
10150.00000	101.57076	-300.72473	101.57076
10200.00000	101.58082	-303.17442	101.58082
10250.00000	101.50047	-305.92356	101.50047
10300.00000	101.56115	-308.79830	101.56115
10350.00000	101.48147	-311.61077	101.48147
10400.00000	101.35210	-314.97940	101.35210
10450.00000	101.36001	-318.43742	101.36001
10500.00000	101.36155	-321.52041	101.36155
10550.00000	101.28375	-324.53076	101.28375
10600.00000	101.18740	-327.22059	101.18740
10650.00000	101.02612	-329.44250	101.02612
10700.00000	100.87630	-332.82034	100.87630
10750.00000	100.73810	-335.43983	100.73810
10800.00000	100.48032	-337.89445	100.48032
10850.00000	100.24223	-341.51318	100.24223
10900.00000	100.03890	-344.11091	100.03890
10950.00000	99.82715	-346.74054	99.82715
11000.00000	99.60866	-349.41764	99.60866
11050.00000	99.23241	-351.88422	99.23241
11100.00000	98.99900	-354.69117	98.99900
11150.00000	98.64183	-356.71714	98.64183
11200.00000	98.39997	-358.60684	98.39997
11250.00000	98.02800	-360.98422	98.02800
11300.00000	97.64562	-363.24255	97.64562
11350.00000	97.30869	-364.93732	97.30869
11400.00000	96.88647	-367.00566	96.88647
11450.00000	96.58938	-369.43698	96.58938
11500.00000	96.38545	-370.54206	96.38545
11550.00000	96.00139	-371.82240	96.00139
11600.00000	95.81127	-373.81001	95.81127
11650.00000	95.50753	-374.02600	95.50753
11700.00000	95.29533	-375.22750	95.29533
11750.00000	95.07864	-376.40482	95.07864
11800.00000	94.82287	-378.08072	94.82287
11850.00000	94.62076	-378.10839	94.62076
11900.00000	94.23256	-380.01626	94.23256
11950.00000	93.97681	-380.99202	93.97681
12000.00000	93.73302	-381.50515	93.73302
12050.00000	93.41746	-382.00554	93.41746
12100.00000	93.24143	-383.85134	93.24143
12150.00000	93.00508	-385.18975	93.00508
12200.00000	92.83946	-386.15212	92.83946
12250.00000	92.56269	-386.76131	92.56269
12300.00000	93.44890	-388.04111	93.44890
12350.00000	92.08303	-388.91514	92.08303
12400.00000	91.83801	-388.85660	91.83801
12450.00000	91.58755	-389.77690	91.58755
12500.00000	91.36029	-390.69512	91.36029
12550.00000	91.20182	-391.75913	91.20182
12600.00000	90.92011	-392.46537	90.92011
12650.00000	90.82850	-392.76794	90.82850
12700.00000	90.56955	-392.72332	90.56955
12750.00000	90.34824	-393.27990	90.34824
12800.00000	90.11691	-393.19507	90.11691
12850.00000	89.61769	-393.12401	89.61769
12900.00000	89.43390	-393.87092	89.43390
12950.00000	89.31371	-394.18944	89.31371
13000.00000	89.08772	-394.68769	89.08772
13050.00000	88.98201	-393.87869	88.98201
13100.00000	88.87826	-394.11417	88.87826
13150.00000	88.77902	-394.82167	88.77902
13200.00000	88.83792	-392.08797	88.83792
13250.00000	88.74445	-392.50995	88.74445
13300.00000	88.59864	-390.77911	88.59864
13350.00000	88.43237	-390.38533	88.43237
13400.00000	88.48367	-391.09256	88.48367
13450.00000	88.26622	-391.04123	88.26622
13500.00000	88.49347	-390.60911	88.49347
13550.00000	88.43778	-390.81461	88.43778
13600.00000	88.53073	-390.29043	88.53073
13650.00000	88.55336	-389.77694	88.55336
13700.00000	88.23761	-389.86087	88.23761
13750.00000	88.03938	-389.13782	88.03938
13800.00000	87.83848	-393.30222	87.83848
13850.00000	87.96530	-394.66159	87.96530
13900.00000	87.96407	-395.41596	87.96407
13950.00000	88.15951	-394.74682	88.15951
14000.00000	88.33380	-392.32482	88.33380
14050.00000	88.35376	-392.27308	88.35376
14100.00000	88.00971	-390.45614	88.00971
14150.00000	87.97323	-391.23437	87.97323
14200.00000	87.94099	-392.01687	87.94099
14250.00000	88.59310	-390.49828	88.59310
14300.00000	88.59219	-389.90968	88.59219
14350.00000	88.58601	-387.22483	88.58601
14400.00000	88.48994	-386.90388	88.48994
14450.00000	88.37798	-385.69840	88.37798
14500.00000	88.32368	-387.45040	88.32368
14550.00000	88.75759	-386.77733	88.75759
14600.00000	88.78271	-387.14647	88.78271
14650.00000	89.13596	-384.70044	89.13596
14700.00000	89.38698	-388.09633	89.38698
14750.00000	89.47158	-387.57678	89.47158
14800.00000	89.55482	-387.64126	89.55482
14850.00000	89.96299	-387.22039	89.96299
14900.00000	90.50780	-387.16897	90.50780
14950.00000	90.64781	-386.32195	90.64781
15000.00000	90.80236	-386.75303	90.80236
15050.00000	90.69338	-386.45776	90.69338
15100.00000	90.98048	-386.82119	90.98048
15150.00000	91.47126	-389.47405	91.47126
15200.00000	91.64293	-388.45694	91.64293
15250.00000	91.91806	-389.22192	91.91806
15300.00000	92.28609	-389.11725	92.28609
15350.00000	92.34472	-389.50773	92.34472
15400.00000	92.49294	-389.63052	92.49294
15450.00000	92.74060	-390.71712	92.74060
15500.00000	93.22637	-391.63287	93.22637
15550.00000	93.59449	-391.86042	93.59449
15600.00000	93.78631	-393.05504	93.78631
15650.00000	94.24378	-392.39282	94.24378
15700.00000	94.45143	-394.19874	94.45143
15750.00000	94.97797	-395.09378	94.97797
15800.00000	95.31670	-395.04415	95.31670
15850.00000	95.74065	-396.17105	95.74065
15900.00000	95.97136	-397.80383	95.97136
15950.00000	96.38208	-399.90896	96.38208
16000.00000	96.80780	-401.92673	96.80780
16050.00000	97.28603	-402.84231	97.28603
16100.00000	97.47481	-404.70305	97.47481
16150.00000	97.77202	-406.73358	97.77202
16200.00000	98.13218	-409.50518	98.13218
16250.00000	98.46834	-411.74478	98.46834
16300.00000	99.02651	-414.50856	99.02651
16350.00000	99.27282	-416.34194	99.27282
16400.00000	99.51528	-418.11503	99.51528
16450.00000	99.80606	-420.50620	99.80606
16500.00000	100.07558	-423.18070	100.07558
16550.00000	100.44989	-426.30299	100.44989
16600.00000	100.71161	-428.60357	100.71161
16650.00000	100.91352	-430.67028	100.91352
16700.00000	101.18427	-433.38433	101.18427
16750.00000	101.36498	-436.62621	101.36498
16800.00000	101.66076	-439.34606	101.66076
16850.00000	101.97084	-441.92020	101.97084
16900.00000	102.22284	-444.54357	102.22284
16950.00000	102.42581	-447.29938	102.42581
17000.00000	102.52036	-450.62898	102.52036
17050.00000	102.79710	-452.95862	102.79710
17100.00000	102.94191	-454.57301	102.94191
17150.00000	103.29208	-458.20164	103.29208
17200.00000	103.45280	-460.76636	103.45280
17250.00000	103.60377	-464.34881	103.60377
17300.00000	103.85658	-467.36547	103.85658
17350.00000	103.94112	-469.93233	103.94112
17400.00000	104.18006	-472.73239	104.18006
17450.00000	104.28305	-476.57572	104.28305
17500.00000	104.48294	-479.48857	104.48294
17550.00000	104.62333	-482.49010	104.62333
17600.00000	104.87018	-485.15175	104.87018
17650.00000	104.98097	-489.05662	104.98097
17700.00000	105.07643	-492.36608	105.07643
17750.00000	105.34271	-494.95425	105.34271
17800.00000	105.32847	-498.52594	105.32847
17850.00000	105.48320	-501.30674	105.48320
17900.00000	105.54265	-504.78893	105.54265
17950.00000	105.70975	-508.08813	105.70975
18000.00000	105.79629	-511.91080	105.79629
18050.00000	106.04005	-514.58233	106.04005
18100.00000	106.06080	-518.21629	106.06080
18150.00000	106.12699	-520.97728	106.12699
18200.00000	106.12014	-524.81748	106.12014
18250.00000	106.30399	-527.60690	106.30399
18300.00000	106.43766	-530.74635	106.43766
18350.00000	106.50033	-533.99597	106.50033
18400.00000	106.46712	-537.59721	106.46712
18450.00000	106.49548	-542.33354	106.49548
18500.00000	106.57908	-545.64355	106.57908
18550.00000	106.59660	-548.44356	106.59660
18600.00000	106.69019	-552.32124	106.69019
18650.00000	106.55946	-555.60753	106.55946
18700.00000	106.55126	-559.47131	106.55126
18750.00000	106.60864	-562.71316	106.60864
18800.00000	106.69724	-565.49644	106.69724
18850.00000	106.52471	-569.08132	106.52471
18900.00000	106.48077	-572.34339	106.48077
18950.00000	106.48360	-576.05597	106.48360
19000.00000	106.28399	-578.80871	106.28399
19050.00000	106.36266	-582.15720	106.36266
19100.00000	106.25194	-584.98855	106.25194
19150.00000	106.33302	-587.94707	106.33302
19200.00000	106.24807	-590.57586	106.24807
19250.00000	106.15689	-594.66665	106.15689
19300.00000	106.03836	-596.93492	106.03836
19350.00000	106.01055	-599.94764	106.01055
19400.00000	105.91146	-602.81809	105.91146
19450.00000	105.97151	-605.08759	105.97151
19500.00000	105.80765	-608.63655	105.80765
19550.00000	105.77348	-611.48201	105.77348
19600.00000	105.78956	-614.99355	105.78956
19650.00000	105.67316	-617.48254	105.67316
19700.00000	105.50678	-620.30226	105.50678
19750.00000	105.42087	-622.63468	105.42087
19800.00000	105.43704	-626.49638	105.43704
19850.00000	105.38536	-629.04121	105.38536
19900.00000	105.22078	-632.54901	105.22078
19950.00000	105.11190	-635.18786	105.11190
20000.00000	105.01428	-638.10297	105.01428
20050.00000	104.93984	-640.92560	104.93984
20100.00000	104.72159	-643.63055	104.72159
20150.00000	104.66042	-645.73007	104.66042
20200.00000	104.50463	-649.11722	104.50463
20250.00000	104.30216	-651.59228	104.30216
20300.00000	104.08938	-654.18289	104.08938
20350.00000	103.99825	-656.81000	103.99825
20400.00000	103.79884	-658.47106	103.79884
20450.00000	103.55206	-660.78152	103.55206
20500.00000	103.42177	-663.33942	103.42177
20550.00000	103.03181	-664.60529	103.03181
20600.00000	102.93836	-666.28585	102.93836
20650.00000	102.77031	-668.07330	102.77031
20700.00000	102.55036	-669.43242	102.55036
20750.00000	102.43581	-670.83099	102.43581
20800.00000	102.24822	-671.58645	102.24822
20850.00000	102.16414	-672.97240	102.16414
20900.00000	102.00658	-673.83194	102.00658
20950.00000	101.88526	-674.06700	101.88526
21000.00000	101.83428	-674.72884	101.83428
21050.00000	101.95402	-675.05418	101.95402
21100.00000	101.94905	-675.39254	101.94905
21150.00000	102.07632	-676.31795	102.07632
21200.00000	102.21307	-676.94187	102.21307
21250.00000	102.33998	-679.11945	102.33998
21300.00000	102.54900	-680.00826	102.54900
21350.00000	102.67754	-681.39288	102.67754
21400.00000	102.82963	-683.61061	102.82963
21450.00000	102.99531	-685.64818	102.99531
21500.00000	103.12337	-688.27253	103.12337
21550.00000	103.15169	-690.41522	103.15169
21600.00000	103.32099	-692.94037	103.32099
21650.00000	103.32911	-695.92626	103.32911
21700.00000	103.37053	-698.11853	103.37053
21750.00000	103.41300	-700.91464	103.41300
21800.00000	103.42250	-703.38788	103.42250
21850.00000	103.33013	-705.95121	103.33013
21900.00000	103.34454	-708.42145	103.34454
21950.00000	103.26479	-710.47226	103.26479
22000.00000	103.30631	-712.93407	103.30631
22050.00000	103.21833	-714.56970	103.21833
22100.00000	103.14776	-717.29825	103.14776
22150.00000	103.10664	-718.92712	103.10664
22200.00000	103.09477	-721.26758	103.09477
22250.00000	103.05313	-722.72107	103.05313
22300.00000	102.88626	-724.90965	102.88626
22350.00000	102.98423	-726.75291	102.98423
22400.00000	102.96074	-729.16154	102.96074
22450.00000	102.89409	-731.04668	102.89409
22500.00000	102.77753	-731.86562	102.77753
22550.00000	102.77158	-734.34597	102.77158
22600.00000	102.72746	-736.78903	102.72746
22650.00000	102.70207	-738.89557	102.70207
22700.00000	102.65005	-740.23963	102.65005
22750.00000	102.60338	-740.55402	102.60338
22800.00000	102.62965	-744.35449	102.62965
22850.00000	102.61929	-747.25987	102.61929
22900.00000	102.60477	-747.38395	102.60477
22950.00000	102.59145	-749.46030	102.59145
23000.00000	102.56247	-750.52085	102.56247
23050.00000	102.50909	-753.61558	102.50909
23100.00000	102.63612	-754.29019	102.63612
23150.00000	102.42014	-755.72836	102.42014
23200.00000	102.63734	-758.92984	102.63734
23250.00000	102.36419	-761.23468	102.36419
23300.00000	102.59770	-763.93027	102.59770
23350.00000	102.30521	-765.75088	102.30521
23400.00000	102.31884	-768.21684	102.31884
23450.00000	102.38925	-769.85864	102.38925
23500.00000	102.16870	-770.95257	102.16870
23550.00000	102.13852	-771.45964	102.13852
23600.00000	102.04280	-775.49430	102.04280
23650.00000	102.09764	-776.67667	102.09764
23700.00000	102.16893	-780.70489	102.16893
23750.00000	102.09740	-781.36470	102.09740
23800.00000	101.69682	-782.34697	101.69682
23850.00000	101.83526	-783.40394	101.83526
23900.00000	102.18994	-785.81049	102.18994
23950.00000	101.82952	-788.61121	101.82952
24000.00000	101.67319	-791.95580	101.67319
24050.00000	101.75140	-791.85137	101.75140
24100.00000	101.87298	-795.22702	101.87298
24150.00000	101.82783	-797.36988	101.82783
24200.00000	101.71574	-800.35812	101.71574
24250.00000	101.37036	-800.50308	101.37036
24300.00000	101.47586	-803.73641	101.47586
24350.00000	101.54715	-804.38642	101.54715
24400.00000	101.30257	-807.79855	101.30257
24450.00000	101.08734	-808.80754	101.08734
24500.00000	101.45272	-810.10130	101.45272
24550.00000	101.30435	-814.20852	101.30435
24600.00000	101.62269	-814.87970	101.62269
24650.00000	101.28078	-817.87455	101.28078
24700.00000	101.09700	-457.38747	101.09700
24750.00000	101.35930	-101.72769	101.35930
24800.00000	101.29075	256.29688	101.29075
24850.00000	100.85983	616.44395	100.85983
24900.00000	101.03381	975.78092	101.03381
24950.00000	100.74073	1330.76592	100.74073
25000.00000	101.35812	1325.70223	101.35812
25050.00000	101.26857	1329.52545	101.26857
25100.00000	100.83149	1323.74688	100.83149
25150.00000	101.23099	1323.22092	101.23099
25200.00000	101.00493	1318.70150	101.00493
25250.00000	101.30805	1318.96466	101.30805
25300.00000	101.33393	1317.96809	101.33393
25350.00000	101.33972	1311.95489	101.33972
25400.00000	101.22448	1307.80415	101.22448
25450.00000	101.36629	1306.94982	101.36629
25500.00000	101.16370	1305.58022	101.16370
25550.00000	101.27576	1302.44144	101.27576
25600.00000	101.26481	1299.81167	101.26481
25650.00000	101.21517	1299.10172	101.21517
25700.00000	101.29121	1295.35638	101.29121
25750.00000	101.11184	1293.39668	101.11184
25800.00000	101.08195	1289.46095	101.08195
25850.00000	101.06516	1287.80887	101.06516
25900.00000	101.06705	1283.38868	101.06705
25950.00000	100.80853	1285.38043	100.80853
26000.00000	100.93140	1280.06060	100.93140
26050.00000	100.80434	1278.33877	100.80434
26100.00000	100.79254	1275.56836	100.79254
26150.00000	100.67641	1273.74570	100.67641
26200.00000	100.86131	1271.73773	100.86131
26250.00000	100.62033	1269.13321	100.62033
26300.00000	100.74517	1266.10266	100.74517
26350.00000	100.30166	1265.55170	100.30166
26400.00000	100.29924	1263.45529	100.29924
26450.00000	100.58817	1259.54036	100.58817
26500.00000	100.39200	1256.97488	100.39200
26550.00000	100.24934	1252.34063	100.24934
26600.00000	100.08731	1251.41374	100.08731
26650.00000	100.28925	1251.15982	100.28925
26700.00000	100.10878	1249.03410	100.10878
26750.00000	99.93280	1246.52744	99.93280
26800.00000	99.92657	1241.41157	99.92657
26850.00000	100.20175	1240.95783	100.20175
26900.00000	99.97585	1239.98087	99.97585
26950.00000	100.25611	1236.20350	100.25611
27000.00000	99.64347	1235.46814	99.64347
27050.00000	100.00781	1233.21735	100.00781
27100.00000	99.62432	1232.41440	99.62432
27150.00000	99.66563	1228.86243	99.66563
27200.00000	99.78542	1227.01854	99.78542
27250.00000	99.30079	1226.15049	99.30079
27300.00000	99.13932	1223.54465	99.13932
27350.00000	99.27330	1223.75254	99.27330
27400.00000	99.01718	1220.57684	99.01718
27450.00000	98.83362	1219.20202	98.83362
27500.00000	98.90444	1217.33183	98.90444
27550.00000	99.00682	1215.33659	99.00682
27600.00000	99.25033	1213.69934	99.25033
27650.00000	98.62299	1212.53712	98.62299
27700.00000	98.65339	1208.65666	98.65339
27750.00000	98.74915	1206.46433	98.74915
27800.00000	98.60985	1203.96312	98.60985
27850.00000	99.11511	1205.73334	99.11511
27900.00000	98.41745	1204.89715	98.41745
27950.00000	97.97119	1202.60149	97.97119
28000.00000	98.23045	1202.45996	98.23045
28050.00000	98.68379	1199.49129	98.68379
28100.00000	98.19166	1198.05585	98.19166
28150.00000	98.22645	1198.45375	98.22645
28200.00000	98.40870	1192.96099	98.40870
28250.00000	98.07804	1191.52430	98.07804
28300.00000	97.84506	1192.45251	97.84506
28350.00000	98.16074	1191.00275	98.16074
28400.00000	98.07025	1190.46899	98.07025
28450.00000	98.58119	1188.68789	98.58119
28500.00000	98.23660	1188.19730	98.23660
28550.00000	98.07744	1189.41705	98.07744
28600.00000	98.20908	1186.54739	98.20908
28650.00000	98.38613	1183.49188	98.38613
28700.00000	98.32020	1184.79240	98.32020
28750.00000	99.08865	1183.63147	99.08865
28800.00000	98.88435	1182.82605	98.88435
28850.00000	98.20085	1178.97647	98.20085
28900.00000	98.47490	1177.54559	98.47490
28950.00000	98.42396	1177.35980	98.42396
29000.00000	98.74655	1176.00054	98.74655
29050.00000	98.69011	1176.17010	98.69011
29100.00000	98.48476	1174.93342	98.48476
29150.00000	98.44686	1174.80747	98.44686
29200.00000	98.40464	1170.82632	98.40464
29250.00000	98.95566	1171.49962	98.95566
29300.00000	98.66596	1168.04097	98.66596
29350.00000	99.02453	1166.69719	99.02453
29400.00000	98.90530	1165.91424	98.90530
29450.00000	98.78178	1164.57415	98.78178
29500.00000	99.23580	1164.12308	99.23580
29550.00000	98.99804	1159.87870	98.99804
29600.00000	98.84856	1160.54984	98.84856
29650.00000	99.07181	1157.69960	99.07181
29700.00000	98.91669	1158.76590	98.91669
29750.00000	98.88130	1159.36435	98.88130
29800.00000	98.69378	1155.72173	98.69378
29850.00000	98.75919	1154.46376	98.75919
29900.00000	99.09713	1154.92613	99.09713
29950.00000	98.27999	1154.56230	98.27999
30000.00000	98.83232	1155.04084	98.83232
30050.00000	98.88242	1152.58343	98.88242
30100.00000	98.55534	1154.03392	98.55534
30150.00000	98.76773	1150.90378	98.76773
30200.00000	98.84100	1149.36474	98.84100
30250.00000	98.66262	1150.20083	98.66262
30300.00000	98.60818	1150.90247	98.60818
30350.00000	98.60830	1152.35377	98.60830
30400.00000	98.74555	1150.60399	98.74555
30450.00000	98.42427	1150.63510	98.42427
30500.00000	98.55544	1149.84152	98.55544
30550.00000	98.70205	1151.83618	98.70205
30600.00000	98.73040	1152.48036	98.73040
30650.00000	98.86104	1152.63372	98.86104
30700.00000	99.00395	1152.25604	99.00395
30750.00000	98.99304	1154.46116	98.99304
30800.00000	99.22112	1154.62699	99.22112
30850.00000	99.61444	1156.27905	99.61444
30900.00000	99.56098	1157.65788	99.56098
30950.00000	100.10315	1157.23281	100.10315
31000.00000	100.44593	1156.33566	100.44593
31050.00000	100.82707	1157.71440	100.82707
31100.00000	101.47696	1158.34400	101.47696
31150.00000	101.58223	1157.41976	101.58223
31200.00000	102.42228	1156.77330	102.42228
31250.00000	102.86819	1156.10759	102.86819
31300.00000	103.25662	1154.81967	103.25662
31350.00000	103.98908	1153.27959	103.98908
31400.00000	104.24594	1150.63423	104.24594
31450.00000	104.83230	1148.94655	104.83230
31500.00000	105.28542	1145.34035	105.28542
31550.00000	105.73727	1142.81327	105.73727
31600.00000	106.36586	1138.99973	106.36586
31650.00000	106.68192	1135.57181	106.68192
31700.00000	107.01836	1132.71728	107.01836
31750.00000	107.48659	1130.71624	107.48659
31800.00000	107.73939	1125.30482	107.73939
31850.00000	108.10369	1121.43599	108.10369
31900.00000	108.17653	1118.61496	108.17653
31950.00000	108.54891	1114.39099	108.54891
32000.00000	108.73834	1110.43224	108.73834
32050.00000	109.04664	1106.83939	109.04664
32100.00000	109.19081	1102.24947	109.19081
32150.00000	109.37195	1099.24848	109.37195
32200.00000	109.62251	1094.93496	109.62251
32250.00000	109.67224	1090.34523	109.67224
32300.00000	109.75662	1087.36393	109.75662
32350.00000	109.84740	1084.26107	109.84740
32400.00000	110.08780	1080.40012	110.08780
32450.00000	110.03180	1076.60656	110.03180
32500.00000	110.28371	1073.92426	110.28371
32550.00000	110.42122	1068.95422	110.42122
32600.00000	110.46114	1066.25757	110.46114
32650.00000	110.67003	1062.67066	110.67003
32700.00000	110.61902	1058.49303	110.61902
32750.00000	110.68643	1055.12303	110.68643
32800.00000	110.95621	1052.08827	110.95621
32850.00000	111.03727	1048.05410	111.03727
32900.00000	111.04318	1043.97276	111.04318
32950.00000	111.05912	1039.90091	111.05912
33000.00000	111.12950	1038.18172	111.12950
33050.00000	111.15786	1033.22146	111.15786
33100.00000	111.30359	1029.77400	111.30359
33150.00000	111.29906	1026.80658	111.29906
33200.00000	111.52238	1024.59105	111.52238
33250.00000	111.44775	1020.41662	111.44775
33300.00000	111.47002	1016.07392	111.47002
33350.00000	111.40903	1012.03077	111.40903
33400.00000	111.38822	1009.98762	111.38822
33450.00000	111.45007	1005.22589	111.45007
33500.00000	111.62453	1004.03310	111.62453
33550.00000	111.34599	998.82342	111.34599
33600.00000	111.59447	995.75157	111.59447
33650.00000	111.54097	992.27819	111.54097
33700.00000	111.53779	989.63265	111.53779
33750.00000	111.40186	986.01953	111.40186
33800.00000	111.38616	982.24224	111.38616
33850.00000	111.14645	979.59092	111.14645
33900.00000	111.28509	975.71880	111.28509
33950.00000	111.26461	973.36910	111.26461
34000.00000	111.20287	970.26145	111.20287
34050.00000	111.05041	967.62944	111.05041
34100.00000	110.85005	965.68998	110.85005
34150.00000	110.85068	961.55797	110.85068
34200.00000	110.81739	960.90650	110.81739
34250.00000	110.79227	957.17525	110.79227
34300.00000	110.60099	953.88736	110.60099
34350.00000	110.73940	951.66673	110.73940
34400.00000	110.35143	950.81056	110.35143
34450.00000	110.40859	945.84324	110.40859
34500.00000	110.27271	945.21981	110.27271
34550.00000	110.32643	943.44722	110.32643
34600.00000	110.06243	939.65416	110.06243
34650.00000	110.31981	941.02438	110.31981
34700.00000	109.92403	939.89350	109.92403
34750.00000	110.14409	933.59420	110.14409
34800.00000	110.19110	934.96526	110.19110
34850.00000	110.24811	934.79434	110.24811
34900.00000	110.56973	930.83986	110.56973
34950.00000	110.15625	930.83480	110.15625
35000.00000	110.30729	928.61386	110.30729
35050.00000	110.37284	928.36881	110.37284
35100.00000	110.60797	925.06375	110.60797
35150.00000	110.36366	925.07495	110.36366
35200.00000	110.47624	921.38623	110.47624
35250.00000	110.62708	919.46473	110.62708
35300.00000	110.78868	917.61071	110.78868
35350.00000	111.04949	916.25907	111.04949
35400.00000	111.11014	913.52917	111.11014
35450.00000	111.16284	912.74052	111.16284
35500.00000	110.94418	910.88019	110.94418
35550.00000	111.35609	909.83048	111.35609
35600.00000	111.36726	907.24912	111.36726
35650.00000	111.50295	905.57165	111.50295
35700.00000	111.66450	903.70872	111.66450
35750.00000	111.58531	902.43333	111.58531
35800.00000	111.87863	901.26661	111.87863
35850.00000	112.01882	897.83961	112.01882
35900.00000	112.29388	896.20419	112.29388
35950.00000	112.49216	893.36792	112.49216
36000.00000	112.49705	891.50299	112.49705
36050.00000	112.74448	888.27238	112.74448
36100.00000	112.90981	887.46750	112.90981
36150.00000	112.97853	884.18272	112.97853
36200.00000	113.04073	882.69363	113.04073
36250.00000	113.12287	880.11877	113.12287
36300.00000	113.24831	877.24654	113.24831
36350.00000	113.54267	875.51686	113.54267
36400.00000	113.56259	873.81031	113.56259
36450.00000	113.52024	869.76312	113.52024
36500.00000	113.95351	868.42134	113.95351
36550.00000	113.74631	864.21407	113.74631
36600.00000	113.93919	862.50414	113.93919
36650.00000	114.17025	859.47943	114.17025
36700.00000	114.24452	855.75458	114.24452
36750.00000	114.31657	852.81260	114.31657
36800.00000	114.40018	851.16578	114.40018
36850.00000	114.27656	847.93919	114.27656
36900.00000	114.53716	844.95081	114.53716
36950.00000	114.34934	841.56680	114.34934
37000.00000	114.18048	839.42373	114.18048
37050.00000	114.29259	837.61414	114.29259
37100.00000	114.30371	833.08389	114.30371
37150.00000	114.39376	830.09487	114.39376
37200.00000	114.56485	828.96060	114.56485
37250.00000	114.19782	825.89465	114.19782
37300.00000	114.21058	823.26091	114.21058
37350.00000	114.48488	820.90667	114.48488
37400.00000	114.28635	819.07635	114.28635
37450.00000	114.11888	817.18079	114.11888
37500.00000	114.47111	813.50257	114.47111
37550.00000	114.23293	811.36206	114.23293
37600.00000	114.17471	808.80806	114.17471
37650.00000	114.18007	808.25162	114.18007
37700.00000	114.42075	804.10738	114.42075
37750.00000	114.33625	802.77432	114.33625
37800.00000	114.21045	799.91516	114.21045
37850.00000	114.30544	796.86961	114.30544
37900.00000	114.33891	795.55615	114.33891
37950.00000	114.52716	793.04877	114.52716
38000.00000	114.36437	791.68336	114.36437
38050.00000	114.58521	788.59059	114.58521
38100.00000	114.73604	786.25726	114.73604
38150.00000	114.74740	782.78213	114.74740
38200.00000	114.88070	779.76698	114.88070
38250.00000	115.02821	778.13821	115.02821
38300.00000	115.27863	774.95655	115.27863
38350.00000	115.36412	772.94409	115.36412
38400.00000	115.54665	769.61967	115.54665
38450.00000	115.71347	766.09267	115.71347
38500.00000	115.94620	762.44223	115.94620
38550.00000	116.26710	759.51056	116.26710
38600.00000	116.41599	756.21771	116.41599
38650.00000	116.58246	751.89453	116.58246
38700.00000	116.75503	748.51447	116.75503
38750.00000	116.96508	744.84081	116.96508
38800.00000	117.21103	740.78780	117.21103
38850.00000	117.40188	735.71207	117.40188
38900.00000	117.54943	731.57180	117.54943
38950.00000	117.67141	726.70739	117.67141
39000.00000	117.80193	722.16624	117.80193
39050.00000	117.96148	717.25480	117.96148
39100.00000	117.94473	712.31359	117.94473
39150.00000	117.96941	707.31517	117.96941
39200.00000	117.99423	702.72850	117.99423
39250.00000	117.99796	697.68648	117.99796
39300.00000	117.98828	692.57359	117.98828
39350.00000	117.91722	688.27696	117.91722
39400.00000	117.78608	682.78074	117.78608
39450.00000	117.62395	678.65693	117.62395
39500.00000	117.56107	674.23138	117.56107
39550.00000	117.37779	669.16912	117.37779
39600.00000	117.13108	664.78188	117.13108
39650.00000	116.97708	660.88180	116.97708
39700.00000	116.70743	657.20567	116.70743
39750.00000	116.56726	652.83933	116.56726
39800.00000	116.34707	649.11453	116.34707
39850.00000	116.01308	645.35077	116.01308
39900.00000	115.78078	642.13279	115.78078
39950.00000	115.56994	639.02880	115.56994
40000.00000	115.17703	637.03322	115.17703
40050.00000	115.07109	632.50933	115.07109
40100.00000	114.82220	629.84255	114.82220
40150.00000	114.53158	626.43001	114.53158
40200.00000	114.31180	623.55105	114.31180
40250.00000	114.08118	621.55839	114.08118
40300.00000	113.87225	618.51282	113.87225
40350.00000	113.46984	616.54514	113.46984
40400.00000	113.23222	614.11974	113.23222
40450.00000	112.97505	612.06069	112.97505
40500.00000	112.85003	610.77636	112.85003
40550.00000	112.60267	608.15887	112.60267
40600.00000	112.32777	606.78890	112.32777
40650.00000	112.12124	605.44146	112.12124
40700.00000	111.80112	604.18433	111.80112
40750.00000	111.74207	602.43879	111.74207
40800.00000	111.46875	600.94854	111.46875
40850.00000	111.17462	600.60565	111.17462
40900.00000	111.03031	599.38574	111.03031
40950.00000	110.77539	599.09788	110.77539
41000.00000	110.45917	597.93470	110.45917
41050.00000	110.45108	598.33988	110.45108
41100.00000	110.35618	596.39518	110.35618
41150.00000	110.28647	598.19991	110.28647
41200.00000	110.29254	596.21008	110.29254
41250.00000	110.19434	594.20580	110.19434
41300.00000	109.81654	595.90319	109.81654
41350.00000	109.83918	596.61829	109.83918
41400.00000	109.82884	591.57722	109.82884
41450.00000	109.99457	595.20168	109.99457
41500.00000	109.78427	593.96022	109.78427
41550.00000	109.69917	597.22360	109.69917
41600.00000	109.36684	595.34387	109.36684
41650.00000	109.98505	592.80886	109.98505
41700.00000	110.02215	594.00202	110.02215
41750.00000	109.82609	598.06448	109.82609
41800.00000	108.89773	593.86958	108.89773
41850.00000	108.95375	594.40318	108.95375
41900.00000	108.99448	595.10624	108.99448
41950.00000	110.27180	599.46849	110.27180
42000.00000	109.24262	593.84806	109.24262
42050.00000	108.31376	592.65495	108.31376
42100.00000	108.88952	593.28433	108.88952
42150.00000	108.45203	587.60051	108.45203
42200.00000	108.14538	594.30726	108.14538
42250.00000	108.26874	592.04286	108.26874
42300.00000	107.42648	588.81618	107.42648
42350.00000	107.95938	589.26345	107.95938
42400.00000	107.72326	590.56585	107.72326
42450.00000	108.47243	586.42022	108.47243
42500.00000	107.71329	584.38221	107.71329
42550.00000	107.89676	595.31703	107.89676
42600.00000	107.80363	586.38359	107.80363
42650.00000	107.38732	586.15925	107.38732
42700.00000	106.98947	583.98153	106.98947
42750.00000	107.84757	580.75576	107.84757
42800.00000	107.33479	576.71318	107.33479
42850.00000	107.00540	572.84989	107.00540
42900.00000	108.32770	576.63382	108.32770
42950.00000	107.36294	571.93382	107.36294
43000.00000	107.90000	561.52525	107.90000
43050.00000	107.34534	557.40446	107.34534
43100.00000	107.52120	562.27264	107.52120
43150.00000	106.92634	556.53739	106.92634
43200.00000	107.80485	551.49958	107.80485
43250.00000	107.66984	548.95270	107.66984
43300.00000	107.84412	545.24425	107.84412
43350.00000	108.43368	538.59489	108.43368
43400.00000	107.86373	537.92595	107.86373
43450.00000	108.88638	534.48506	108.88638
43500.00000	107.50411	525.50777	107.50411
43550.00000	108.11803	522.58310	108.11803
43600.00000	107.89152	517.58197	107.89152
43650.00000	108.62199	507.46751	108.62199
43700.00000	108.44076	509.00351	108.44076
43750.00000	108.19883	506.27344	108.19883
43800.00000	108.45265	498.63784	108.45265
43850.00000	109.25350	492.45049	109.25350
43900.00000	109.38098	491.02581	109.38098
43950.00000	109.35909	483.92316	109.35909
44000.00000	108.71307	479.99909	108.71307
44050.00000	109.40901	475.38986	109.40901
44100.00000	109.55305	462.31752	109.55305
44150.00000	109.34242	463.61993	109.34242
44200.00000	109.12422	461.73107	109.12422
44250.00000	110.04200	453.89364	110.04200
44300.00000	109.77902	446.65875	109.77902
44350.00000	108.85803	442.36577	108.85803
44400.00000	109.51754	438.05600	109.51754
44450.00000	109.81990	435.86839	109.81990
44500.00000	109.47605	431.82668	109.47605
44550.00000	110.60280	420.33318	110.60280
44600.00000	109.57424	424.07215	109.57424
44650.00000	109.20383	413.36939	109.20383
44700.00000	109.13525	410.39168	109.13525
44750.00000	109.13806	409.51646	109.13806
44800.00000	109.93062	401.94477	109.93062
44850.00000	109.52797	394.96348	109.52797
44900.00000	108.73253	393.56771	108.73253
44950.00000	108.92526	389.61142	108.92526
45000.00000	108.84314	379.57241	108.84314
45050.00000	107.55489	384.77989	107.55489
45100.00000	108.05875	376.77041	108.05875
45150.00000	107.94435	365.72349	107.94435
45200.00000	107.50679	368.37995	107.50679
45250.00000	107.67780	363.61344	107.67780
45300.00000	107.19344	357.87381	107.19344
45350.00000	106.74815	351.46704	106.74815
45400.00000	107.08494	350.08474	107.08494
45450.00000	106.53748	343.39552	106.53748
45500.00000	104.97706	338.10303	104.97706
45550.00000	105.00985	341.79577	105.00985
45600.00000	105.96428	332.79866	105.96428
45650.00000	104.41458	326.54778	104.41458
45700.00000	104.04853	328.30497	104.04853
45750.00000	105.16836	329.66479	105.16836
45800.00000	103.63834	320.21918	103.63834
45850.00000	103.60189	319.04017	103.60189
45900.00000	103.16960	317.76940	103.16960
45950.00000	102.72036	318.54695	102.72036
46000.00000	101.11294	302.12517	101.11294
46050.00000	101.48561	301.05433	101.48561
46100.00000	100.03377	308.18107	100.03377
46150.00000	99.94228	304.47825	99.94228
46200.00000	97.86447	296.34189	97.86447
46250.00000	99.00276	296.61740	99.00276
46300.00000	97.84927	298.49600	97.84927
46350.00000	99.44846	295.79020	99.44846
46400.00000	97.36724	293.41158	97.36724
46450.00000	95.73841	292.31384	95.73841
46500.00000	96.78096	295.71904	96.78096
46550.00000	96.76022	300.61745	96.76022
46600.00000	96.72715	301.60272	96.72715
46650.00000	94.16983	295.56347	94.16983
46700.00000	94.03895	305.96613	94.03895
46750.00000	94.61183	315.41159	94.61183
46800.00000	92.46105	302.79237	92.46105
46850.00000	93.98409	-42.71234	93.98409
46900.00000	93.71628	-45.13004	93.71628
46950.00000	94.48724	-51.65934	94.48724
47000.00000	94.34948	-41.30708	94.34948
47050.00000	96.31203	-51.72431	96.31203
47100.00000	95.37875	-49.57368	95.37875
47150.00000	96.17718	-49.47609	96.17718
47200.00000	94.93932	-49.73721	94.93932
47250.00000	96.37865	-51.87972	96.37865
47300.00000	96.01459	-59.62115	96.01459
47350.00000	96.62187	-412.57271	96.62187
47400.00000	95.42507	-412.31894	95.42507
47450.00000	96.51815	-411.18740	96.51815
47500.00000	94.43504	-426.46339	94.43504
47550.00000	94.67430	-772.84554	94.67430
47600.00000	94.71942	-782.44432	94.71942
47650.00000	96.39676	-783.68178	96.39676
47700.00000	95.19331	-786.73849	95.19331
47750.00000	93.41693	-783.37389	93.41693
47800.00000	94.05624	-798.86365	94.05624
47850.00000	95.17374	-1149.18003	95.17374
47900.00000	95.16099	-1499.10550	95.16099
47950.00000	93.35084	-1500.85265	93.35084
48000.00000	94.77236	-1495.96196	94.77236
48050.00000	95.61600	-1508.92216	95.61600
48100.00000	94.49015	-1511.47094	94.49015
48150.00000	95.19182	-1863.35738	95.19182
48200.00000	95.15859	-1862.13230	95.15859
48250.00000	94.76314	-1869.41595	94.76314
48300.00000	95.62287	-1868.52435	95.62287
48350.00000	95.56058	-1874.31923	95.56058
48400.00000	95.93792	-2220.87328	95.93792
48450.00000	96.62502	-2228.41207	96.62502
48500.00000	95.72751	-2233.07303	95.72751
48550.00000	95.59045	-2234.77565	95.59045
48600.00000	96.78834	-2591.75559	96.78834
48650.00000	96.86774	-2594.96687	96.86774
48700.00000	98.49105	-2604.88929	98.49105
48750.00000	96.99057	-2954.94449	96.99057
48800.00000	97.45209	-2962.89336	97.45209
48850.00000	97.76606	-2965.71117	97.76606
48900.00000	96.39515	-3327.29075	96.39515
48950.00000	97.28977	-3341.80160	97.28977
49000.00000	97.95475	-3342.73332	97.95475
49050.00000	96.85872	-3343.93400	96.85872
49100.00000	96.96696	-3705.03910	96.96696
49150.00000	98.22808	-4061.81435	98.22808
49200.00000	97.17840	-4076.00454	97.17840
49250.00000	97.04806	-4424.70214	97.04806
49300.00000	97.40660	-4085.03048	97.40660
49350.00000	95.43572	-4070.48884	95.43572
49400.00000	95.74929	-3721.56500	95.74929
49450.00000	94.00873	-3372.93511	94.00873
49500.00000	94.81458	-3022.04205	94.81458
49550.00000	95.18355	-2664.19866	95.18355
49600.00000	93.67363	-2654.17081	93.67363
49650.00000	94.77590	-2646.28746	94.77590
49700.00000	92.23178	-2319.23497	92.23178
49750.00000	92.21664	-2311.77761	92.21664
49800.00000	89.19056	-2315.06100	89.19056
49850.00000	89.31356	-2293.59043	89.31356
49900.00000	86.74861	-1950.46471	86.74861
49950.00000	87.24407	-1572.39316	87.24407
