---ACOUSTIC CALIBRATION---
Filename: C:\Data\CL0809 DATA\CL08094\RightSecondary.calib
Date: 8/9/2019 2:30:16 PM
Format: 4
Probe Tube Correction File: C:\Data\Probe Tube Calibrations\74_ProbeTube.calib
Experiment VIs: 2128
EPL_CFTS.exe V15.0.1f5 (2015)
DAQmx V15.1

Attenuation (dB): 40.000000
Min Freq (Hz): 50.000000
Max Freq (Hz): 99950.000000
Freq Step (Hz): 50.000000
Sample Rate (Hz): 200000.000000
[Smoothing]
Method=None
MA.Iterations=0
MA.Length=0
Loess.Length=0
Loess.Type=Linear
Loess.Robust=FALSE


Freq(Hz)	Mag(dB)	Phase(deg)	Unsmoothed(dB)

50.00000	92.35849	324.67550	92.35849
100.00000	70.79673	238.62505	70.79673
150.00000	60.75344	419.17581	60.75344
200.00000	69.30976	507.42894	69.30976
250.00000	53.92545	882.70939	53.92545
300.00000	59.94135	901.77689	59.94135
350.00000	65.39155	1057.29904	65.39155
400.00000	41.79606	1184.04681	41.79606
450.00000	63.48069	1135.97119	63.48069
500.00000	74.47171	1209.51169	74.47171
550.00000	80.08596	1162.56923	80.08596
600.00000	79.72472	1106.22501	79.72472
650.00000	86.19217	1113.32474	86.19217
700.00000	84.75545	1102.98973	84.75545
750.00000	87.99430	1069.28486	87.99430
800.00000	89.77580	1046.97892	89.77580
850.00000	89.06109	1036.82593	89.06109
900.00000	90.34400	1026.42518	90.34400
950.00000	91.18116	1016.04028	91.18116
1000.00000	91.34072	1008.60396	91.34072
1050.00000	90.90701	988.61027	90.90701
1100.00000	89.12278	988.93485	89.12278
1150.00000	89.19538	977.39722	89.19538
1200.00000	88.90914	992.92123	88.90914
1250.00000	89.76044	989.33284	89.76044
1300.00000	91.48106	997.40928	91.48106
1350.00000	92.14479	988.01187	92.14479
1400.00000	91.95353	996.05183	91.95353
1450.00000	93.89643	988.85764	93.89643
1500.00000	94.92297	986.08655	94.92297
1550.00000	96.20497	979.56196	96.20497
1600.00000	98.16340	974.40991	98.16340
1650.00000	99.27320	970.28524	99.27320
1700.00000	102.82579	950.58847	102.82579
1750.00000	100.14933	935.01790	100.14933
1800.00000	99.84344	923.48508	99.84344
1850.00000	99.28513	916.24801	99.28513
1900.00000	99.19978	910.97362	99.19978
1950.00000	98.65600	906.17230	98.65600
2000.00000	97.92753	900.34838	97.92753
2050.00000	96.55402	905.63940	96.55402
2100.00000	97.41117	909.38174	97.41117
2150.00000	98.82389	901.90071	98.82389
2200.00000	98.52398	893.64862	98.52398
2250.00000	98.44128	886.76264	98.44128
2300.00000	98.16651	888.82203	98.16651
2350.00000	97.93892	882.01874	97.93892
2400.00000	97.70529	882.70423	97.70529
2450.00000	97.76736	878.30113	97.76736
2500.00000	97.13212	876.16938	97.13212
2550.00000	97.45725	876.04538	97.45725
2600.00000	97.63864	877.88165	97.63864
2650.00000	97.87726	875.01248	97.87726
2700.00000	97.87286	874.10615	97.87286
2750.00000	97.78062	875.29284	97.78062
2800.00000	98.69475	870.52764	98.69475
2850.00000	98.51973	869.28155	98.51973
2900.00000	99.18381	867.49967	99.18381
2950.00000	99.51030	865.08390	99.51030
3000.00000	99.72171	862.86850	99.72171
3050.00000	99.76281	860.17403	99.76281
3100.00000	100.31352	857.06128	100.31352
3150.00000	100.09921	853.44131	100.09921
3200.00000	100.43156	851.15389	100.43156
3250.00000	100.76938	850.16180	100.76938
3300.00000	100.61694	845.98074	100.61694
3350.00000	100.95257	846.16773	100.95257
3400.00000	101.08608	843.16565	101.08608
3450.00000	101.35797	841.52886	101.35797
3500.00000	101.46958	840.76298	101.46958
3550.00000	102.29579	839.28830	102.29579
3600.00000	102.37963	834.02805	102.37963
3650.00000	102.52412	834.01092	102.52412
3700.00000	102.74939	831.55927	102.74939
3750.00000	103.34602	828.97608	103.34602
3800.00000	104.03585	826.55924	104.03585
3850.00000	104.51390	818.13697	104.51390
3900.00000	104.90776	811.39711	104.90776
3950.00000	104.10823	807.62283	104.10823
4000.00000	103.65963	809.49479	103.65963
4050.00000	104.15240	811.14217	104.15240
4100.00000	104.88368	811.03713	104.88368
4150.00000	106.50185	807.98759	106.50185
4200.00000	107.35777	802.93275	107.35777
4250.00000	107.48985	790.53538	107.48985
4300.00000	107.58042	786.96260	107.58042
4350.00000	107.95866	782.09742	107.95866
4400.00000	108.26394	776.20163	108.26394
4450.00000	108.34633	768.94682	108.34633
4500.00000	108.42005	762.66036	108.42005
4550.00000	108.27152	757.20190	108.27152
4600.00000	108.29838	751.89361	108.29838
4650.00000	108.29324	747.07477	108.29324
4700.00000	108.20833	742.18725	108.20833
4750.00000	108.16035	737.72725	108.16035
4800.00000	108.13811	733.16992	108.13811
4850.00000	108.15692	728.49586	108.15692
4900.00000	108.12151	723.07765	108.12151
4950.00000	108.05844	718.11334	108.05844
5000.00000	107.95210	712.54904	107.95210
5050.00000	107.76019	706.76073	107.76019
5100.00000	107.50653	701.43196	107.50653
5150.00000	107.14325	695.93267	107.14325
5200.00000	106.49470	691.04064	106.49470
5250.00000	105.64476	691.17620	105.64476
5300.00000	106.15991	691.46833	106.15991
5350.00000	106.41980	685.55255	106.41980
5400.00000	106.20260	679.67848	106.20260
5450.00000	105.84640	675.50819	105.84640
5500.00000	105.52063	671.42299	105.52063
5550.00000	105.23945	667.57225	105.23945
5600.00000	104.92918	663.57898	104.92918
5650.00000	104.51053	660.08848	104.51053
5700.00000	104.09324	657.69395	104.09324
5750.00000	103.77210	654.80626	103.77210
5800.00000	103.39485	652.05024	103.39485
5850.00000	103.06956	649.71341	103.06956
5900.00000	102.74796	647.05077	102.74796
5950.00000	102.50799	645.68482	102.50799
6000.00000	102.15544	642.85014	102.15544
6050.00000	101.80456	640.84698	101.80456
6100.00000	101.52601	638.59011	101.52601
6150.00000	101.33145	636.26019	101.33145
6200.00000	101.01036	635.12853	101.01036
6250.00000	100.69035	633.27094	100.69035
6300.00000	100.33331	632.17092	100.33331
6350.00000	100.16359	629.98077	100.16359
6400.00000	99.81683	627.94899	99.81683
6450.00000	99.64761	629.13198	99.64761
6500.00000	99.36606	627.54502	99.36606
6550.00000	99.19893	629.21893	99.19893
6600.00000	99.13963	627.24628	99.13963
6650.00000	99.19743	626.73577	99.19743
6700.00000	99.37466	625.82035	99.37466
6750.00000	99.33508	623.94693	99.33508
6800.00000	99.30876	623.38655	99.30876
6850.00000	99.33860	619.50060	99.33860
6900.00000	99.11259	616.68281	99.11259
6950.00000	99.19887	615.53413	99.19887
7000.00000	99.05199	611.33842	99.05199
7050.00000	98.71463	611.09128	98.71463
7100.00000	98.53313	606.22160	98.53313
7150.00000	98.15577	606.03139	98.15577
7200.00000	98.16179	603.83305	98.16179
7250.00000	97.76166	602.79130	97.76166
7300.00000	97.50999	603.43753	97.50999
7350.00000	97.28081	601.06208	97.28081
7400.00000	97.01081	602.03033	97.01081
7450.00000	97.06881	602.51973	97.06881
7500.00000	96.92667	602.40441	96.92667
7550.00000	96.56283	605.02267	96.56283
7600.00000	96.88262	604.68261	96.88262
7650.00000	97.00377	606.11931	97.00377
7700.00000	97.50557	603.46420	97.50557
7750.00000	97.24821	604.90973	97.24821
7800.00000	97.77966	606.02658	97.77966
7850.00000	98.17362	601.48900	98.17362
7900.00000	98.13532	599.85385	98.13532
7950.00000	98.51259	598.58804	98.51259
8000.00000	98.72684	598.88432	98.72684
8050.00000	99.06561	595.73235	99.06561
8100.00000	99.16570	591.55400	99.16570
8150.00000	99.09976	591.22493	99.09976
8200.00000	99.85601	590.04945	99.85601
8250.00000	99.76122	585.68610	99.76122
8300.00000	99.78557	584.79793	99.78557
8350.00000	100.03963	581.96331	100.03963
8400.00000	100.12380	579.58697	100.12380
8450.00000	100.52678	577.47297	100.52678
8500.00000	100.36209	573.83531	100.36209
8550.00000	100.54117	572.86684	100.54117
8600.00000	100.84566	568.56814	100.84566
8650.00000	100.83961	565.35441	100.83961
8700.00000	100.94792	564.26531	100.94792
8750.00000	101.10054	559.74777	101.10054
8800.00000	101.06954	557.51321	101.06954
8850.00000	101.28873	553.64738	101.28873
8900.00000	101.26811	550.90628	101.26811
8950.00000	101.25875	549.15266	101.25875
9000.00000	101.38007	544.28388	101.38007
9050.00000	101.20330	541.48756	101.20330
9100.00000	101.39360	538.35475	101.39360
9150.00000	101.15633	535.43000	101.15633
9200.00000	101.10267	533.37150	101.10267
9250.00000	101.17461	528.85955	101.17461
9300.00000	100.91279	525.83311	100.91279
9350.00000	101.06550	524.53248	101.06550
9400.00000	100.89674	521.28618	100.89674
9450.00000	100.90833	518.73110	100.90833
9500.00000	100.93745	514.71289	100.93745
9550.00000	100.62016	511.48040	100.62016
9600.00000	100.59266	512.26360	100.59266
9650.00000	100.73038	507.76915	100.73038
9700.00000	100.44309	504.17860	100.44309
9750.00000	100.37899	502.05050	100.37899
9800.00000	100.31342	499.68900	100.31342
9850.00000	100.12270	499.04568	100.12270
9900.00000	100.34521	495.27852	100.34521
9950.00000	99.95087	491.95109	99.95087
10000.00000	100.04655	492.19418	100.04655
10050.00000	100.12184	489.93238	100.12184
10100.00000	99.88152	487.29986	99.88152
10150.00000	99.90708	485.07368	99.90708
10200.00000	99.74365	482.30085	99.74365
10250.00000	99.71157	482.01710	99.71157
10300.00000	99.73337	480.08057	99.73337
10350.00000	99.69663	477.03929	99.69663
10400.00000	99.63577	475.70793	99.63577
10450.00000	99.79764	472.98543	99.79764
10500.00000	99.74018	471.05577	99.74018
10550.00000	99.87108	468.51845	99.87108
10600.00000	99.92995	464.72224	99.92995
10650.00000	99.90258	463.03493	99.90258
10700.00000	100.07634	460.26560	100.07634
10750.00000	100.00498	456.67550	100.00498
10800.00000	100.09028	453.31249	100.09028
10850.00000	100.17243	449.79343	100.17243
10900.00000	100.15250	446.68174	100.15250
10950.00000	100.16826	443.56257	100.16826
11000.00000	100.27903	439.08920	100.27903
11050.00000	100.10779	435.56811	100.10779
11100.00000	100.14106	432.43002	100.14106
11150.00000	100.05204	428.12178	100.05204
11200.00000	99.89751	424.23712	99.89751
11250.00000	99.75313	420.22950	99.75313
11300.00000	99.47707	416.12434	99.47707
11350.00000	99.17545	412.73722	99.17545
11400.00000	98.95157	408.50021	98.95157
11450.00000	98.65962	404.25143	98.65962
11500.00000	98.28770	400.43804	98.28770
11550.00000	97.90022	396.83141	97.90022
11600.00000	97.48709	393.26338	97.48709
11650.00000	97.13414	390.06042	97.13414
11700.00000	96.81639	386.69652	96.81639
11750.00000	96.28661	383.38138	96.28661
11800.00000	95.87426	380.98610	95.87426
11850.00000	95.57524	378.24937	95.57524
11900.00000	95.08294	376.86365	95.08294
11950.00000	94.70762	375.05317	94.70762
12000.00000	94.33012	373.36319	94.33012
12050.00000	93.84430	372.58503	93.84430
12100.00000	93.41974	372.19958	93.41974
12150.00000	92.97353	370.77576	92.97353
12200.00000	92.57395	369.44330	92.57395
12250.00000	92.13728	368.73358	92.13728
12300.00000	91.50453	367.57290	91.50453
12350.00000	91.06459	367.12056	91.06459
12400.00000	90.62194	365.62581	90.62194
12450.00000	90.29354	364.37106	90.29354
12500.00000	89.86133	364.98812	89.86133
12550.00000	89.45207	364.72882	89.45207
12600.00000	89.22740	362.63338	89.22740
12650.00000	88.91701	363.26145	88.91701
12700.00000	88.52471	362.62888	88.52471
12750.00000	88.10728	363.33953	88.10728
12800.00000	87.85466	363.70732	87.85466
12850.00000	87.59649	364.38703	87.59649
12900.00000	87.19661	363.58662	87.19661
12950.00000	86.98152	363.92220	86.98152
13000.00000	86.69791	362.43920	86.69791
13050.00000	86.39663	361.76181	86.39663
13100.00000	86.18890	360.30105	86.18890
13150.00000	86.31562	360.38256	86.31562
13200.00000	86.33930	356.97138	86.33930
13250.00000	86.78085	353.96237	86.78085
13300.00000	87.39102	356.42371	87.39102
13350.00000	88.25755	356.88637	88.25755
13400.00000	89.31233	361.99484	89.31233
13450.00000	89.98966	373.13603	89.98966
13500.00000	89.41151	388.39128	89.41151
13550.00000	88.16607	396.66345	88.16607
13600.00000	86.47011	400.66933	86.47011
13650.00000	84.89765	399.17611	84.89765
13700.00000	83.40910	396.40163	83.40910
13750.00000	82.62858	389.66436	82.62858
13800.00000	82.41687	384.52451	82.41687
13850.00000	82.36311	376.52434	82.36311
13900.00000	82.63249	368.95273	82.63249
13950.00000	83.43989	364.69180	83.43989
14000.00000	85.03994	362.97760	85.03994
14050.00000	86.95492	363.55456	86.95492
14100.00000	88.81127	369.84103	88.81127
14150.00000	90.43584	383.87221	90.43584
14200.00000	90.52246	400.53412	90.52246
14250.00000	89.38862	414.14692	89.38862
14300.00000	88.13288	420.31627	88.13288
14350.00000	87.00185	420.82817	87.00185
14400.00000	86.44221	419.50769	86.44221
14450.00000	85.96815	415.13732	85.96815
14500.00000	85.83979	412.22160	85.83979
14550.00000	86.20030	405.75358	86.20030
14600.00000	86.57089	402.54441	86.57089
14650.00000	87.40283	398.06831	87.40283
14700.00000	88.35079	394.66686	88.35079
14750.00000	89.49221	391.35665	89.49221
14800.00000	90.85027	389.99164	90.85027
14850.00000	92.07921	390.23660	92.07921
14900.00000	93.62158	391.83270	93.62158
14950.00000	94.35929	395.69720	94.35929
15000.00000	94.98668	399.02135	94.98668
15050.00000	95.14116	402.38806	95.14116
15100.00000	95.17181	402.40347	95.17181
15150.00000	94.99307	400.10431	94.99307
15200.00000	95.04807	396.95935	95.04807
15250.00000	95.00486	392.12752	95.00486
15300.00000	95.17990	386.63046	95.17990
15350.00000	95.60565	381.08446	95.60565
15400.00000	96.04271	374.53213	96.04271
15450.00000	96.47752	368.29694	96.47752
15500.00000	97.20180	363.79985	97.20180
15550.00000	97.75583	359.61844	97.75583
15600.00000	98.35256	356.87222	98.35256
15650.00000	98.93986	353.57173	98.93986
15700.00000	99.14448	352.25057	99.14448
15750.00000	99.34832	350.62292	99.34832
15800.00000	99.29604	349.33202	99.29604
15850.00000	99.27416	347.86057	99.27416
15900.00000	99.02174	344.65236	99.02174
15950.00000	98.81826	341.58423	98.81826
16000.00000	98.74515	337.32581	98.74515
16050.00000	98.76360	333.82663	98.76360
16100.00000	98.66655	330.19606	98.66655
16150.00000	98.93547	326.17680	98.93547
16200.00000	99.08727	323.30089	99.08727
16250.00000	99.27604	320.07851	99.27604
16300.00000	99.50598	317.46903	99.50598
16350.00000	99.78491	315.21397	99.78491
16400.00000	99.86717	313.70688	99.86717
16450.00000	100.02535	312.24104	100.02535
16500.00000	100.06417	310.57515	100.06417
16550.00000	100.02229	308.76198	100.02229
16600.00000	100.04735	306.97755	100.04735
16650.00000	100.03020	304.68883	100.03020
16700.00000	100.11167	301.89570	100.11167
16750.00000	100.12004	299.09712	100.12004
16800.00000	100.22426	296.93571	100.22426
16850.00000	100.41553	293.83178	100.41553
16900.00000	100.57215	292.00784	100.57215
16950.00000	100.69051	289.49806	100.69051
17000.00000	100.85808	287.37626	100.85808
17050.00000	101.01007	285.78308	101.01007
17100.00000	101.18206	284.26828	101.18206
17150.00000	101.27545	282.11697	101.27545
17200.00000	101.35588	279.91664	101.35588
17250.00000	101.46903	277.71726	101.46903
17300.00000	101.57712	275.30977	101.57712
17350.00000	101.65742	272.43701	101.65742
17400.00000	101.80632	269.65124	101.80632
17450.00000	101.96405	267.13079	101.96405
17500.00000	102.07396	264.26412	102.07396
17550.00000	102.22010	261.60259	102.22010
17600.00000	102.39162	259.08476	102.39162
17650.00000	102.55831	256.82288	102.55831
17700.00000	102.66627	254.38827	102.66627
17750.00000	102.82137	252.25419	102.82137
17800.00000	102.90851	249.73967	102.90851
17850.00000	103.05677	247.24353	103.05677
17900.00000	103.15924	244.88297	103.15924
17950.00000	103.24439	242.34531	103.24439
18000.00000	103.35908	239.64182	103.35908
18050.00000	103.49402	236.64147	103.49402
18100.00000	103.63531	234.06111	103.63531
18150.00000	103.74722	231.12243	103.74722
18200.00000	103.85344	228.36856	103.85344
18250.00000	103.99596	225.54806	103.99596
18300.00000	104.08324	222.53895	104.08324
18350.00000	104.22192	219.60612	104.22192
18400.00000	104.29537	216.61281	104.29537
18450.00000	104.40329	213.74970	104.40329
18500.00000	104.51309	210.86173	104.51309
18550.00000	104.61527	207.62633	104.61527
18600.00000	104.64806	204.82912	104.64806
18650.00000	104.75665	201.61973	104.75665
18700.00000	104.80917	198.68780	104.80917
18750.00000	104.88007	195.61245	104.88007
18800.00000	104.90441	192.47704	104.90441
18850.00000	104.95137	189.57272	104.95137
18900.00000	104.92956	186.59479	104.92956
18950.00000	104.96017	183.35732	104.96017
19000.00000	104.95605	180.21665	104.95605
19050.00000	104.96455	177.21342	104.96455
19100.00000	104.95852	174.06581	104.95852
19150.00000	104.96263	171.37888	104.96263
19200.00000	104.93668	168.35554	104.93668
19250.00000	104.90471	165.80229	104.90471
19300.00000	104.90681	162.97512	104.90681
19350.00000	104.88701	160.01831	104.88701
19400.00000	104.81410	157.46894	104.81410
19450.00000	104.79484	154.61703	104.79484
19500.00000	104.77180	152.01845	104.77180
19550.00000	104.75748	149.55609	104.75748
19600.00000	104.72408	146.82427	104.72408
19650.00000	104.69545	144.38159	104.69545
19700.00000	104.68586	141.75375	104.68586
19750.00000	104.66644	139.37833	104.66644
19800.00000	104.65679	137.21894	104.65679
19850.00000	104.62559	134.41437	104.62559
19900.00000	104.63462	132.02038	104.63462
19950.00000	104.62568	129.75498	104.62568
20000.00000	104.60501	127.02190	104.60501
20050.00000	104.59400	124.66843	104.59400
20100.00000	104.62076	122.31133	104.62076
20150.00000	104.61149	119.59361	104.61149
20200.00000	104.63100	117.14227	104.63100
20250.00000	104.63908	114.93651	104.63908
20300.00000	104.65843	112.25890	104.65843
20350.00000	104.66421	109.96591	104.66421
20400.00000	104.66874	107.33841	104.66874
20450.00000	104.67423	104.64713	104.67423
20500.00000	104.69729	101.99443	104.69729
20550.00000	104.66765	99.29424	104.66765
20600.00000	104.65008	96.58684	104.65008
20650.00000	104.68499	94.02980	104.68499
20700.00000	104.67758	91.61436	104.67758
20750.00000	104.65531	88.95022	104.65531
20800.00000	104.62604	86.18694	104.62604
20850.00000	104.60305	83.47687	104.60305
20900.00000	104.57492	80.84594	104.57492
20950.00000	104.55002	78.12282	104.55002
21000.00000	104.54528	75.26335	104.54528
21050.00000	104.50521	72.69160	104.50521
21100.00000	104.47362	70.17435	104.47362
21150.00000	104.45273	67.50740	104.45273
21200.00000	104.38968	64.92801	104.38968
21250.00000	104.29506	62.19375	104.29506
21300.00000	104.23844	59.35240	104.23844
21350.00000	104.15920	56.87279	104.15920
21400.00000	104.10217	54.01278	104.10217
21450.00000	104.06113	51.71462	104.06113
21500.00000	104.01714	49.22073	104.01714
21550.00000	103.93084	46.85586	103.93084
21600.00000	103.85241	44.13015	103.85241
21650.00000	103.75937	41.95718	103.75937
21700.00000	103.63695	39.18176	103.63695
21750.00000	103.55537	36.83930	103.55537
21800.00000	103.47071	34.27539	103.47071
21850.00000	103.39145	32.16690	103.39145
21900.00000	103.26457	29.95010	103.26457
21950.00000	103.15611	27.70342	103.15611
22000.00000	103.00144	25.85297	103.00144
22050.00000	102.87080	24.05107	102.87080
22100.00000	102.80824	22.58676	102.80824
22150.00000	102.75847	20.76456	102.75847
22200.00000	102.71736	18.79825	102.71736
22250.00000	102.66325	16.95252	102.66325
22300.00000	102.62936	14.94908	102.62936
22350.00000	102.57772	13.10980	102.57772
22400.00000	102.57130	11.28852	102.57130
22450.00000	102.58767	 9.56404	102.58767
22500.00000	102.51075	 7.76307	102.51075
22550.00000	102.50417	 5.83143	102.50417
22600.00000	102.50614	 4.00793	102.50614
22650.00000	102.50439	 2.30036	102.50439
22700.00000	102.50997	 0.42687	102.50997
22750.00000	102.53144	-1.58323	102.53144
22800.00000	102.53805	-3.53457	102.53805
22850.00000	102.54346	-5.50859	102.54346
22900.00000	102.60071	-7.26505	102.60071
22950.00000	102.66481	-9.36385	102.66481
23000.00000	102.67249	-11.34123	102.67249
23050.00000	102.70389	-13.42666	102.70389
23100.00000	102.73693	-15.70850	102.73693
23150.00000	102.71365	-17.84916	102.71365
23200.00000	102.74631	-20.35864	102.74631
23250.00000	102.82456	-22.75129	102.82456
23300.00000	102.93914	-25.50711	102.93914
23350.00000	102.89583	-27.26109	102.89583
23400.00000	102.96108	-29.25159	102.96108
23450.00000	102.98884	-31.82230	102.98884
23500.00000	103.04275	-33.71711	103.04275
23550.00000	103.04720	-36.43405	103.04720
23600.00000	103.11963	-39.01628	103.11963
23650.00000	103.05482	-41.06385	103.05482
23700.00000	103.14801	-43.51005	103.14801
23750.00000	103.17475	-46.18131	103.17475
23800.00000	103.18705	-48.65228	103.18705
23850.00000	103.25391	-51.27562	103.25391
23900.00000	103.25448	-53.89599	103.25448
23950.00000	103.24591	-56.22156	103.24591
24000.00000	103.31832	-59.17550	103.31832
24050.00000	103.27425	-61.94528	103.27425
24100.00000	103.26749	-64.71464	103.26749
24150.00000	103.26221	-67.16613	103.26221
24200.00000	103.29332	-70.56747	103.29332
24250.00000	103.29981	-72.89357	103.29981
24300.00000	103.27806	-75.94572	103.27806
24350.00000	103.26875	-78.43163	103.26875
24400.00000	103.31384	-81.45948	103.31384
24450.00000	103.23393	-83.62262	103.23393
24500.00000	103.16663	-87.40997	103.16663
24550.00000	103.13253	-90.54904	103.13253
24600.00000	103.11404	-93.32962	103.11404
24650.00000	103.06495	-96.31943	103.06495
24700.00000	103.00746	-99.24371	103.00746
24750.00000	102.99141	-102.41633	102.99141
24800.00000	102.86045	-104.77295	102.86045
24850.00000	102.79331	-107.74518	102.79331
24900.00000	102.62412	-110.32819	102.62412
24950.00000	102.61799	-113.21645	102.61799
25000.00000	102.47126	-116.18081	102.47126
25050.00000	102.42769	-118.53873	102.42769
25100.00000	102.34666	-120.99857	102.34666
25150.00000	102.14648	-123.60671	102.14648
25200.00000	102.10100	-126.25002	102.10100
25250.00000	101.92384	-129.13486	101.92384
25300.00000	101.77339	-131.80778	101.77339
25350.00000	101.73313	-134.55221	101.73313
25400.00000	101.61934	-137.04189	101.61934
25450.00000	101.59656	-140.25835	101.59656
25500.00000	101.45040	-142.14437	101.45040
25550.00000	101.34539	-145.00603	101.34539
25600.00000	101.21957	-147.21185	101.21957
25650.00000	101.08233	-150.68665	101.08233
25700.00000	100.99491	-152.73660	100.99491
25750.00000	100.88319	-155.96154	100.88319
25800.00000	100.77058	-157.83365	100.77058
25850.00000	100.65613	-160.55885	100.65613
25900.00000	100.48671	-163.75246	100.48671
25950.00000	100.36258	-165.92609	100.36258
26000.00000	100.22495	-168.60405	100.22495
26050.00000	100.12128	-171.63065	100.12128
26100.00000	99.98213	-174.13258	99.98213
26150.00000	99.79348	-177.30061	99.79348
26200.00000	99.58452	-179.58852	99.58452
26250.00000	99.43960	-182.24249	99.43960
26300.00000	99.19909	-185.20057	99.19909
26350.00000	99.05869	-187.81205	99.05869
26400.00000	98.88829	-190.64214	98.88829
26450.00000	98.63359	-193.96875	98.63359
26500.00000	98.43421	-196.25542	98.43421
26550.00000	98.20901	-198.02263	98.20901
26600.00000	97.95683	-200.70029	97.95683
26650.00000	97.70125	-203.62092	97.70125
26700.00000	97.45299	-206.02213	97.45299
26750.00000	97.12719	-208.07160	97.12719
26800.00000	96.85606	-210.25714	96.85606
26850.00000	96.54556	-212.08375	96.54556
26900.00000	96.26955	-214.27508	96.26955
26950.00000	95.96081	-216.21151	95.96081
27000.00000	95.64604	-218.44641	95.64604
27050.00000	95.31539	-219.85613	95.31539
27100.00000	95.02741	-221.60756	95.02741
27150.00000	94.68768	-223.31328	94.68768
27200.00000	94.48298	-225.17830	94.48298
27250.00000	94.17006	-226.39482	94.17006
27300.00000	93.88082	-227.73747	93.88082
27350.00000	93.59487	-228.71916	93.59487
27400.00000	93.29883	-229.91530	93.29883
27450.00000	93.14955	-231.22655	93.14955
27500.00000	92.75804	-232.03003	92.75804
27550.00000	92.47583	-232.90641	92.47583
27600.00000	92.28444	-233.89412	92.28444
27650.00000	92.00642	-234.44520	92.00642
27700.00000	91.75443	-235.17095	91.75443
27750.00000	91.52712	-236.00555	91.52712
27800.00000	91.29556	-236.86882	91.29556
27850.00000	91.13043	-237.80557	91.13043
27900.00000	90.94067	-239.00920	90.94067
27950.00000	90.65045	-238.41488	90.65045
28000.00000	90.49499	-239.38251	90.49499
28050.00000	90.26465	-239.52941	90.26465
28100.00000	90.05189	-240.09092	90.05189
28150.00000	89.86983	-240.94634	89.86983
28200.00000	89.85374	-241.15759	89.85374
28250.00000	89.50873	-241.55963	89.50873
28300.00000	89.39811	-242.43565	89.39811
28350.00000	89.25547	-242.57324	89.25547
28400.00000	89.13531	-243.28854	89.13531
28450.00000	88.89722	-243.25305	88.89722
28500.00000	88.72923	-243.52372	88.72923
28550.00000	88.58472	-244.14505	88.58472
28600.00000	88.55534	-244.51055	88.55534
28650.00000	88.44590	-243.76614	88.44590
28700.00000	88.25481	-244.14795	88.25481
28750.00000	88.19654	-244.14716	88.19654
28800.00000	88.00980	-244.99956	88.00980
28850.00000	87.97923	-244.99232	87.97923
28900.00000	87.91300	-245.02183	87.91300
28950.00000	87.77034	-245.28164	87.77034
29000.00000	87.81930	-244.80136	87.81930
29050.00000	87.73155	-245.67895	87.73155
29100.00000	87.68885	-245.03315	87.68885
29150.00000	87.54684	-246.11338	87.54684
29200.00000	87.58109	-245.35538	87.58109
29250.00000	87.53907	-245.83238	87.53907
29300.00000	87.48861	-245.56053	87.48861
29350.00000	87.38772	-245.02212	87.38772
29400.00000	87.45475	-245.23301	87.45475
29450.00000	87.37969	-245.98708	87.37969
29500.00000	87.39553	-245.43388	87.39553
29550.00000	87.52488	-244.50992	87.52488
29600.00000	87.46251	-244.66662	87.46251
29650.00000	87.59013	-244.40597	87.59013
29700.00000	87.51634	-244.65841	87.51634
29750.00000	87.55458	-244.64701	87.55458
29800.00000	87.60382	-243.83312	87.60382
29850.00000	87.80961	-244.34205	87.80961
29900.00000	87.83804	-244.01955	87.83804
29950.00000	87.87315	-243.77669	87.87315
30000.00000	87.99881	-244.23011	87.99881
30050.00000	88.12931	-243.59720	88.12931
30100.00000	88.27972	-243.64545	88.27972
30150.00000	88.36525	-243.89269	88.36525
30200.00000	88.65171	-243.61340	88.65171
30250.00000	88.76761	-243.86408	88.76761
30300.00000	88.97696	-244.09106	88.97696
30350.00000	89.16485	-244.53435	89.16485
30400.00000	89.27543	-244.78092	89.27543
30450.00000	89.47116	-244.76485	89.47116
30500.00000	89.73429	-245.40805	89.73429
30550.00000	89.83081	-245.97018	89.83081
30600.00000	90.13830	-246.22040	90.13830
30650.00000	90.38104	-246.79758	90.38104
30700.00000	90.59810	-247.11893	90.59810
30750.00000	90.76672	-248.24287	90.76672
30800.00000	91.02329	-248.78964	91.02329
30850.00000	91.26258	-249.97601	91.26258
30900.00000	91.55236	-250.85653	91.55236
30950.00000	91.75329	-251.32108	91.75329
31000.00000	91.98594	-252.60944	91.98594
31050.00000	92.27060	-253.53072	92.27060
31100.00000	92.49308	-254.93498	92.49308
31150.00000	92.72316	-255.78743	92.72316
31200.00000	92.95820	-257.18045	92.95820
31250.00000	93.21013	-258.57867	93.21013
31300.00000	93.48602	-260.14928	93.48602
31350.00000	93.70175	-261.12291	93.70175
31400.00000	93.94878	-262.54787	93.94878
31450.00000	94.21983	-264.00848	94.21983
31500.00000	94.33092	-265.75725	94.33092
31550.00000	94.58284	-267.25551	94.58284
31600.00000	94.87623	-269.06517	94.87623
31650.00000	95.05144	-271.20685	95.05144
31700.00000	95.28809	-272.68673	95.28809
31750.00000	95.47544	-274.57324	95.47544
31800.00000	95.68969	-276.21098	95.68969
31850.00000	95.88909	-277.65206	95.88909
31900.00000	96.03848	-279.79310	96.03848
31950.00000	96.22097	-281.74734	96.22097
32000.00000	96.39799	-284.01978	96.39799
32050.00000	96.54403	-285.59429	96.54403
32100.00000	96.69533	-287.37641	96.69533
32150.00000	96.82312	-289.55990	96.82312
32200.00000	96.95135	-291.09481	96.95135
32250.00000	97.14735	-292.80545	97.14735
32300.00000	97.22728	-294.63031	97.22728
32350.00000	97.41809	-296.44552	97.41809
32400.00000	97.50213	-298.12543	97.50213
32450.00000	97.68827	-300.27026	97.68827
32500.00000	97.77355	-301.65380	97.77355
32550.00000	97.85321	-303.37139	97.85321
32600.00000	98.05416	-305.23689	98.05416
32650.00000	98.15147	-306.67073	98.15147
32700.00000	98.32082	-308.54994	98.32082
32750.00000	98.42348	-310.35127	98.42348
32800.00000	98.53463	-311.70881	98.53463
32850.00000	98.68207	-313.43281	98.68207
32900.00000	98.81446	-314.95587	98.81446
32950.00000	98.93110	-316.18066	98.93110
33000.00000	99.03249	-317.94763	99.03249
33050.00000	99.20450	-319.31239	99.20450
33100.00000	99.31728	-321.05984	99.31728
33150.00000	99.45008	-322.75844	99.45008
33200.00000	99.57677	-324.00137	99.57677
33250.00000	99.72855	-325.84341	99.72855
33300.00000	99.84559	-327.34781	99.84559
33350.00000	100.03156	-328.42467	100.03156
33400.00000	100.14001	-330.01355	100.14001
33450.00000	100.29023	-331.26477	100.29023
33500.00000	100.44822	-332.57408	100.44822
33550.00000	100.59433	-334.26839	100.59433
33600.00000	100.79035	-335.48586	100.79035
33650.00000	100.96038	-336.62493	100.96038
33700.00000	101.09184	-338.04838	101.09184
33750.00000	101.23985	-339.42923	101.23985
33800.00000	101.48177	-340.96187	101.48177
33850.00000	101.67404	-342.01764	101.67404
33900.00000	101.83716	-343.20935	101.83716
33950.00000	102.06273	-344.43280	102.06273
34000.00000	102.27836	-345.58280	102.27836
34050.00000	102.51708	-346.66680	102.51708
34100.00000	102.74011	-348.08956	102.74011
34150.00000	102.97243	-349.35360	102.97243
34200.00000	103.25466	-350.53885	103.25466
34250.00000	103.52519	-351.91000	103.52519
34300.00000	103.78886	-353.43232	103.78886
34350.00000	104.12256	-354.91847	104.12256
34400.00000	104.45714	-356.31163	104.45714
34450.00000	104.73541	-358.24610	104.73541
34500.00000	105.05242	-359.60743	105.05242
34550.00000	105.37296	-361.51710	105.37296
34600.00000	105.68262	-363.41215	105.68262
34650.00000	106.04228	-365.41749	106.04228
34700.00000	106.36471	-367.24505	106.36471
34750.00000	106.70316	-369.45833	106.70316
34800.00000	107.02510	-371.74009	107.02510
34850.00000	107.38047	-374.13700	107.38047
34900.00000	107.69426	-376.68571	107.69426
34950.00000	107.97494	-379.33872	107.97494
35000.00000	108.24994	-381.91803	108.24994
35050.00000	108.46802	-384.31280	108.46802
35100.00000	108.69677	-386.50132	108.69677
35150.00000	108.98387	-388.48678	108.98387
35200.00000	109.30344	-390.68630	109.30344
35250.00000	109.59583	-392.96280	109.59583
35300.00000	109.91861	-395.37765	109.91861
35350.00000	110.25591	-397.80700	110.25591
35400.00000	110.58766	-400.53691	110.58766
35450.00000	110.89766	-403.19991	110.89766
35500.00000	111.21040	-405.91071	111.21040
35550.00000	111.53117	-408.74966	111.53117
35600.00000	111.82537	-411.66583	111.82537
35650.00000	112.11825	-414.51479	112.11825
35700.00000	112.40935	-417.48140	112.40935
35750.00000	112.68070	-420.45531	112.68070
35800.00000	112.98164	-423.48257	112.98164
35850.00000	113.25901	-426.46714	113.25901
35900.00000	113.53010	-429.51328	113.53010
35950.00000	113.79193	-432.66255	113.79193
36000.00000	114.06418	-435.65958	114.06418
36050.00000	114.31624	-438.78411	114.31624
36100.00000	114.57371	-441.87459	114.57371
36150.00000	114.83639	-445.06314	114.83639
36200.00000	115.08574	-448.17792	115.08574
36250.00000	115.32972	-451.33004	115.32972
36300.00000	115.56730	-454.43722	115.56730
36350.00000	115.80989	-457.53244	115.80989
36400.00000	116.05465	-460.69699	116.05465
36450.00000	116.29786	-463.79578	116.29786
36500.00000	116.53994	-466.90646	116.53994
36550.00000	116.80063	-470.01691	116.80063
36600.00000	117.04919	-473.18199	117.04919
36650.00000	117.30435	-476.20672	117.30435
36700.00000	117.57022	-479.31485	117.57022
36750.00000	117.83708	-482.41047	117.83708
36800.00000	118.13380	-485.56445	118.13380
36850.00000	118.41580	-488.63860	118.41580
36900.00000	118.70792	-491.93027	118.70792
36950.00000	119.02094	-495.15041	119.02094
37000.00000	119.33951	-498.42213	119.33951
37050.00000	119.67338	-501.77998	119.67338
37100.00000	120.01431	-505.28170	120.01431
37150.00000	120.37127	-508.85673	120.37127
37200.00000	120.73641	-512.46704	120.73641
37250.00000	121.12296	-516.31925	121.12296
37300.00000	121.51110	-520.23365	121.51110
37350.00000	121.91193	-524.39187	121.91193
37400.00000	122.32346	-528.86505	122.32346
37450.00000	122.73385	-533.42293	122.73385
37500.00000	123.14227	-538.28946	123.14227
37550.00000	123.55723	-543.50584	123.55723
37600.00000	123.95220	-548.95366	123.95220
37650.00000	124.33390	-554.74796	124.33390
37700.00000	124.67998	-560.81954	124.67998
37750.00000	124.99043	-567.28332	124.99043
37800.00000	125.24403	-573.99960	125.24403
37850.00000	125.45057	-580.83975	125.45057
37900.00000	125.57169	-587.90589	125.57169
37950.00000	125.62527	-594.95293	125.62527
38000.00000	125.62248	-601.95236	125.62248
38050.00000	125.54084	-608.92585	125.54084
38100.00000	125.40737	-615.61462	125.40737
38150.00000	125.22254	-622.02456	125.22254
38200.00000	125.00804	-628.18023	125.00804
38250.00000	124.75382	-634.00449	124.75382
38300.00000	124.49881	-639.59787	124.49881
38350.00000	124.23785	-644.92361	124.23785
38400.00000	123.97145	-649.98413	123.97145
38450.00000	123.70562	-654.85616	123.70562
38500.00000	123.45149	-659.52809	123.45149
38550.00000	123.19457	-664.17483	123.19457
38600.00000	122.95115	-668.63163	122.95115
38650.00000	122.71020	-673.03225	122.71020
38700.00000	122.47644	-677.31953	122.47644
38750.00000	122.24346	-681.58810	122.24346
38800.00000	122.00648	-685.78085	122.00648
38850.00000	121.78636	-690.00420	121.78636
38900.00000	121.55340	-694.18970	121.55340
38950.00000	121.31885	-698.29369	121.31885
39000.00000	121.09251	-702.43069	121.09251
39050.00000	120.85138	-706.58332	120.85138
39100.00000	120.60251	-710.72859	120.60251
39150.00000	120.34128	-714.78150	120.34128
39200.00000	120.06619	-718.75753	120.06619
39250.00000	119.79416	-722.68105	119.79416
39300.00000	119.50034	-726.47119	119.50034
39350.00000	119.21494	-730.24212	119.21494
39400.00000	118.94024	-734.00009	118.94024
39450.00000	118.65301	-737.53256	118.65301
39500.00000	118.36173	-741.07253	118.36173
39550.00000	118.07321	-744.62792	118.07321
39600.00000	117.77215	-748.22327	117.77215
39650.00000	117.46807	-751.70038	117.46807
39700.00000	117.14844	-755.10127	117.14844
39750.00000	116.82020	-758.31788	116.82020
39800.00000	116.48353	-761.46502	116.48353
39850.00000	116.14639	-764.55284	116.14639
39900.00000	115.80257	-767.44733	115.80257
39950.00000	115.47929	-770.22627	115.47929
40000.00000	115.15718	-772.87391	115.15718
40050.00000	114.81900	-775.41397	114.81900
40100.00000	114.52601	-777.95144	114.52601
40150.00000	114.22271	-780.36207	114.22271
40200.00000	113.93113	-782.72415	113.93113
40250.00000	113.65851	-785.09064	113.65851
40300.00000	113.36849	-787.35076	113.36849
40350.00000	113.10335	-789.51480	113.10335
40400.00000	112.83856	-791.73959	112.83856
40450.00000	112.59153	-793.85980	112.59153
40500.00000	112.35419	-795.97542	112.35419
40550.00000	112.11036	-797.97815	112.11036
40600.00000	111.88511	-800.09153	111.88511
40650.00000	111.66034	-802.10921	111.66034
40700.00000	111.43683	-804.28397	111.43683
40750.00000	111.22698	-806.23989	111.22698
40800.00000	111.00755	-808.23269	111.00755
40850.00000	110.80689	-810.28321	110.80689
40900.00000	110.63041	-812.18989	110.63041
40950.00000	110.42170	-814.13528	110.42170
41000.00000	110.25208	-816.37561	110.25208
41050.00000	110.03071	-818.30345	110.03071
41100.00000	109.85564	-820.30427	109.85564
41150.00000	109.67876	-822.38917	109.67876
41200.00000	109.47560	-824.39760	109.47560
41250.00000	109.31600	-826.33667	109.31600
41300.00000	109.13751	-828.40226	109.13751
41350.00000	108.92989	-830.32200	108.92989
41400.00000	108.77411	-832.36522	108.77411
41450.00000	108.57581	-834.18682	108.57581
41500.00000	108.36460	-836.08773	108.36460
41550.00000	108.13914	-837.89612	108.13914
41600.00000	107.92595	-839.74287	107.92595
41650.00000	107.74041	-841.61729	107.74041
41700.00000	107.51552	-843.28740	107.51552
41750.00000	107.28480	-844.59536	107.28480
41800.00000	107.07583	-846.14364	107.07583
41850.00000	106.88347	-847.60551	106.88347
41900.00000	106.68878	-848.73668	106.68878
41950.00000	106.50204	-849.83789	106.50204
42000.00000	106.34943	-850.91454	106.34943
42050.00000	106.25559	-851.78350	106.25559
42100.00000	106.11199	-852.62447	106.11199
42150.00000	106.04506	-853.58524	106.04506
42200.00000	105.94989	-854.29808	105.94989
42250.00000	105.88343	-855.10825	105.88343
42300.00000	105.83036	-856.09442	105.83036
42350.00000	105.85523	-856.95961	105.85523
42400.00000	105.87096	-857.99126	105.87096
42450.00000	105.93368	-859.12240	105.93368
42500.00000	105.93286	-860.28899	105.93286
42550.00000	105.97296	-861.41736	105.97296
42600.00000	105.99987	-863.21768	105.99987
42650.00000	106.07441	-864.37499	106.07441
42700.00000	106.13608	-865.72518	106.13608
42750.00000	106.21547	-867.78716	106.21547
42800.00000	106.29154	-869.51295	106.29154
42850.00000	106.34291	-871.57149	106.34291
42900.00000	106.43855	-873.20739	106.43855
42950.00000	106.49463	-875.41535	106.49463
43000.00000	106.61584	-877.40922	106.61584
43050.00000	106.62249	-880.16734	106.62249
43100.00000	106.68948	-882.26809	106.68948
43150.00000	106.73077	-884.16952	106.73077
43200.00000	106.75943	-887.05906	106.75943
43250.00000	106.78993	-889.51177	106.78993
43300.00000	106.86660	-891.58991	106.86660
43350.00000	106.88838	-894.05442	106.88838
43400.00000	106.93163	-896.59237	106.93163
43450.00000	106.92179	-899.24040	106.92179
43500.00000	106.88412	-901.73372	106.88412
43550.00000	106.88882	-904.15525	106.88882
43600.00000	106.86562	-906.73613	106.86562
43650.00000	106.84661	-909.45928	106.84661
43700.00000	106.77047	-912.02528	106.77047
43750.00000	106.75904	-914.95970	106.75904
43800.00000	106.71116	-918.06814	106.71116
43850.00000	106.65537	-919.85175	106.65537
43900.00000	106.62920	-922.77688	106.62920
43950.00000	106.50173	-925.72552	106.50173
44000.00000	106.36918	-928.37743	106.36918
44050.00000	106.37650	-930.94084	106.37650
44100.00000	106.19752	-933.42037	106.19752
44150.00000	106.19270	-935.76936	106.19270
44200.00000	106.08183	-937.66216	106.08183
44250.00000	105.92153	-940.30487	105.92153
44300.00000	105.81457	-942.54691	105.81457
44350.00000	105.74940	-944.50244	105.74940
44400.00000	105.64588	-946.89841	105.64588
44450.00000	105.51820	-949.34308	105.51820
44500.00000	105.47353	-950.79896	105.47353
44550.00000	105.31109	-952.49331	105.31109
44600.00000	105.21257	-954.34466	105.21257
44650.00000	104.97326	-956.98285	104.97326
44700.00000	105.00840	-958.10658	105.00840
44750.00000	104.88321	-960.26601	104.88321
44800.00000	104.83221	-961.95163	104.83221
44850.00000	104.72379	-964.09902	104.72379
44900.00000	104.68517	-965.62860	104.68517
44950.00000	104.54177	-967.19910	104.54177
45000.00000	104.45992	-968.69772	104.45992
45050.00000	104.45600	-970.85256	104.45600
45100.00000	104.35390	-972.40894	104.35390
45150.00000	104.39250	-974.28906	104.39250
45200.00000	104.24358	-975.33392	104.24358
45250.00000	104.22238	-977.25755	104.22238
45300.00000	104.30937	-979.32896	104.30937
45350.00000	104.24203	-980.09249	104.24203
45400.00000	104.25059	-981.64409	104.25059
45450.00000	104.37667	-983.70280	104.37667
45500.00000	104.40246	-985.26101	104.40246
45550.00000	104.40856	-986.28438	104.40856
45600.00000	104.41433	-988.48904	104.41433
45650.00000	104.45275	-991.31410	104.45275
45700.00000	104.56121	-993.02577	104.56121
45750.00000	104.60308	-995.83722	104.60308
45800.00000	104.52456	-997.32761	104.52456
45850.00000	104.56293	-1000.22887	104.56293
45900.00000	104.53216	-1002.15182	104.53216
45950.00000	104.57584	-1004.03451	104.57584
46000.00000	104.58190	-1006.07957	104.58190
46050.00000	104.62993	-1008.21454	104.62993
46100.00000	104.69795	-1010.75379	104.69795
46150.00000	104.68072	-1013.06598	104.68072
46200.00000	104.60787	-1016.37501	104.60787
46250.00000	104.59638	-1019.19198	104.59638
46300.00000	104.61867	-1021.45681	104.61867
46350.00000	104.46454	-1024.13382	104.46454
46400.00000	104.37016	-1026.47158	104.37016
46450.00000	104.18837	-1028.89308	104.18837
46500.00000	104.03842	-1030.99595	104.03842
46550.00000	103.82808	-1033.04776	103.82808
46600.00000	103.79784	-1034.67162	103.79784
46650.00000	103.72603	-1035.33456	103.72603
46700.00000	103.68808	-1037.04799	103.68808
46750.00000	103.52138	-1038.43071	103.52138
46800.00000	103.51192	-1039.54420	103.51192
46850.00000	103.35318	-1040.69429	103.35318
46900.00000	103.32683	-1042.62289	103.32683
46950.00000	103.35300	-1042.32124	103.35300
47000.00000	103.36232	-1043.88812	103.36232
47050.00000	103.49255	-1045.18204	103.49255
47100.00000	103.62627	-1046.94483	103.62627
47150.00000	103.71452	-1047.64824	103.71452
47200.00000	103.84147	-1048.80443	103.84147
47250.00000	103.80340	-1049.70932	103.80340
47300.00000	104.10354	-1051.05043	104.10354
47350.00000	104.28202	-1052.41639	104.28202
47400.00000	104.43275	-1053.97493	104.43275
47450.00000	104.61579	-1054.99283	104.61579
47500.00000	104.89147	-1057.86097	104.89147
47550.00000	105.03623	-1059.75948	105.03623
47600.00000	105.10293	-1060.72618	105.10293
47650.00000	105.31047	-1063.32894	105.31047
47700.00000	105.59785	-1065.79379	105.59785
47750.00000	105.72876	-1068.26786	105.72876
47800.00000	105.96986	-1070.59887	105.96986
47850.00000	106.28364	-1072.73519	106.28364
47900.00000	106.36451	-1075.69872	106.36451
47950.00000	106.67071	-1078.24428	106.67071
48000.00000	106.81987	-1081.14030	106.81987
48050.00000	107.06259	-1084.39323	107.06259
48100.00000	107.29643	-1087.50526	107.29643
48150.00000	107.49491	-1090.76500	107.49491
48200.00000	107.63078	-1094.25141	107.63078
48250.00000	107.82274	-1096.84266	107.82274
48300.00000	108.00564	-1100.68757	108.00564
48350.00000	108.20195	-1104.05723	108.20195
48400.00000	108.23315	-1107.62306	108.23315
48450.00000	108.40635	-1111.39231	108.40635
48500.00000	108.52352	-1115.09271	108.52352
48550.00000	108.65687	-1118.70197	108.65687
48600.00000	108.74112	-1123.73720	108.74112
48650.00000	108.81745	-1127.06150	108.81745
48700.00000	108.84382	-1131.03601	108.84382
48750.00000	108.87781	-1135.48184	108.87781
48800.00000	108.82376	-779.12689	108.82376
48850.00000	108.83422	-423.75854	108.83422
48900.00000	108.96282	-67.50631	108.96282
48950.00000	108.78873	288.49753	108.78873
49000.00000	108.82796	644.08783	108.82796
49050.00000	108.80025	999.66877	108.80025
49100.00000	108.73048	1356.44569	108.73048
49150.00000	108.65723	1711.19371	108.65723
49200.00000	108.42816	2068.57831	108.42816
49250.00000	108.41686	2424.63413	108.41686
49300.00000	108.27883	2781.45090	108.27883
49350.00000	108.12416	3137.60366	108.12416
49400.00000	107.85491	3492.90023	107.85491
49450.00000	107.82579	3850.17932	107.82579
49500.00000	107.61157	4207.21168	107.61157
49550.00000	107.40734	4563.60275	107.40734
49600.00000	107.25683	4920.42694	107.25683
49650.00000	107.14227	5276.32799	107.14227
49700.00000	106.82682	5633.43286	106.82682
49750.00000	106.72796	5990.92397	106.72796
49800.00000	106.43485	5988.24492	106.43485
49850.00000	106.42157	6703.60381	106.42157
49900.00000	106.29529	6701.27773	106.29529
49950.00000	105.96798	7059.22625	105.96798
50000.00000	105.88704	7056.25388	105.88704
50050.00000	105.65183	7053.81782	105.65183
50100.00000	105.47520	7050.36508	105.47520
50150.00000	105.42627	7048.19914	105.42627
50200.00000	105.28336	7044.88670	105.28336
50250.00000	105.07597	7042.70950	105.07597
50300.00000	104.95867	7040.14020	104.95867
50350.00000	104.79210	7038.19395	104.79210
50400.00000	104.81991	7035.51978	104.81991
50450.00000	104.54263	7033.13819	104.54263
50500.00000	104.51468	7031.31676	104.51468
50550.00000	104.32072	7028.14498	104.32072
50600.00000	104.21005	7025.07154	104.21005
50650.00000	104.21395	7023.35027	104.21395
50700.00000	103.94617	7019.55610	103.94617
50750.00000	103.89537	7017.39458	103.89537
50800.00000	103.86415	7014.84410	103.86415
50850.00000	103.67635	7012.18341	103.67635
50900.00000	103.57041	7009.01903	103.57041
50950.00000	103.56262	7005.58016	103.56262
51000.00000	103.62825	7002.92414	103.62825
51050.00000	103.49908	7000.59903	103.49908
51100.00000	103.25794	6997.01140	103.25794
51150.00000	103.15725	6993.58478	103.15725
51200.00000	102.96245	6990.35643	102.96245
51250.00000	102.93289	6987.68328	102.93289
51300.00000	102.79776	6983.22786	102.79776
51350.00000	102.71527	6981.89245	102.71527
51400.00000	102.52588	6976.59574	102.52588
51450.00000	102.14834	6973.86962	102.14834
51500.00000	101.99747	6970.70857	101.99747
51550.00000	101.74895	6966.68657	101.74895
51600.00000	101.44911	6964.18343	101.44911
51650.00000	100.96389	6960.92184	100.96389
51700.00000	100.78320	6957.37538	100.78320
51750.00000	100.40220	6954.77790	100.40220
51800.00000	100.17599	6952.22842	100.17599
51850.00000	99.73032	6948.40328	99.73032
51900.00000	99.28087	6945.93971	99.28087
51950.00000	98.79880	6943.72044	98.79880
52000.00000	98.27270	6942.03038	98.27270
52050.00000	97.96828	6939.84356	97.96828
52100.00000	97.49726	6937.72754	97.49726
52150.00000	97.04043	6938.92556	97.04043
52200.00000	96.59200	6935.88977	96.59200
52250.00000	96.23417	6934.37210	96.23417
52300.00000	95.71940	6934.24079	95.71940
52350.00000	95.83712	6935.22091	95.83712
52400.00000	94.93123	6935.95020	94.93123
52450.00000	94.87454	6934.53386	94.87454
52500.00000	94.67027	6933.06013	94.67027
52550.00000	94.26122	6936.08601	94.26122
52600.00000	94.04111	6934.36594	94.04111
52650.00000	94.07768	6935.69310	94.07768
52700.00000	93.94013	6937.68734	93.94013
52750.00000	94.08767	6936.05646	94.08767
52800.00000	94.01017	6938.32142	94.01017
52850.00000	93.57673	6936.43628	93.57673
52900.00000	93.94609	6937.82553	93.94609
52950.00000	93.77626	6938.19795	93.77626
53000.00000	94.00861	6936.93713	94.00861
53050.00000	94.07267	6936.77810	94.07267
53100.00000	94.07997	6937.19438	94.07997
53150.00000	94.26603	6937.35362	94.26603
53200.00000	94.56396	6935.41446	94.56396
53250.00000	94.73933	6936.02093	94.73933
53300.00000	94.93519	6932.07712	94.93519
53350.00000	94.94699	6932.48315	94.94699
53400.00000	94.78106	6932.29870	94.78106
53450.00000	95.58492	6928.79975	95.58492
53500.00000	95.40828	6926.58331	95.40828
53550.00000	95.78155	6926.99206	95.78155
53600.00000	95.87247	6923.41644	95.87247
53650.00000	96.00843	6921.46387	96.00843
53700.00000	96.32158	6918.80883	96.32158
53750.00000	96.35339	6915.76659	96.35339
53800.00000	96.31581	6914.28904	96.31581
53850.00000	96.52036	6912.37849	96.52036
53900.00000	96.74942	6910.27757	96.74942
53950.00000	96.88881	6907.27324	96.88881
54000.00000	96.90485	6904.02686	96.90485
54050.00000	97.18312	6900.40633	97.18312
54100.00000	97.12202	6898.08255	97.12202
54150.00000	97.11913	6895.76479	97.11913
54200.00000	97.02059	6893.71166	97.02059
54250.00000	97.20595	6889.66116	97.20595
54300.00000	97.26339	6888.37051	97.26339
54350.00000	97.30677	6883.92038	97.30677
54400.00000	97.52395	6882.00302	97.52395
54450.00000	97.49778	6878.74117	97.49778
54500.00000	97.30658	6876.68739	97.30658
54550.00000	97.25374	6873.06994	97.25374
54600.00000	97.43471	6871.09471	97.43471
54650.00000	97.29804	6867.02257	97.29804
54700.00000	97.36133	6864.86699	97.36133
54750.00000	97.25310	6861.32823	97.25310
54800.00000	97.27554	6858.65094	97.27554
54850.00000	97.24386	6854.60296	97.24386
54900.00000	97.45161	6852.19602	97.45161
54950.00000	97.29641	6849.78426	97.29641
55000.00000	97.39763	6846.74881	97.39763
55050.00000	97.26387	6843.34752	97.26387
55100.00000	97.30442	6839.73098	97.30442
55150.00000	97.33497	6837.27909	97.33497
55200.00000	97.20756	6834.11464	97.20756
55250.00000	97.17321	6831.17702	97.17321
55300.00000	97.22921	6828.40840	97.22921
55350.00000	97.21713	6824.56891	97.21713
55400.00000	96.95596	6821.52624	96.95596
55450.00000	97.01497	6818.74719	97.01497
55500.00000	96.87762	6814.77499	96.87762
55550.00000	96.77062	6811.58313	96.77062
55600.00000	96.78100	6808.01780	96.78100
55650.00000	96.79056	6804.65288	96.79056
55700.00000	96.66083	6802.35803	96.66083
55750.00000	96.48170	6798.25016	96.48170
55800.00000	96.39739	6794.99816	96.39739
55850.00000	96.23613	6789.62359	96.23613
55900.00000	96.15812	6787.28011	96.15812
55950.00000	96.10174	6783.87877	96.10174
56000.00000	95.90944	6779.39097	95.90944
56050.00000	95.83279	6776.19985	95.83279
56100.00000	95.37625	6773.59839	95.37625
56150.00000	95.41048	6770.20757	95.41048
56200.00000	95.18179	6766.26714	95.18179
56250.00000	94.87209	6763.30416	94.87209
56300.00000	94.61871	6760.09716	94.61871
56350.00000	94.66401	6756.59491	94.66401
56400.00000	94.37372	6752.55165	94.37372
56450.00000	94.02981	6748.97891	94.02981
56500.00000	93.86503	6746.74854	93.86503
56550.00000	93.52540	6744.04180	93.52540
56600.00000	93.29850	6740.05412	93.29850
56650.00000	93.04597	6737.29053	93.04597
56700.00000	92.90184	6733.73857	92.90184
56750.00000	92.51019	6731.78827	92.51019
56800.00000	92.27414	6728.16516	92.27414
56850.00000	91.93565	6725.77279	91.93565
56900.00000	91.86467	6722.34342	91.86467
56950.00000	91.40871	6720.27621	91.40871
57000.00000	91.14845	6717.37197	91.14845
57050.00000	90.81607	6713.85306	90.81607
57100.00000	90.80863	6711.88699	90.80863
57150.00000	90.35131	6706.70670	90.35131
57200.00000	90.17323	6705.92913	90.17323
57250.00000	89.61880	6703.43655	89.61880
57300.00000	89.92187	6700.34801	89.92187
57350.00000	89.26437	6696.77669	89.26437
57400.00000	88.77754	6695.63960	88.77754
57450.00000	88.77290	6691.15422	88.77290
57500.00000	88.30847	6689.73726	88.30847
57550.00000	88.31728	6687.88153	88.31728
57600.00000	87.85685	6682.30485	87.85685
57650.00000	87.55034	6680.94078	87.55034
57700.00000	87.15901	6678.58981	87.15901
57750.00000	86.96587	6675.99210	86.96587
57800.00000	86.48415	6673.66984	86.48415
57850.00000	86.49299	6670.06914	86.49299
57900.00000	85.84759	6665.54739	85.84759
57950.00000	85.68296	6665.93955	85.68296
58000.00000	85.53577	6661.12453	85.53577
58050.00000	85.11415	6660.22393	85.11415
58100.00000	84.90705	6653.41063	84.90705
58150.00000	84.34112	6651.50488	84.34112
58200.00000	84.36296	6651.84799	84.36296
58250.00000	84.01175	6646.39836	84.01175
58300.00000	83.71667	6641.07429	83.71667
58350.00000	83.08260	6640.07224	83.08260
58400.00000	82.83248	6632.87293	82.83248
58450.00000	82.93015	6633.31630	82.93015
58500.00000	82.32624	6628.01913	82.32624
58550.00000	81.67363	6623.32077	81.67363
58600.00000	81.32530	6618.04113	81.32530
58650.00000	80.55932	6616.04369	80.55932
58700.00000	79.95704	6613.73452	79.95704
58750.00000	79.24735	6605.74296	79.24735
58800.00000	78.63863	6603.94394	78.63863
58850.00000	77.76910	6601.33515	77.76910
58900.00000	77.79467	6591.35131	77.79467
58950.00000	76.97418	6587.69657	76.97418
59000.00000	76.14506	6579.85730	76.14506
59050.00000	74.91134	6577.27840	74.91134
59100.00000	74.42318	6572.29363	74.42318
59150.00000	73.53814	6563.36094	73.53814
59200.00000	74.12701	6548.04469	74.12701
59250.00000	73.56723	6544.68518	73.56723
59300.00000	71.33483	6531.70067	71.33483
59350.00000	72.52272	6524.02909	72.52272
59400.00000	71.72580	6517.48383	71.72580
59450.00000	71.69375	6501.81328	71.69375
59500.00000	72.88731	6488.35176	72.88731
59550.00000	73.52619	6481.64470	73.52619
59600.00000	73.98816	6475.93520	73.98816
59650.00000	73.82702	6467.68752	73.82702
59700.00000	75.00429	6456.05246	75.00429
59750.00000	75.35930	6451.29460	75.35930
59800.00000	76.45321	6442.41134	76.45321
59850.00000	77.11973	6438.27599	77.11973
59900.00000	78.22804	6432.34102	78.22804
59950.00000	78.92868	6425.08286	78.92868
60000.00000	79.43973	6421.46253	79.43973
60050.00000	80.34025	6416.31444	80.34025
60100.00000	80.66340	6413.42032	80.66340
60150.00000	81.49028	6405.23845	81.49028
60200.00000	81.66214	6400.70930	81.66214
60250.00000	82.59113	6398.19811	82.59113
60300.00000	82.86666	6393.32544	82.86666
60350.00000	83.79415	6387.04466	83.79415
60400.00000	84.28998	6382.71736	84.28998
60450.00000	84.43809	6377.27052	84.43809
60500.00000	84.91426	6371.10139	84.91426
60550.00000	85.32133	6367.25995	85.32133
60600.00000	85.68242	6361.20557	85.68242
60650.00000	85.92543	6357.60498	85.92543
60700.00000	86.09123	6352.73943	86.09123
60750.00000	86.45813	6345.83231	86.45813
60800.00000	86.51320	6341.57737	86.51320
60850.00000	86.64856	6335.85830	86.64856
60900.00000	86.79393	6331.83016	86.79393
60950.00000	86.92522	6327.82288	86.92522
61000.00000	86.91036	6321.94771	86.91036
61050.00000	87.00559	6317.48200	87.00559
61100.00000	87.11857	6314.40783	87.11857
61150.00000	87.14068	6308.81920	87.14068
61200.00000	87.06366	6305.23731	87.06366
61250.00000	87.05349	6301.03618	87.05349
61300.00000	86.90977	6297.30519	86.90977
61350.00000	86.87055	6294.35795	86.87055
61400.00000	86.84050	6290.08602	86.84050
61450.00000	86.71721	6287.19696	86.71721
61500.00000	86.49222	6283.24025	86.49222
61550.00000	86.45563	6277.47393	86.45563
61600.00000	86.38271	6275.95608	86.38271
61650.00000	85.93851	6270.18124	85.93851
61700.00000	85.80211	6270.35840	85.80211
61750.00000	85.48401	6265.38751	85.48401
61800.00000	85.49410	6265.06730	85.49410
61850.00000	85.27619	6262.49241	85.27619
61900.00000	85.31823	6259.00681	85.31823
61950.00000	84.97645	6256.67282	84.97645
62000.00000	84.72189	6255.67466	84.72189
62050.00000	84.45180	6251.43142	84.45180
62100.00000	84.34171	6250.73812	84.34171
62150.00000	84.65918	6248.49001	84.65918
62200.00000	84.42083	6246.45552	84.42083
62250.00000	84.09365	6243.59246	84.09365
62300.00000	84.15196	6243.86111	84.15196
62350.00000	83.67488	6241.00220	83.67488
62400.00000	83.73783	6239.02622	83.73783
62450.00000	83.71071	6236.05180	83.71071
62500.00000	83.28358	6235.07487	83.28358
62550.00000	82.96463	6232.94509	82.96463
62600.00000	83.05822	6233.02067	83.05822
62650.00000	82.76134	6232.62799	82.76134
62700.00000	82.74900	6230.07368	82.74900
62750.00000	82.59322	6227.66234	82.59322
62800.00000	82.11574	6227.37863	82.11574
62850.00000	82.42682	6227.82732	82.42682
62900.00000	82.51650	6227.28499	82.51650
62950.00000	81.97808	6227.21728	81.97808
63000.00000	81.68198	6223.96442	81.68198
63050.00000	81.56980	6225.65325	81.56980
63100.00000	81.69042	6226.82036	81.69042
63150.00000	81.70552	6223.05860	81.70552
63200.00000	81.39652	6223.45176	81.39652
63250.00000	81.90999	6223.12176	81.90999
63300.00000	82.09540	6222.21310	82.09540
63350.00000	81.60634	6224.00885	81.60634
63400.00000	81.78069	6223.02120	81.78069
63450.00000	81.97248	6220.86618	81.97248
63500.00000	82.30359	6219.49765	82.30359
63550.00000	82.66261	6220.56736	82.66261
63600.00000	82.30602	6224.50146	82.30602
63650.00000	82.94401	6218.80121	82.94401
63700.00000	82.85772	6221.56835	82.85772
63750.00000	83.53598	6219.92976	83.53598
63800.00000	83.59583	6219.19974	83.59583
63850.00000	83.55579	6216.12789	83.55579
63900.00000	83.97521	6215.56029	83.97521
63950.00000	84.49735	6211.28271	84.49735
64000.00000	84.85550	6210.65367	84.85550
64050.00000	84.98580	6207.76707	84.98580
64100.00000	85.24455	6205.07205	85.24455
64150.00000	85.46917	6202.38114	85.46917
64200.00000	85.97528	6199.52300	85.97528
64250.00000	85.71587	6195.93687	85.71587
64300.00000	86.14025	6194.29400	86.14025
64350.00000	85.85005	6191.01293	85.85005
64400.00000	85.97086	6189.13119	85.97086
64450.00000	85.71121	6188.24550	85.71121
64500.00000	85.88928	6187.64952	85.88928
64550.00000	85.87899	6186.37526	85.87899
64600.00000	85.87660	6184.60410	85.87660
64650.00000	86.09146	6182.43703	86.09146
64700.00000	86.49810	6180.88480	86.49810
64750.00000	86.45525	6180.13130	86.45525
64800.00000	87.21158	6175.31922	87.21158
64850.00000	86.95276	6174.15930	86.95276
64900.00000	87.63377	6172.41806	87.63377
64950.00000	87.67795	6169.56894	87.67795
65000.00000	88.06405	6166.66194	88.06405
65050.00000	88.26138	6164.29310	88.26138
65100.00000	88.48594	6160.32725	88.48594
65150.00000	88.69341	6158.84048	88.69341
65200.00000	88.70587	6156.02589	88.70587
65250.00000	88.93560	6151.73628	88.93560
65300.00000	89.15233	6147.81455	89.15233
65350.00000	89.03527	6144.50885	89.03527
65400.00000	89.57631	6142.03888	89.57631
65450.00000	89.48681	6137.00226	89.48681
65500.00000	89.50254	6132.85989	89.50254
65550.00000	89.50820	6129.84752	89.50820
65600.00000	89.47108	6127.12533	89.47108
65650.00000	89.36611	6123.00439	89.36611
65700.00000	89.51401	6120.21179	89.51401
65750.00000	89.41642	6117.14396	89.41642
65800.00000	89.49398	6115.22504	89.49398
65850.00000	89.42250	6111.12768	89.42250
65900.00000	89.31720	6108.50391	89.31720
65950.00000	89.40021	6106.32155	89.40021
66000.00000	89.49379	6102.97806	89.49379
66050.00000	89.28198	6100.94117	89.28198
66100.00000	89.17902	6098.73585	89.17902
66150.00000	89.11683	6096.55938	89.11683
66200.00000	89.10738	6092.12877	89.10738
66250.00000	89.36190	6091.36535	89.36190
66300.00000	89.16383	6087.62115	89.16383
66350.00000	89.48576	6085.81653	89.48576
66400.00000	89.26203	6083.81812	89.26203
66450.00000	89.34391	6081.65293	89.34391
66500.00000	89.30718	6078.81798	89.30718
66550.00000	89.36333	6075.08767	89.36333
66600.00000	89.39781	6073.01497	89.39781
66650.00000	89.32005	6070.57202	89.32005
66700.00000	88.94938	6067.13229	88.94938
66750.00000	89.37967	6066.15654	89.37967
66800.00000	89.12761	6064.13294	89.12761
66850.00000	89.15942	6062.22357	89.15942
66900.00000	89.01967	6060.10206	89.01967
66950.00000	89.11901	6059.17987	89.11901
67000.00000	89.21290	6057.67362	89.21290
67050.00000	89.21506	6054.75188	89.21506
67100.00000	89.43322	6053.53292	89.43322
67150.00000	89.80340	6051.39894	89.80340
67200.00000	89.81268	6050.16791	89.81268
67250.00000	90.13528	6046.43340	90.13528
67300.00000	90.22549	6044.40238	90.22549
67350.00000	90.46719	6042.17352	90.46719
67400.00000	90.49128	6039.28021	90.49128
67450.00000	90.61015	6036.80473	90.61015
67500.00000	90.77189	6033.10908	90.77189
67550.00000	90.79184	6030.66255	90.79184
67600.00000	90.95526	6028.17530	90.95526
67650.00000	91.09494	6026.06969	91.09494
67700.00000	91.20270	6022.05102	91.20270
67750.00000	91.39361	6019.09706	91.39361
67800.00000	91.46966	6016.06527	91.46966
67850.00000	91.54544	6012.84675	91.54544
67900.00000	91.70681	6010.31965	91.70681
67950.00000	91.70508	6006.65853	91.70508
68000.00000	91.89314	6003.40504	91.89314
68050.00000	92.06460	5999.73699	92.06460
68100.00000	92.08041	5996.80211	92.08041
68150.00000	92.15070	5993.57858	92.15070
68200.00000	92.25644	5989.99177	92.25644
68250.00000	92.33177	5986.11285	92.33177
68300.00000	92.34285	5983.61883	92.34285
68350.00000	92.38533	5979.76896	92.38533
68400.00000	92.40988	5976.56294	92.40988
68450.00000	92.47973	5972.70035	92.47973
68500.00000	92.59302	5969.92509	92.59302
68550.00000	92.62208	5967.35980	92.62208
68600.00000	92.66939	5963.54004	92.66939
68650.00000	92.72577	5960.51370	92.72577
68700.00000	92.80016	5956.22077	92.80016
68750.00000	92.85930	5952.91328	92.85930
68800.00000	92.85982	5949.59352	92.85982
68850.00000	92.98302	5946.46728	92.98302
68900.00000	93.05361	5942.95447	93.05361
68950.00000	93.16127	5939.01983	93.16127
69000.00000	93.21626	5935.33492	93.21626
69050.00000	93.27961	5931.50603	93.27961
69100.00000	93.34817	5927.60511	93.34817
69150.00000	93.42066	5923.60025	93.42066
69200.00000	93.49837	5919.45125	93.49837
69250.00000	93.53543	5915.53560	93.53543
69300.00000	93.54629	5910.45258	93.54629
69350.00000	93.65391	5906.48145	93.65391
69400.00000	93.66978	5901.92508	93.66978
69450.00000	93.59044	5896.80773	93.59044
69500.00000	93.61132	5891.85100	93.61132
69550.00000	93.58846	5886.53799	93.58846
69600.00000	93.47780	5881.82458	93.47780
69650.00000	93.30608	5876.84955	93.30608
69700.00000	93.13157	5871.27353	93.13157
69750.00000	93.04823	5866.04147	93.04823
69800.00000	92.78767	5860.74865	92.78767
69850.00000	92.53417	5855.37749	92.53417
69900.00000	92.28865	5850.33386	92.28865
69950.00000	91.94483	5844.81688	91.94483
70000.00000	91.65343	5839.99641	91.65343
70050.00000	91.33393	5834.55047	91.33393
70100.00000	90.87798	5829.43953	90.87798
70150.00000	90.47947	5824.21584	90.47947
70200.00000	90.02915	5819.76396	90.02915
70250.00000	89.42954	5814.65837	89.42954
70300.00000	88.77374	5810.89863	88.77374
70350.00000	88.24486	5806.48384	88.24486
70400.00000	87.53129	5802.85631	87.53129
70450.00000	86.83130	5799.04408	86.83130
70500.00000	86.01553	5794.86036	86.01553
70550.00000	85.34365	5791.91288	85.34365
70600.00000	84.28608	5789.94856	84.28608
70650.00000	83.42443	5790.04991	83.42443
70700.00000	82.36876	5789.47354	82.36876
70750.00000	81.36269	5790.91949	81.36269
70800.00000	81.02373	5795.97909	81.02373
70850.00000	80.69829	5801.87570	80.69829
70900.00000	81.44760	5803.79951	81.44760
70950.00000	81.98729	5806.27066	81.98729
71000.00000	82.46651	5801.78074	82.46651
71050.00000	82.82713	5797.11298	82.82713
71100.00000	83.14563	5791.41651	83.14563
71150.00000	82.98336	5785.37634	82.98336
71200.00000	82.69992	5780.70549	82.69992
71250.00000	82.21952	5773.68304	82.21952
71300.00000	81.79465	5768.19129	81.79465
71350.00000	81.28411	5767.66280	81.28411
71400.00000	80.60233	5763.65257	80.60233
71450.00000	79.83541	5759.96520	79.83541
71500.00000	79.53469	5760.24570	79.53469
71550.00000	78.46531	5757.55479	78.46531
71600.00000	78.11322	5755.14737	78.11322
71650.00000	76.54287	5759.02551	76.54287
71700.00000	76.25686	5750.72778	76.25686
71750.00000	76.53846	5752.63599	76.53846
71800.00000	74.64168	5752.69015	74.64168
71850.00000	75.16487	5751.29245	75.16487
71900.00000	73.72122	5749.57232	73.72122
71950.00000	73.02440	5752.23923	73.02440
72000.00000	72.21322	5751.23436	72.21322
72050.00000	71.79835	5763.43488	71.79835
72100.00000	71.24715	5764.12214	71.24715
72150.00000	71.95551	5771.98934	71.95551
72200.00000	72.06214	5777.45188	72.06214
72250.00000	71.92416	5778.93671	71.92416
72300.00000	73.96210	5782.50894	73.96210
72350.00000	73.46209	5780.81835	73.46209
72400.00000	73.99067	5777.14578	73.99067
72450.00000	75.38657	5776.55553	75.38657
72500.00000	74.87929	5777.38124	74.87929
72550.00000	74.43558	5770.90829	74.43558
72600.00000	75.01169	5768.46561	75.01169
72650.00000	74.25456	5768.55946	74.25456
72700.00000	74.90074	5756.09699	74.90074
72750.00000	75.44087	5764.21715	75.44087
72800.00000	73.83526	5761.34425	73.83526
72850.00000	74.80452	5755.21050	74.80452
72900.00000	75.32104	5765.78104	75.32104
72950.00000	74.12660	5753.33373	74.12660
73000.00000	75.51339	5754.07690	75.51339
73050.00000	75.27492	5764.73809	75.27492
73100.00000	75.39633	5748.78712	75.39633
73150.00000	75.99109	5753.09283	75.99109
73200.00000	75.14622	5753.45000	75.14622
73250.00000	74.44299	5743.91714	74.44299
73300.00000	75.88410	5745.56100	75.88410
73350.00000	74.33952	5749.79483	74.33952
73400.00000	75.50024	5738.50878	75.50024
73450.00000	75.86243	5747.82786	75.86243
73500.00000	73.44713	5742.40779	73.44713
73550.00000	75.62302	5734.73673	75.62302
73600.00000	75.96936	5744.39979	75.96936
73650.00000	74.45147	5729.50731	74.45147
73700.00000	76.44313	5727.65904	76.44313
73750.00000	76.44275	5738.40185	76.44275
73800.00000	75.95210	5722.78068	75.95210
73850.00000	77.86195	5725.32760	77.86195
73900.00000	75.54501	5729.68017	75.54501
73950.00000	77.56310	5706.01115	77.56310
74000.00000	77.37518	5715.28517	77.37518
74050.00000	75.79698	5704.88829	75.79698
74100.00000	77.76801	5698.90733	77.76801
74150.00000	77.10741	5702.99265	77.10741
74200.00000	75.20689	5678.11576	75.20689
74250.00000	76.91479	5680.82588	76.91479
74300.00000	74.80072	5674.76332	74.80072
74350.00000	74.86232	5646.85484	74.86232
74400.00000	73.45053	5616.25602	73.45053
74450.00000	64.99528	5447.23490	64.99528
74500.00000	74.46782	5365.94527	74.46782
74550.00000	73.44526	5378.63933	73.44526
74600.00000	67.21010	5330.33664	67.21010
74650.00000	74.60058	5335.96235	74.60058
74700.00000	68.97653	5367.64267	68.97653
74750.00000	68.06067	5305.63223	68.06067
74800.00000	73.07754	5339.31215	73.07754
74850.00000	64.28010	5386.43438	64.28010
74900.00000	68.51946	5293.08612	68.51946
74950.00000	72.78155	5360.79245	72.78155
75000.00000	62.66108	5399.50126	62.66108
75050.00000	68.79130	5321.39415	68.79130
75100.00000	72.22745	5380.17147	72.22745
75150.00000	59.73980	5421.61664	59.73980
75200.00000	73.94442	5348.48530	73.94442
75250.00000	74.38872	5402.34563	74.38872
75300.00000	63.43235	5360.07101	63.43235
75350.00000	76.17517	5362.19824	76.17517
75400.00000	75.11358	5402.23777	75.11358
75450.00000	70.95321	5346.44791	70.95321
75500.00000	78.72851	5368.95249	78.72851
75550.00000	74.47526	5392.57524	74.47526
75600.00000	75.70397	5340.61663	75.70397
75650.00000	79.25031	5369.53076	79.25031
75700.00000	73.28980	5357.59596	73.28980
75750.00000	80.17518	5336.88511	80.17518
75800.00000	79.34729	5364.66020	79.34729
75850.00000	74.98468	5328.48950	74.98468
75900.00000	81.64416	5333.32461	81.64416
75950.00000	77.31745	5355.97018	77.31745
76000.00000	78.70074	5306.15459	78.70074
76050.00000	81.29598	5333.83849	81.29598
76100.00000	73.91360	5331.15948	73.91360
76150.00000	81.37972	5299.92016	81.37972
76200.00000	79.81476	5334.95793	79.81476
76250.00000	75.09978	5284.91590	75.09978
76300.00000	81.79275	5300.39156	81.79275
76350.00000	76.33999	5326.93489	76.33999
76400.00000	78.80697	5269.85593	78.80697
76450.00000	81.28003	5305.56020	81.28003
76500.00000	72.14382	5302.83828	72.14382
76550.00000	80.49023	5274.24280	80.49023
76600.00000	79.20758	5313.79074	79.20758
76650.00000	72.33350	5258.05193	72.33350
76700.00000	81.19722	5282.91352	81.19722
76750.00000	76.19085	5317.23575	76.19085
76800.00000	76.98688	5240.18945	76.98688
76850.00000	80.64631	5287.51070	80.64631
76900.00000	70.69295	5301.59790	70.69295
76950.00000	79.49834	5253.52368	79.49834
77000.00000	78.84338	5298.99880	78.84338
77050.00000	70.32268	5237.61205	70.32268
77100.00000	81.24591	5263.60632	81.24591
77150.00000	75.13399	5308.10944	75.13399
77200.00000	75.99920	5232.02236	75.99920
77250.00000	80.80468	5275.28047	80.80468
77300.00000	71.23023	5293.43836	71.23023
77350.00000	78.96869	5238.22574	78.96869
77400.00000	79.66729	5285.97845	79.66729
77450.00000	70.76314	5248.51581	70.76314
77500.00000	80.68915	5246.77544	80.68915
77550.00000	76.27528	5277.85593	76.27528
77600.00000	76.67063	5221.31484	76.67063
77650.00000	81.01567	5253.13402	81.01567
77700.00000	72.92034	5262.01425	72.92034
77750.00000	79.67748	5224.40384	79.67748
77800.00000	79.14019	5259.75929	79.14019
77850.00000	74.09641	5221.96051	74.09641
77900.00000	80.15415	5231.06848	80.15415
77950.00000	76.05166	5253.47855	76.05166
78000.00000	76.96972	5206.04466	76.96972
78050.00000	79.11420	5233.12264	79.11420
78100.00000	73.31227	5220.95291	73.31227
78150.00000	78.96508	5203.86836	78.96508
78200.00000	77.25456	5234.66202	77.25456
78250.00000	73.62716	5189.10472	73.62716
78300.00000	78.39741	5212.09621	78.39741
78350.00000	73.47309	5225.32404	73.47309
78400.00000	77.19425	5195.79042	77.19425
78450.00000	76.94163	5219.62217	76.94163
78500.00000	72.58859	5189.43361	72.58859
78550.00000	77.09019	5196.31298	77.09019
78600.00000	74.14441	5215.75779	74.14441
78650.00000	74.24602	5187.01562	74.24602
78700.00000	76.34365	5208.99864	76.34365
78750.00000	72.82383	5200.34907	72.82383
78800.00000	75.29043	5188.58391	75.29043
78850.00000	74.30220	5210.27111	74.30220
78900.00000	72.66413	5186.67494	72.66413
78950.00000	75.88367	5196.39542	75.88367
79000.00000	72.87691	5202.77621	72.87691
79050.00000	73.88919	5184.20400	73.88919
79100.00000	75.43065	5199.45428	75.43065
79150.00000	73.62876	5191.81508	73.62876
79200.00000	76.49315	5193.45402	76.49315
79250.00000	75.45460	5199.01657	75.45460
79300.00000	75.65763	5185.09573	75.65763
79350.00000	77.13044	5190.22256	77.13044
79400.00000	75.36355	5186.74136	75.36355
79450.00000	77.59405	5178.17020	77.59405
79500.00000	77.24127	5184.77988	77.24127
79550.00000	76.94496	5178.95423	76.94496
79600.00000	78.16789	5176.30074	78.16789
79650.00000	77.06442	5173.83559	77.06442
79700.00000	78.09605	5165.17821	78.09605
79750.00000	77.91351	5171.29479	77.91351
79800.00000	77.88072	5158.47623	77.88072
79850.00000	78.43855	5160.03772	78.43855
79900.00000	77.47229	5156.09509	77.47229
79950.00000	78.18887	5149.86043	78.18887
80000.00000	77.91113	5151.75140	77.91113
80050.00000	77.82636	5143.73116	77.82636
80100.00000	78.28360	5143.61362	78.28360
80150.00000	77.09776	5140.17053	77.09776
80200.00000	77.73679	5137.79219	77.73679
80250.00000	77.52204	5136.62631	77.52204
80300.00000	77.11739	5132.49620	77.11739
80350.00000	77.50707	5129.46241	77.50707
80400.00000	76.68356	5127.28324	76.68356
80450.00000	77.23419	5126.47346	77.23419
80500.00000	76.91627	5125.67126	76.91627
80550.00000	77.02379	5120.56031	77.02379
80600.00000	77.04019	5118.72848	77.04019
80650.00000	76.62912	5119.23100	76.62912
80700.00000	76.96970	5116.39953	76.96970
80750.00000	77.15307	5115.58461	77.15307
80800.00000	76.41293	5112.72906	76.41293
80850.00000	77.09499	5112.35123	77.09499
80900.00000	76.61737	5113.18258	76.61737
80950.00000	76.60413	5111.21173	76.60413
81000.00000	76.45299	5112.18878	76.45299
81050.00000	76.73299	5106.19124	76.73299
81100.00000	76.97961	5107.61682	76.97961
81150.00000	77.19358	5104.34764	77.19358
81200.00000	77.24671	5102.98273	77.24671
81250.00000	77.13009	5100.76964	77.13009
81300.00000	77.37166	5096.73707	77.37166
81350.00000	77.70072	5097.37020	77.70072
81400.00000	77.41487	5092.07383	77.41487
81450.00000	77.98236	5091.55799	77.98236
81500.00000	78.10404	5086.91154	78.10404
81550.00000	77.99753	5082.99988	77.99753
81600.00000	78.15523	5079.01843	78.15523
81650.00000	77.81796	5074.30174	77.81796
81700.00000	78.11814	5072.55956	78.11814
81750.00000	77.58640	5064.89130	77.58640
81800.00000	77.69651	5058.58517	77.69651
81850.00000	76.73887	5052.08325	76.73887
81900.00000	75.82619	5044.68223	75.82619
81950.00000	74.53572	5037.33118	74.53572
82000.00000	71.72614	5032.12532	71.72614
82050.00000	68.20773	5028.27086	68.20773
82100.00000	62.29742	5054.96390	62.29742
82150.00000	63.24619	5111.39614	63.24619
82200.00000	69.05182	5134.79162	69.05182
82250.00000	72.84411	5133.28666	72.84411
82300.00000	75.25195	5128.44537	75.25195
82350.00000	76.98199	5124.51221	76.98199
82400.00000	78.21694	5115.95911	78.21694
82450.00000	79.60070	5110.85050	79.60070
82500.00000	80.16509	5104.22747	80.16509
82550.00000	81.20974	5097.56227	81.20974
82600.00000	81.83713	5091.43503	81.83713
82650.00000	82.45941	5083.39188	82.45941
82700.00000	82.70191	5077.05846	82.70191
82750.00000	83.07118	5071.13296	83.07118
82800.00000	83.12471	5065.31552	83.12471
82850.00000	83.20802	5058.80500	83.20802
82900.00000	83.28027	5051.97796	83.28027
82950.00000	83.37144	5046.86125	83.37144
83000.00000	83.53295	5042.60187	83.53295
83050.00000	83.38542	5039.37765	83.38542
83100.00000	83.56516	5035.40041	83.56516
83150.00000	83.52246	5033.01794	83.52246
83200.00000	83.95533	5030.07657	83.95533
83250.00000	83.99218	5027.45124	83.99218
83300.00000	84.30008	5025.29563	84.30008
83350.00000	84.40019	5024.17995	84.40019
83400.00000	84.52043	5022.74712	84.52043
83450.00000	84.81720	5018.83583	84.81720
83500.00000	85.10890	5016.11768	85.10890
83550.00000	85.41448	5013.21659	85.41448
83600.00000	85.53112	5009.60989	85.53112
83650.00000	85.97122	5006.97890	85.97122
83700.00000	86.14482	5003.74344	86.14482
83750.00000	86.56657	4999.29250	86.56657
83800.00000	86.73118	4995.26499	86.73118
83850.00000	86.90940	4991.56607	86.90940
83900.00000	87.09876	4987.95563	87.09876
83950.00000	87.57606	4983.27440	87.57606
84000.00000	87.78487	4978.19645	87.78487
84050.00000	87.87279	4973.37566	87.87279
84100.00000	88.16798	4969.31482	88.16798
84150.00000	88.24876	4963.92232	88.24876
84200.00000	88.51891	4959.45253	88.51891
84250.00000	88.62302	4954.41145	88.62302
84300.00000	88.75790	4949.02661	88.75790
84350.00000	88.82699	4944.84721	88.82699
84400.00000	88.94540	4938.61182	88.94540
84450.00000	89.10699	4933.05576	89.10699
84500.00000	89.14373	4928.31865	89.14373
84550.00000	89.10902	4923.38808	89.10902
84600.00000	89.15635	4917.08288	89.15635
84650.00000	89.22575	4912.58575	89.22575
84700.00000	89.23397	4907.03051	89.23397
84750.00000	89.24522	4901.15668	89.24522
84800.00000	89.23538	4895.06197	89.23538
84850.00000	89.21014	4889.75768	89.21014
84900.00000	89.21137	4883.98289	89.21137
84950.00000	89.09613	4878.76254	89.09613
85000.00000	88.98446	4872.46139	88.98446
85050.00000	88.89729	4866.95426	88.89729
85100.00000	88.69985	4860.54929	88.69985
85150.00000	88.59042	4854.05935	88.59042
85200.00000	88.47804	4848.76657	88.47804
85250.00000	88.80250	4842.51255	88.80250
85300.00000	88.14725	4836.57933	88.14725
85350.00000	87.80243	4830.46013	87.80243
85400.00000	87.73693	4825.29775	87.73693
85450.00000	87.39219	4819.27162	87.39219
85500.00000	87.11348	4812.98522	87.11348
85550.00000	86.72436	4806.62178	86.72436
85600.00000	86.45107	4801.46057	86.45107
85650.00000	86.01453	4795.19505	86.01453
85700.00000	85.52780	4789.13111	85.52780
85750.00000	85.35451	4783.06325	85.35451
85800.00000	84.90713	4780.17477	84.90713
85850.00000	84.31855	4773.11981	84.31855
85900.00000	84.13196	4766.24304	84.13196
85950.00000	83.61511	4760.34365	83.61511
86000.00000	83.25372	4757.21422	83.25372
86050.00000	82.81637	4748.49668	82.81637
86100.00000	82.58782	4743.38870	82.58782
86150.00000	82.15973	4737.33433	82.15973
86200.00000	81.80507	4731.29075	81.80507
86250.00000	81.15308	4726.39579	81.15308
86300.00000	80.70241	4717.89173	80.70241
86350.00000	80.01222	4711.30654	80.01222
86400.00000	79.26977	4702.40650	79.26977
86450.00000	78.32353	4698.21752	78.32353
86500.00000	77.92114	4691.70560	77.92114
86550.00000	77.45955	4683.49473	77.45955
86600.00000	76.44504	4678.79028	76.44504
86650.00000	76.66243	4672.47730	76.66243
86700.00000	75.70250	4664.27662	75.70250
86750.00000	75.52422	4659.78502	75.52422
86800.00000	74.58860	4652.43836	74.58860
86850.00000	74.42235	4641.72372	74.42235
86900.00000	73.68518	4633.51893	73.68518
86950.00000	73.90203	4629.99132	73.90203
87000.00000	73.40810	4619.81362	73.40810
87050.00000	72.90991	4610.95546	72.90991
87100.00000	73.10127	4602.84236	73.10127
87150.00000	73.21703	4595.31152	73.21703
87200.00000	72.53796	4589.27256	72.53796
87250.00000	72.53721	4576.49021	72.53721
87300.00000	72.33794	4571.61064	72.33794
87350.00000	72.88656	4566.19156	72.88656
87400.00000	72.71289	4555.81046	72.71289
87450.00000	72.54539	4545.53538	72.54539
87500.00000	72.58638	4542.75517	72.58638
87550.00000	73.26318	4536.24418	73.26318
87600.00000	73.06040	4525.71971	73.06040
87650.00000	73.37173	4522.64299	73.37173
87700.00000	72.83727	4515.47961	72.83727
87750.00000	72.77470	4512.76909	72.77470
87800.00000	72.93997	4503.98582	72.93997
87850.00000	71.82707	4500.95129	71.82707
87900.00000	72.99096	4498.09091	72.99096
87950.00000	72.41515	4493.58890	72.41515
88000.00000	72.08905	4488.27436	72.08905
88050.00000	72.05209	4485.41112	72.05209
88100.00000	72.29074	4481.88247	72.29074
88150.00000	71.47695	4480.98326	71.47695
88200.00000	71.93869	4477.67558	71.93869
88250.00000	71.13893	4475.67493	71.13893
88300.00000	71.24223	4476.29269	71.24223
88350.00000	72.14143	4476.89020	72.14143
88400.00000	71.64705	4469.60670	71.64705
88450.00000	71.59560	4465.86172	71.59560
88500.00000	71.75227	4464.73638	71.75227
88550.00000	72.09543	4463.27823	72.09543
88600.00000	71.83174	4461.67539	71.83174
88650.00000	72.73797	4458.70820	72.73797
88700.00000	73.19781	4459.95071	73.19781
88750.00000	73.51620	4456.26513	73.51620
88800.00000	73.64237	4453.00596	73.64237
88850.00000	74.20566	4448.64027	74.20566
88900.00000	74.29998	4447.93351	74.29998
88950.00000	74.27791	4442.83711	74.27791
89000.00000	74.56427	4438.63553	74.56427
89050.00000	74.46494	4433.04834	74.46494
89100.00000	74.83344	4429.48537	74.83344
89150.00000	74.80771	4426.49460	74.80771
89200.00000	74.80705	4423.89509	74.80705
89250.00000	74.81578	4417.70103	74.81578
89300.00000	74.59790	4413.03562	74.59790
89350.00000	74.73833	4411.52298	74.73833
89400.00000	74.47627	4408.23467	74.47627
89450.00000	74.56528	4405.51828	74.56528
89500.00000	74.68929	4398.31238	74.68929
89550.00000	74.16934	4398.00205	74.16934
89600.00000	74.51170	4393.14588	74.51170
89650.00000	74.68808	4389.47361	74.68808
89700.00000	74.15090	4391.55353	74.15090
89750.00000	74.27756	4387.81863	74.27756
89800.00000	73.95099	4386.96924	73.95099
89850.00000	73.58071	4387.44568	73.58071
89900.00000	73.86914	4382.05415	73.86914
89950.00000	74.12408	4385.56872	74.12408
90000.00000	73.85089	4390.06565	73.85089
90050.00000	74.54955	4392.55705	74.54955
90100.00000	77.02174	4391.27519	77.02174
90150.00000	78.58699	4390.77299	78.58699
90200.00000	81.15561	4385.06740	81.15561
90250.00000	82.25380	4360.73066	82.25380
90300.00000	82.38439	4341.14310	82.38439
90350.00000	80.41003	4327.51304	80.41003
90400.00000	79.73477	4319.03420	79.73477
90450.00000	78.86071	4314.76603	78.86071
90500.00000	77.99204	4311.47655	77.99204
90550.00000	77.79676	4307.91882	77.79676
90600.00000	77.60821	4303.76873	77.60821
90650.00000	77.41334	4300.02029	77.41334
90700.00000	76.75316	4295.07464	76.75316
90750.00000	76.65970	4292.07754	76.65970
90800.00000	76.72862	4287.17013	76.72862
90850.00000	76.82198	4288.29855	76.82198
90900.00000	76.85114	4280.27007	76.85114
90950.00000	76.61436	4277.10241	76.61436
91000.00000	76.71118	4272.28281	76.71118
91050.00000	76.42851	4266.56175	76.42851
91100.00000	76.44653	4259.97835	76.44653
91150.00000	76.55667	4256.31546	76.55667
91200.00000	76.29007	4250.55979	76.29007
91250.00000	75.77442	4246.25423	75.77442
91300.00000	75.85287	4238.08428	75.85287
91350.00000	75.60258	4234.39071	75.60258
91400.00000	75.50893	4227.86366	75.50893
91450.00000	75.14873	4220.61680	75.14873
91500.00000	75.09557	4214.17414	75.09557
91550.00000	74.57653	4211.00012	74.57653
91600.00000	74.18201	4205.28246	74.18201
91650.00000	73.78338	4196.46251	73.78338
91700.00000	73.01068	4193.25738	73.01068
91750.00000	72.75456	4187.07924	72.75456
91800.00000	72.30870	4182.61256	72.30870
91850.00000	72.19525	4171.41517	72.19525
91900.00000	71.81471	4164.83714	71.81471
91950.00000	71.19590	4161.96634	71.19590
92000.00000	70.53728	4153.81021	70.53728
92050.00000	69.89052	4147.44444	69.89052
92100.00000	69.34704	4132.12807	69.34704
92150.00000	69.00822	4130.56070	69.00822
92200.00000	67.00751	4118.53693	67.00751
92250.00000	68.15663	4118.42738	68.15663
92300.00000	67.60636	4112.88649	67.60636
92350.00000	67.05033	4098.37903	67.05033
92400.00000	65.27591	4087.65066	65.27591
92450.00000	65.09319	4084.56042	65.09319
92500.00000	65.16035	4070.90116	65.16035
92550.00000	66.18010	4068.84711	66.18010
92600.00000	64.13604	4053.16261	64.13604
92650.00000	63.86387	4044.03781	63.86387
92700.00000	63.28025	4041.43827	63.28025
92750.00000	63.39548	4030.51691	63.39548
92800.00000	63.80105	4020.76202	63.80105
92850.00000	64.65120	4036.46702	64.65120
92900.00000	65.30568	4018.04391	65.30568
92950.00000	65.34444	4024.99487	65.34444
93000.00000	65.13272	4012.88744	65.13272
93050.00000	67.96380	4003.81294	67.96380
93100.00000	66.23299	3997.23458	66.23299
93150.00000	67.87450	3995.11090	67.87450
93200.00000	68.55230	3982.09077	68.55230
93250.00000	69.11157	3983.12809	69.11157
93300.00000	69.65775	3977.25420	69.65775
93350.00000	70.11790	3974.94468	70.11790
93400.00000	70.36734	3978.38021	70.36734
93450.00000	71.36429	3969.54369	71.36429
93500.00000	71.17080	3968.19047	71.17080
93550.00000	71.22494	3958.60529	71.22494
93600.00000	70.83408	3955.68665	70.83408
93650.00000	72.09632	3950.51871	72.09632
93700.00000	72.45415	3947.97401	72.45415
93750.00000	72.94183	3937.43529	72.94183
93800.00000	72.50500	3938.68600	72.50500
93850.00000	73.03292	3930.90075	73.03292
93900.00000	73.37764	3928.11024	73.37764
93950.00000	73.94874	3924.26953	73.94874
94000.00000	73.32465	3918.39392	73.32465
94050.00000	73.45551	3913.41930	73.45551
94100.00000	74.22216	3907.73978	74.22216
94150.00000	73.54341	3904.89889	73.54341
94200.00000	73.82898	3900.97461	73.82898
94250.00000	73.18532	3899.97629	73.18532
94300.00000	73.79069	3893.09928	73.79069
94350.00000	72.77884	3887.07549	72.77884
94400.00000	72.77788	3887.47312	72.77788
94450.00000	73.42881	3880.91924	73.42881
94500.00000	72.75603	3878.48553	72.75603
94550.00000	72.65685	3873.51654	72.65685
94600.00000	72.07144	3873.79375	72.07144
94650.00000	71.23649	3872.52272	71.23649
94700.00000	72.27212	3865.77021	72.27212
94750.00000	71.86513	3863.50864	71.86513
94800.00000	71.72109	3861.99819	71.72109
94850.00000	71.76822	3859.38573	71.76822
94900.00000	71.36643	3860.24017	71.36643
94950.00000	71.63837	3856.45401	71.63837
95000.00000	71.29048	3851.05717	71.29048
95050.00000	71.44031	3856.93010	71.44031
95100.00000	71.25587	3849.86082	71.25587
95150.00000	71.64803	3852.68255	71.64803
95200.00000	70.59784	3848.74291	70.59784
95250.00000	71.06948	3845.78442	71.06948
95300.00000	71.16079	3841.40988	71.16079
95350.00000	71.98523	3840.58755	71.98523
95400.00000	71.76477	3832.69571	71.76477
95450.00000	70.93852	3832.74927	70.93852
95500.00000	70.82353	3827.69043	70.82353
95550.00000	71.00342	3832.02854	71.00342
95600.00000	71.15271	3817.67431	71.15271
95650.00000	69.75054	3823.88331	69.75054
95700.00000	72.08370	3822.91421	72.08370
95750.00000	70.98013	3822.20925	70.98013
95800.00000	71.60870	3816.60281	71.60870
95850.00000	72.65061	3817.60887	72.65061
95900.00000	72.38218	3821.83499	72.38218
95950.00000	73.33447	3825.16167	73.33447
96000.00000	72.42522	3807.87531	72.42522
96050.00000	73.39749	3805.52559	73.39749
96100.00000	74.63829	3805.21176	74.63829
96150.00000	74.47699	3797.69299	74.47699
96200.00000	74.10948	3795.60185	74.10948
96250.00000	75.20802	3780.79485	75.20802
96300.00000	76.36366	3788.44096	76.36366
96350.00000	76.56408	3774.20931	76.56408
96400.00000	75.54226	3775.37497	75.54226
96450.00000	75.78545	3762.35067	75.78545
96500.00000	77.26201	3764.84642	77.26201
96550.00000	76.30010	3767.89168	76.30010
96600.00000	75.70878	3757.28185	75.70878
96650.00000	78.23417	3744.93754	78.23417
96700.00000	76.42756	3748.00241	76.42756
96750.00000	77.51589	3742.11450	77.51589
96800.00000	76.77231	3732.42321	76.77231
96850.00000	76.66075	3726.53812	76.66075
96900.00000	79.64891	3724.61057	79.64891
96950.00000	79.98469	3730.88498	79.98469
97000.00000	79.84733	3712.84928	79.84733
97050.00000	79.24981	3722.78475	79.24981
97100.00000	80.91569	3709.09823	80.91569
97150.00000	83.49319	3689.86104	83.49319
97200.00000	82.36780	3690.78437	82.36780
97250.00000	80.82182	3665.49227	80.82182
97300.00000	82.14847	3654.47033	82.14847
97350.00000	80.08993	3630.26258	80.08993
97400.00000	78.90077	3616.07481	78.90077
97450.00000	73.01050	3614.34835	73.01050
97500.00000	73.78266	3630.31690	73.78266
97550.00000	71.93449	3640.26158	71.93449
97600.00000	74.13785	3624.86480	74.13785
97650.00000	70.76101	3633.42186	70.76101
97700.00000	73.43382	3627.06154	73.43382
97750.00000	70.97082	3618.18283	70.97082
97800.00000	70.80720	3625.75519	70.80720
97850.00000	68.42569	3623.06602	68.42569
97900.00000	71.18228	3627.59973	71.18228
97950.00000	69.22993	3626.18790	69.22993
98000.00000	68.74809	3620.76517	68.74809
98050.00000	70.13068	3618.94013	70.13068
98100.00000	69.27421	3626.32903	69.27421
98150.00000	68.13852	3623.36038	68.13852
98200.00000	65.46229	3595.43181	65.46229
98250.00000	68.05924	3606.99305	68.05924
98300.00000	66.20401	3620.72190	66.20401
98350.00000	65.15292	3607.64052	65.15292
98400.00000	66.39854	3617.71612	66.39854
98450.00000	66.31262	3606.80396	66.31262
98500.00000	65.60328	3612.48942	65.60328
98550.00000	65.15132	3604.38864	65.15132
98600.00000	64.01077	3609.32379	64.01077
98650.00000	62.48568	3603.84513	62.48568
98700.00000	66.08747	3620.62317	66.08747
98750.00000	62.25708	3624.00008	62.25708
98800.00000	61.40099	3600.19788	61.40099
98850.00000	63.27194	3580.49728	63.27194
98900.00000	61.72601	3605.91252	61.72601
98950.00000	59.94278	3578.63000	59.94278
99000.00000	61.75171	3583.86963	61.75171
99050.00000	62.19872	3594.20445	62.19872
99100.00000	60.29287	3581.49296	60.29287
99150.00000	59.80621	3585.83411	59.80621
99200.00000	61.10160	3575.79528	61.10160
99250.00000	57.56617	3580.81922	57.56617
99300.00000	57.06632	3572.49555	57.06632
99350.00000	51.00265	3573.25445	51.00265
99400.00000	54.80737	3543.95703	54.80737
99450.00000	57.03149	3580.44706	57.03149
99500.00000	52.85007	3579.85180	52.85007
99550.00000	56.44949	3528.35235	56.44949
99600.00000	52.74120	3580.21926	52.74120
99650.00000	53.02918	3522.29687	53.02918
99700.00000	52.84823	3548.01839	52.84823
99750.00000	47.69359	3601.02012	47.69359
99800.00000	46.62421	3511.26921	46.62421
99850.00000	43.05722	3435.57792	43.05722
99900.00000	47.75505	3596.87201	47.75505
99950.00000	51.38948	3585.38499	51.38948
