---ACOUSTIC CALIBRATION---
Filename: C:\Data\CL0809 DATA\CL08094\RightPrimary.calib
Date: 8/9/2019 2:30:09 PM
Format: 4
Probe Tube Correction File: C:\Data\Probe Tube Calibrations\74_ProbeTube.calib
Experiment VIs: 2128
EPL_CFTS.exe V15.0.1f5 (2015)
DAQmx V15.1

Attenuation (dB): 40.000000
Min Freq (Hz): 50.000000
Max Freq (Hz): 99950.000000
Freq Step (Hz): 50.000000
Sample Rate (Hz): 200000.000000
[Smoothing]
Method=None
MA.Iterations=0
MA.Length=0
Loess.Length=0
Loess.Type=Linear
Loess.Robust=FALSE


Freq(Hz)	Mag(dB)	Phase(deg)	Unsmoothed(dB)

50.00000	94.32374	216.38908	94.32374
100.00000	64.13072	121.94978	64.13072
150.00000	73.16152	235.44096	73.16152
200.00000	65.19993	228.35704	65.19993
250.00000	55.00260	289.35489	55.00260
300.00000	63.63146	479.09330	63.63146
350.00000	59.85058	635.55876	59.85058
400.00000	56.53496	744.39719	56.53496
450.00000	60.42434	718.36850	60.42434
500.00000	61.39222	855.68798	61.39222
550.00000	68.60502	809.60544	68.60502
600.00000	70.34027	774.66695	70.34027
650.00000	75.65073	766.27657	75.65073
700.00000	74.87058	763.60781	74.87058
750.00000	77.47135	730.62540	77.47135
800.00000	78.92178	718.56546	78.92178
850.00000	77.72245	714.92202	77.72245
900.00000	78.22761	722.07551	78.22761
950.00000	81.10645	723.55823	81.10645
1000.00000	83.37647	724.38714	83.37647
1050.00000	86.48201	715.34268	86.48201
1100.00000	88.93262	698.69454	88.93262
1150.00000	89.94511	683.81327	89.94511
1200.00000	90.33750	674.66284	90.33750
1250.00000	91.39458	666.99098	91.39458
1300.00000	92.86060	659.11241	92.86060
1350.00000	94.06567	645.81346	94.06567
1400.00000	94.33795	632.22937	94.33795
1450.00000	94.26342	622.69402	94.26342
1500.00000	94.35188	616.30552	94.35188
1550.00000	94.46100	609.36769	94.46100
1600.00000	95.15123	606.07271	95.15123
1650.00000	95.87864	602.70743	95.87864
1700.00000	99.64477	586.57752	99.64477
1750.00000	96.57458	567.01366	96.57458
1800.00000	96.28296	562.24749	96.28296
1850.00000	95.93729	554.88883	95.93729
1900.00000	95.74036	548.60509	95.74036
1950.00000	95.13727	544.57395	95.13727
2000.00000	94.87595	542.59574	94.87595
2050.00000	95.27983	539.94694	95.27983
2100.00000	95.67041	534.29725	95.67041
2150.00000	95.99833	526.23732	95.99833
2200.00000	95.63391	515.81734	95.63391
2250.00000	94.70259	510.69649	94.70259
2300.00000	94.47043	509.32605	94.47043
2350.00000	94.56117	503.90958	94.56117
2400.00000	94.50042	497.90913	94.50042
2450.00000	93.94132	490.07819	93.94132
2500.00000	93.06023	487.36371	93.06023
2550.00000	92.76911	484.72683	92.76911
2600.00000	92.38312	481.51623	92.38312
2650.00000	91.89310	478.97627	91.89310
2700.00000	91.55405	475.63065	91.55405
2750.00000	91.10487	473.46014	91.10487
2800.00000	90.73101	470.80858	90.73101
2850.00000	90.33902	468.88646	90.33902
2900.00000	90.06811	466.80877	90.06811
2950.00000	89.78196	465.02598	89.78196
3000.00000	89.49584	463.50436	89.49584
3050.00000	89.27624	461.02137	89.27624
3100.00000	88.86616	458.53852	88.86616
3150.00000	88.20564	456.71098	88.20564
3200.00000	87.84417	455.29176	87.84417
3250.00000	87.43106	454.07354	87.43106
3300.00000	86.85509	452.76337	86.85509
3350.00000	86.49789	452.36249	86.49789
3400.00000	85.93846	451.45579	85.93846
3450.00000	85.30000	450.30843	85.30000
3500.00000	84.54998	450.45286	84.54998
3550.00000	83.88220	449.65057	83.88220
3600.00000	82.52993	449.76515	82.52993
3650.00000	81.21639	455.86669	81.21639
3700.00000	79.68667	464.01676	79.68667
3750.00000	78.82075	475.11753	78.82075
3800.00000	78.91516	492.01009	78.91516
3850.00000	79.94365	501.05924	79.94365
3900.00000	81.09926	508.48757	81.09926
3950.00000	81.79624	517.16425	81.79624
4000.00000	82.61136	527.88530	82.61136
4050.00000	84.30329	533.64280	84.30329
4100.00000	86.06244	537.79666	86.06244
4150.00000	88.51733	538.93436	88.51733
4200.00000	90.31451	538.28569	90.31451
4250.00000	91.27916	529.11082	91.27916
4300.00000	92.19340	529.39685	92.19340
4350.00000	93.52081	527.78344	93.52081
4400.00000	94.81293	523.86499	94.81293
4450.00000	95.78242	517.28237	95.78242
4500.00000	96.46518	511.16443	96.46518
4550.00000	96.68952	506.98492	96.68952
4600.00000	97.13328	505.31463	97.13328
4650.00000	97.77057	505.28352	97.77057
4700.00000	98.66789	504.42791	98.66789
4750.00000	99.75896	502.68079	99.75896
4800.00000	100.91237	499.72846	100.91237
4850.00000	102.03650	495.59879	102.03650
4900.00000	103.15385	490.69859	103.15385
4950.00000	104.30171	485.77687	104.30171
5000.00000	105.53635	479.90417	105.53635
5050.00000	106.90026	473.18055	106.90026
5100.00000	108.47586	464.92056	108.47586
5150.00000	110.41160	453.65579	110.41160
5200.00000	112.79259	434.51651	112.79259
5250.00000	114.35641	397.29357	114.35641
5300.00000	111.00589	354.35345	111.00589
5350.00000	105.17847	339.28871	105.17847
5400.00000	100.63962	344.68151	100.63962
5450.00000	97.82210	354.16182	97.82210
5500.00000	95.25048	366.38727	95.25048
5550.00000	93.76695	389.64776	93.76695
5600.00000	95.11858	411.55505	95.11858
5650.00000	97.44332	419.65488	97.44332
5700.00000	99.25403	418.47220	99.25403
5750.00000	100.27300	414.73295	100.27300
5800.00000	100.75983	412.42672	100.75983
5850.00000	101.19708	411.57123	101.19708
5900.00000	101.72833	411.20254	101.72833
5950.00000	102.38743	411.05779	102.38743
6000.00000	103.13373	410.54791	103.13373
6050.00000	103.95710	409.34691	103.95710
6100.00000	104.82261	407.67254	104.82261
6150.00000	105.69481	405.20687	105.69481
6200.00000	106.60754	402.53823	106.60754
6250.00000	107.56188	399.14042	107.56188
6300.00000	108.56178	395.05492	108.56178
6350.00000	109.59482	390.12624	109.59482
6400.00000	110.64988	384.15567	110.64988
6450.00000	111.67021	376.86817	111.67021
6500.00000	112.59417	368.21626	112.59417
6550.00000	113.38123	358.26623	113.38123
6600.00000	113.90521	347.46246	113.90521
6650.00000	114.16300	336.56897	114.16300
6700.00000	114.21323	326.02598	114.21323
6750.00000	114.10122	316.08818	114.10122
6800.00000	113.87171	306.64723	113.87171
6850.00000	113.50595	297.77653	113.50595
6900.00000	113.03989	289.76464	113.03989
6950.00000	112.51222	282.73604	112.51222
7000.00000	111.98528	276.60969	111.98528
7050.00000	111.49030	271.21106	111.49030
7100.00000	111.03449	266.21751	111.03449
7150.00000	110.60247	261.62151	110.60247
7200.00000	110.21138	257.23631	110.21138
7250.00000	109.84114	253.12825	109.84114
7300.00000	109.49477	249.06622	109.49477
7350.00000	109.18315	245.06153	109.18315
7400.00000	108.85240	241.06500	108.85240
7450.00000	108.53172	237.11321	108.53172
7500.00000	108.20227	233.31376	108.20227
7550.00000	107.86427	229.57972	107.86427
7600.00000	107.51842	225.99325	107.51842
7650.00000	107.16954	222.48088	107.16954
7700.00000	106.82204	219.24211	106.82204
7750.00000	106.45486	216.18680	106.45486
7800.00000	106.11027	213.49022	106.11027
7850.00000	105.80222	210.82614	105.80222
7900.00000	105.48210	208.15185	105.48210
7950.00000	105.19305	205.92288	105.19305
8000.00000	104.91606	203.76604	104.91606
8050.00000	104.64630	201.80480	104.64630
8100.00000	104.42833	199.73409	104.42833
8150.00000	104.25178	197.89769	104.25178
8200.00000	104.09222	195.79150	104.09222
8250.00000	103.94868	193.88650	103.94868
8300.00000	103.82482	191.80955	103.82482
8350.00000	103.74366	189.62257	103.74366
8400.00000	103.64210	187.42271	103.64210
8450.00000	103.55855	185.23454	103.55855
8500.00000	103.49170	182.92474	103.49170
8550.00000	103.43176	180.51897	103.43176
8600.00000	103.37811	177.99566	103.37811
8650.00000	103.32147	175.48434	103.32147
8700.00000	103.26025	172.80644	103.26025
8750.00000	103.20426	170.16107	103.20426
8800.00000	103.14557	167.30175	103.14557
8850.00000	103.11983	164.30389	103.11983
8900.00000	103.01929	161.44789	103.01929
8950.00000	102.93882	158.62779	102.93882
9000.00000	102.83300	155.54914	102.83300
9050.00000	102.74919	152.64655	102.74919
9100.00000	102.66502	149.75601	102.66502
9150.00000	102.57367	146.84285	102.57367
9200.00000	102.46952	143.77454	102.46952
9250.00000	102.29537	140.88395	102.29537
9300.00000	102.22302	138.06898	102.22302
9350.00000	102.11641	135.05033	102.11641
9400.00000	101.96531	131.93522	101.96531
9450.00000	101.84835	128.97918	101.84835
9500.00000	101.71503	125.98306	101.71503
9550.00000	101.52531	122.96931	101.52531
9600.00000	101.37198	120.28308	101.37198
9650.00000	101.25610	117.47901	101.25610
9700.00000	101.04570	114.47397	101.04570
9750.00000	100.84001	111.68846	100.84001
9800.00000	100.56473	108.88570	100.56473
9850.00000	100.20367	106.54690	100.20367
9900.00000	99.81196	105.41300	99.81196
9950.00000	99.39810	106.08191	99.39810
10000.00000	99.51276	108.92677	99.51276
10050.00000	100.22685	108.73512	100.22685
10100.00000	100.74661	104.69024	100.74661
10150.00000	100.93167	99.77677	100.93167
10200.00000	100.94136	95.59195	100.94136
10250.00000	100.92089	91.95225	100.92089
10300.00000	100.90437	88.29919	100.90437
10350.00000	100.85155	84.92805	100.85155
10400.00000	100.77792	81.49206	100.77792
10450.00000	100.75952	77.97110	100.75952
10500.00000	100.76747	74.34494	100.76747
10550.00000	100.71545	70.94326	100.71545
10600.00000	100.76871	66.98699	100.76871
10650.00000	100.73870	63.40274	100.73870
10700.00000	100.72087	59.14155	100.72087
10750.00000	100.66146	55.07208	100.66146
10800.00000	100.62564	50.71059	100.62564
10850.00000	100.59477	46.49304	100.59477
10900.00000	100.55311	42.13808	100.55311
10950.00000	100.44404	37.48280	100.44404
11000.00000	100.38543	32.88507	100.38543
11050.00000	100.23316	28.25133	100.23316
11100.00000	100.10891	23.35609	100.10891
11150.00000	99.92739	18.14830	99.92739
11200.00000	99.72742	13.17622	99.72742
11250.00000	99.40925	 7.82117	99.40925
11300.00000	99.11573	 2.81183	99.11573
11350.00000	98.79479	-2.34838	98.79479
11400.00000	98.39563	-7.67665	98.39563
11450.00000	97.99166	-12.73180	97.99166
11500.00000	97.57067	-17.82123	97.57067
11550.00000	97.08594	-22.84584	97.08594
11600.00000	96.59604	-27.75766	96.59604
11650.00000	96.07527	-32.54060	96.07527
11700.00000	95.58744	-37.40896	95.58744
11750.00000	95.04404	-42.02756	95.04404
11800.00000	94.53987	-46.30504	94.53987
11850.00000	94.02201	-50.96798	94.02201
11900.00000	93.36679	-54.76105	93.36679
11950.00000	92.82803	-58.85187	92.82803
12000.00000	92.30918	-62.32152	92.30918
12050.00000	91.71334	-65.83395	91.71334
12100.00000	91.02162	-69.43835	91.02162
12150.00000	90.48288	-72.57861	90.48288
12200.00000	89.89283	-76.65731	89.89283
12250.00000	89.29591	-79.89744	89.29591
12300.00000	88.46445	-83.45096	88.46445
12350.00000	87.84532	-87.13493	87.84532
12400.00000	87.08212	-91.19163	87.08212
12450.00000	86.60878	-94.67857	86.60878
12500.00000	86.03127	-98.09603	86.03127
12550.00000	85.36112	-101.29436	85.36112
12600.00000	84.89799	-106.06919	84.89799
12650.00000	84.20901	-110.12028	84.20901
12700.00000	83.49775	-113.98979	83.49775
12750.00000	82.97831	-117.73743	82.97831
12800.00000	82.47886	-122.08364	82.47886
12850.00000	81.92148	-125.46914	81.92148
12900.00000	81.36659	-131.10963	81.36659
12950.00000	81.04635	-134.97969	81.04635
13000.00000	80.68255	-140.88603	80.68255
13050.00000	80.21921	-144.66565	80.21921
13100.00000	80.06175	-151.41852	80.06175
13150.00000	80.25971	-156.97322	80.25971
13200.00000	80.54872	-164.25987	80.54872
13250.00000	80.88728	-172.09953	80.88728
13300.00000	81.74310	-175.39754	81.74310
13350.00000	82.91646	-179.45849	82.91646
13400.00000	84.47757	-178.83934	84.47757
13450.00000	85.33633	-172.40953	85.33633
13500.00000	85.44135	-164.33912	85.44135
13550.00000	84.75910	-159.13196	84.75910
13600.00000	83.70259	-160.01556	83.70259
13650.00000	82.42014	-165.41943	82.42014
13700.00000	81.78936	-171.20145	81.78936
13750.00000	81.35460	-181.46096	81.35460
13800.00000	81.64150	-190.50000	81.64150
13850.00000	82.33935	-203.19288	82.33935
13900.00000	83.10821	-212.81179	83.10821
13950.00000	84.51497	-222.38460	84.51497
14000.00000	86.23260	-229.40380	86.23260
14050.00000	88.66400	-231.63015	88.66400
14100.00000	91.13893	-231.89197	91.13893
14150.00000	93.11751	-222.86197	93.11751
14200.00000	93.62463	-210.41306	93.62463
14250.00000	92.92809	-201.78949	92.92809
14300.00000	91.86302	-200.93803	91.86302
14350.00000	91.11830	-205.57049	91.11830
14400.00000	90.56094	-210.86204	90.56094
14450.00000	90.46410	-218.65920	90.46410
14500.00000	90.46373	-226.85000	90.46373
14550.00000	90.87445	-235.57988	90.87445
14600.00000	91.41415	-242.21747	91.41415
14650.00000	92.26328	-249.78505	92.26328
14700.00000	93.22990	-257.77104	93.22990
14750.00000	94.42094	-264.15800	94.42094
14800.00000	95.65082	-268.31092	95.65082
14850.00000	97.02402	-271.28300	97.02402
14900.00000	98.40305	-272.43332	98.40305
14950.00000	99.30419	-271.71773	99.30419
15000.00000	99.80790	-271.10371	99.80790
15050.00000	99.88507	-270.22663	99.88507
15100.00000	99.89732	-272.86799	99.89732
15150.00000	99.78409	-277.22401	99.78409
15200.00000	99.74395	-282.22659	99.74395
15250.00000	99.63066	-288.67256	99.63066
15300.00000	99.71848	-296.23989	99.71848
15350.00000	99.99701	-303.62390	99.99701
15400.00000	100.32689	-311.12273	100.32689
15450.00000	100.76575	-318.82480	100.76575
15500.00000	101.29491	-325.52673	101.29491
15550.00000	101.78319	-330.62539	101.78319
15600.00000	102.30747	-335.58775	102.30747
15650.00000	102.78893	-339.62879	102.78893
15700.00000	102.95417	-342.11725	102.95417
15750.00000	103.16348	-344.80416	103.16348
15800.00000	103.09941	-347.23207	103.09941
15850.00000	103.03608	-349.94845	103.03608
15900.00000	102.77884	-354.03601	102.77884
15950.00000	102.53982	-358.50090	102.53982
16000.00000	102.40514	-362.99529	102.40514
16050.00000	102.39622	-368.02410	102.39622
16100.00000	102.32462	-372.52463	102.32462
16150.00000	102.39381	-377.56417	102.39381
16200.00000	102.47883	-381.55449	102.47883
16250.00000	102.63902	-385.98690	102.63902
16300.00000	102.83602	-389.25390	102.83602
16350.00000	103.00640	-392.47421	103.00640
16400.00000	103.05173	-394.74131	103.05173
16450.00000	103.14015	-397.08219	103.14015
16500.00000	103.14933	-399.64921	103.14933
16550.00000	103.05234	-402.27147	103.05234
16600.00000	102.98934	-405.24740	102.98934
16650.00000	102.91577	-407.94089	102.91577
16700.00000	102.87165	-411.45818	102.87165
16750.00000	102.87287	-414.73960	102.87287
16800.00000	102.88120	-418.06871	102.88120
16850.00000	103.01151	-421.63750	103.01151
16900.00000	103.07804	-424.43538	103.07804
16950.00000	103.12749	-427.45595	103.12749
17000.00000	103.21015	-430.05435	103.21015
17050.00000	103.30801	-432.43180	103.30801
17100.00000	103.41138	-434.86865	103.41138
17150.00000	103.43806	-437.41686	103.43806
17200.00000	103.40963	-439.84872	103.40963
17250.00000	103.42524	-442.59841	103.42524
17300.00000	103.45279	-445.59230	103.45279
17350.00000	103.50377	-448.72532	103.50377
17400.00000	103.55913	-451.70995	103.55913
17450.00000	103.58364	-454.71895	103.58364
17500.00000	103.65074	-457.65223	103.65074
17550.00000	103.73095	-460.68480	103.73095
17600.00000	103.82339	-463.38177	103.82339
17650.00000	103.93473	-465.99337	103.93473
17700.00000	104.00789	-468.67849	104.00789
17750.00000	104.04865	-471.17436	104.04865
17800.00000	104.10192	-474.01649	104.10192
17850.00000	104.15325	-476.60160	104.15325
17900.00000	104.23322	-479.29615	104.23322
17950.00000	104.27448	-482.21932	104.27448
18000.00000	104.33323	-485.09369	104.33323
18050.00000	104.39548	-488.02848	104.39548
18100.00000	104.46768	-491.18992	104.46768
18150.00000	104.54718	-494.30049	104.54718
18200.00000	104.60947	-497.37106	104.60947
18250.00000	104.67237	-500.63098	104.67237
18300.00000	104.72390	-503.58924	104.72390
18350.00000	104.77958	-506.63239	104.77958
18400.00000	104.81415	-509.76843	104.81415
18450.00000	104.85954	-512.86721	104.85954
18500.00000	104.90574	-516.01461	104.90574
18550.00000	104.94244	-519.30485	104.94244
18600.00000	104.93360	-522.48461	104.93360
18650.00000	104.96248	-525.80863	104.96248
18700.00000	104.99521	-528.77685	104.99521
18750.00000	104.97147	-531.97984	104.97147
18800.00000	104.97615	-535.16969	104.97615
18850.00000	104.94602	-538.20076	104.94602
18900.00000	104.88323	-541.23449	104.88323
18950.00000	104.87327	-544.54371	104.87327
19000.00000	104.79831	-547.65916	104.79831
19050.00000	104.74871	-550.80113	104.74871
19100.00000	104.72109	-553.94795	104.72109
19150.00000	104.64354	-556.68920	104.64354
19200.00000	104.59916	-559.76205	104.59916
19250.00000	104.51834	-562.43179	104.51834
19300.00000	104.49495	-565.24692	104.49495
19350.00000	104.43944	-568.11137	104.43944
19400.00000	104.35643	-570.70467	104.35643
19450.00000	104.27145	-573.63555	104.27145
19500.00000	104.23503	-576.26353	104.23503
19550.00000	104.16697	-578.92271	104.16697
19600.00000	104.09581	-581.68049	104.09581
19650.00000	104.02150	-584.13450	104.02150
19700.00000	103.96773	-586.85444	103.96773
19750.00000	103.92008	-589.28703	103.92008
19800.00000	103.86920	-591.51008	103.86920
19850.00000	103.80991	-594.23983	103.80991
19900.00000	103.77447	-596.76016	103.77447
19950.00000	103.70430	-598.98104	103.70430
20000.00000	103.64055	-601.87761	103.64055
20050.00000	103.57602	-604.21266	103.57602
20100.00000	103.56436	-606.59888	103.56436
20150.00000	103.51786	-609.45702	103.51786
20200.00000	103.48329	-611.70812	103.48329
20250.00000	103.43267	-613.87274	103.43267
20300.00000	103.38473	-616.36304	103.38473
20350.00000	103.35290	-618.79010	103.35290
20400.00000	103.31076	-621.08823	103.31076
20450.00000	103.26545	-623.41253	103.26545
20500.00000	103.24962	-626.05189	103.24962
20550.00000	103.20500	-628.51860	103.20500
20600.00000	103.14499	-630.84585	103.14499
20650.00000	103.15440	-633.31285	103.15440
20700.00000	103.12689	-635.55446	103.12689
20750.00000	103.06574	-637.84574	103.06574
20800.00000	103.05132	-640.31806	103.05132
20850.00000	103.00287	-642.81155	103.00287
20900.00000	102.95555	-644.93666	102.95555
20950.00000	102.94468	-647.60097	102.94468
21000.00000	102.94254	-650.22582	102.94254
21050.00000	102.92434	-652.37953	102.92434
21100.00000	102.91605	-655.04287	102.91605
21150.00000	102.88321	-657.28169	102.88321
21200.00000	102.85215	-659.68107	102.85215
21250.00000	102.80508	-661.95571	102.80508
21300.00000	102.79025	-664.66024	102.79025
21350.00000	102.75128	-666.93067	102.75128
21400.00000	102.71404	-669.52671	102.71404
21450.00000	102.74058	-671.95498	102.74058
21500.00000	102.76249	-674.30663	102.76249
21550.00000	102.73938	-676.66993	102.73938
21600.00000	102.73637	-679.31261	102.73637
21650.00000	102.73605	-681.80921	102.73605
21700.00000	102.65310	-684.90837	102.65310
21750.00000	102.66428	-687.38002	102.66428
21800.00000	102.63624	-690.11724	102.63624
21850.00000	102.60986	-692.96105	102.60986
21900.00000	102.55394	-695.40677	102.55394
21950.00000	102.50303	-698.21055	102.50303
22000.00000	102.37728	-700.97854	102.37728
22050.00000	102.33144	-703.27052	102.33144
22100.00000	102.25772	-705.58863	102.25772
22150.00000	102.21804	-708.03998	102.21804
22200.00000	102.14386	-710.70836	102.14386
22250.00000	102.12639	-713.20664	102.12639
22300.00000	102.04968	-715.64425	102.04968
22350.00000	101.96307	-718.20764	101.96307
22400.00000	101.86969	-720.93707	101.86969
22450.00000	101.82107	-723.25453	101.82107
22500.00000	101.72041	-726.04871	101.72041
22550.00000	101.65526	-728.31358	101.65526
22600.00000	101.57611	-730.72495	101.57611
22650.00000	101.43992	-732.79218	101.43992
22700.00000	101.36225	-735.13913	101.36225
22750.00000	101.30821	-737.63318	101.30821
22800.00000	101.24325	-739.89769	101.24325
22850.00000	101.12581	-742.12359	101.12581
22900.00000	101.10032	-744.05348	101.10032
22950.00000	101.03004	-746.27612	101.03004
23000.00000	100.95787	-748.32792	100.95787
23050.00000	100.88261	-750.95233	100.88261
23100.00000	100.83311	-753.36652	100.83311
23150.00000	100.74811	-755.37204	100.74811
23200.00000	100.65463	-757.75687	100.65463
23250.00000	100.64586	-759.96232	100.64586
23300.00000	100.66509	-762.51970	100.66509
23350.00000	100.56421	-764.17390	100.56421
23400.00000	100.49453	-766.26968	100.49453
23450.00000	100.42416	-768.77012	100.42416
23500.00000	100.45683	-770.69902	100.45683
23550.00000	100.33143	-772.85618	100.33143
23600.00000	100.30829	-775.42416	100.30829
23650.00000	100.19305	-777.53534	100.19305
23700.00000	100.22085	-779.43135	100.22085
23750.00000	100.21147	-781.79466	100.21147
23800.00000	100.10208	-784.00172	100.10208
23850.00000	100.09633	-786.38406	100.09633
23900.00000	100.04695	-788.80439	100.04695
23950.00000	99.96590	-791.15857	99.96590
24000.00000	99.98787	-793.53850	99.98787
24050.00000	99.93053	-796.21537	99.93053
24100.00000	99.89850	-798.32697	99.89850
24150.00000	99.81788	-800.38155	99.81788
24200.00000	99.81249	-803.61948	99.81249
24250.00000	99.75481	-805.70069	99.75481
24300.00000	99.72194	-808.11276	99.72194
24350.00000	99.63663	-810.09809	99.63663
24400.00000	99.66230	-812.95871	99.66230
24450.00000	99.50319	-814.66049	99.50319
24500.00000	99.46263	-818.19864	99.46263
24550.00000	99.40045	-820.75344	99.40045
24600.00000	99.32496	-823.33337	99.32496
24650.00000	99.25951	-826.25060	99.25951
24700.00000	99.17888	-828.78362	99.17888
24750.00000	99.12049	-831.47776	99.12049
24800.00000	98.96025	-833.63437	98.96025
24850.00000	98.85898	-836.40919	98.85898
24900.00000	98.74199	-838.27729	98.74199
24950.00000	98.70244	-840.76540	98.70244
25000.00000	98.56147	-843.89126	98.56147
25050.00000	98.48407	-845.76170	98.48407
25100.00000	98.35681	-847.93723	98.35681
25150.00000	98.16939	-850.09851	98.16939
25200.00000	98.08197	-852.25582	98.08197
25250.00000	97.92832	-855.08821	97.92832
25300.00000	97.71887	-857.46838	97.71887
25350.00000	97.69138	-859.79443	97.69138
25400.00000	97.59103	-861.85649	97.59103
25450.00000	97.46988	-864.50317	97.46988
25500.00000	97.37577	-866.16419	97.37577
25550.00000	97.21952	-868.20370	97.21952
25600.00000	97.09230	-870.06487	97.09230
25650.00000	96.97406	-873.09744	96.97406
25700.00000	96.86104	-874.68558	96.86104
25750.00000	96.80574	-877.22409	96.80574
25800.00000	96.74180	-879.07986	96.74180
25850.00000	96.61866	-881.30063	96.61866
25900.00000	96.49041	-883.77821	96.49041
25950.00000	96.39698	-886.01427	96.39698
26000.00000	96.26899	-888.12573	96.26899
26050.00000	96.22223	-890.75996	96.22223
26100.00000	96.09228	-892.87879	96.09228
26150.00000	95.93053	-895.80458	95.93053
26200.00000	95.80225	-897.75530	95.80225
26250.00000	95.70370	-899.94343	95.70370
26300.00000	95.50142	-902.50454	95.50142
26350.00000	95.38754	-904.74663	95.38754
26400.00000	95.30351	-907.69136	95.30351
26450.00000	95.07839	-910.47624	95.07839
26500.00000	94.89903	-912.56273	94.89903
26550.00000	94.71289	-914.67320	94.71289
26600.00000	94.53546	-916.78706	94.53546
26650.00000	94.32371	-919.38553	94.32371
26700.00000	94.09765	-921.39866	94.09765
26750.00000	93.83010	-923.89493	93.83010
26800.00000	93.66780	-925.93267	93.66780
26850.00000	93.37857	-927.51607	93.37857
26900.00000	93.15026	-929.66602	93.15026
26950.00000	92.87204	-931.85080	92.87204
27000.00000	92.61479	-934.02304	92.61479
27050.00000	92.38480	-935.40560	92.38480
27100.00000	92.11534	-937.06947	92.11534
27150.00000	91.85956	-938.75086	91.85956
27200.00000	91.67244	-940.76432	91.67244
27250.00000	91.32552	-941.95831	91.32552
27300.00000	91.19572	-943.16841	91.19572
27350.00000	90.85614	-944.70726	90.85614
27400.00000	90.70150	-946.03713	90.70150
27450.00000	90.54861	-947.32847	90.54861
27500.00000	90.21986	-948.50538	90.21986
27550.00000	89.95053	-949.57035	89.95053
27600.00000	89.75751	-950.48679	89.75751
27650.00000	89.48838	-951.39197	89.48838
27700.00000	89.31356	-952.64165	89.31356
27750.00000	89.11064	-953.54107	89.11064
27800.00000	88.85522	-954.81503	88.85522
27850.00000	88.63275	-955.92385	88.63275
27900.00000	88.46643	-956.13487	88.46643
27950.00000	88.24002	-957.42497	88.24002
28000.00000	88.05986	-957.60835	88.05986
28050.00000	87.84934	-958.50725	87.84934
28100.00000	87.64164	-958.42421	87.64164
28150.00000	87.43093	-959.81752	87.43093
28200.00000	87.18149	-960.26572	87.18149
28250.00000	87.01452	-961.05620	87.01452
28300.00000	86.85013	-961.24568	86.85013
28350.00000	86.72425	-961.87685	86.72425
28400.00000	86.40740	-961.96407	86.40740
28450.00000	86.10903	-962.39349	86.10903
28500.00000	86.08461	-962.83016	86.08461
28550.00000	85.98385	-962.34378	85.98385
28600.00000	85.91209	-962.40975	85.91209
28650.00000	85.66799	-962.58780	85.66799
28700.00000	85.62040	-962.28788	85.62040
28750.00000	85.51113	-962.33068	85.51113
28800.00000	85.38000	-962.74324	85.38000
28850.00000	85.21882	-962.54530	85.21882
28900.00000	85.35221	-963.58176	85.35221
28950.00000	85.03167	-962.46960	85.03167
29000.00000	85.26577	-962.55982	85.26577
29050.00000	85.06517	-963.10810	85.06517
29100.00000	84.92920	-961.72770	84.92920
29150.00000	84.93082	-961.48261	84.93082
29200.00000	85.04821	-961.30855	85.04821
29250.00000	84.84634	-961.53931	84.84634
29300.00000	84.99199	-961.15909	84.99199
29350.00000	85.03307	-961.06274	85.03307
29400.00000	84.79965	-961.44025	84.79965
29450.00000	85.05148	-960.35617	85.05148
29500.00000	85.16322	-960.84669	85.16322
29550.00000	85.13227	-960.32000	85.13227
29600.00000	85.30738	-961.05541	85.30738
29650.00000	85.24966	-961.05128	85.24966
29700.00000	85.26475	-960.30416	85.26475
29750.00000	85.48953	-960.97468	85.48953
29800.00000	85.38058	-960.43243	85.38058
29850.00000	85.50237	-959.41285	85.50237
29900.00000	85.71963	-960.65339	85.71963
29950.00000	85.78275	-960.59572	85.78275
30000.00000	85.91679	-960.63484	85.91679
30050.00000	86.00894	-960.58120	86.00894
30100.00000	86.26690	-960.71957	86.26690
30150.00000	86.37563	-961.59544	86.37563
30200.00000	86.62852	-960.90220	86.62852
30250.00000	86.69833	-962.32601	86.69833
30300.00000	86.91287	-961.76091	86.91287
30350.00000	87.07927	-962.17083	87.07927
30400.00000	87.37683	-962.16432	87.37683
30450.00000	87.41234	-962.51356	87.41234
30500.00000	87.76058	-963.09359	87.76058
30550.00000	87.85064	-963.90101	87.85064
30600.00000	88.19381	-964.54458	88.19381
30650.00000	88.36659	-965.00286	88.36659
30700.00000	88.64306	-965.69060	88.64306
30750.00000	88.78749	-966.39843	88.78749
30800.00000	88.93681	-967.20752	88.93681
30850.00000	89.25697	-968.01107	89.25697
30900.00000	89.56363	-969.17395	89.56363
30950.00000	89.68762	-970.06345	89.68762
31000.00000	89.97635	-971.10413	89.97635
31050.00000	90.21394	-971.70869	90.21394
31100.00000	90.42598	-973.14382	90.42598
31150.00000	90.73891	-974.54057	90.73891
31200.00000	90.81893	-975.63894	90.81893
31250.00000	91.15945	-977.06726	91.15945
31300.00000	91.37368	-978.30798	91.37368
31350.00000	91.62162	-979.37423	91.62162
31400.00000	91.82269	-980.78063	91.82269
31450.00000	92.10356	-982.33149	92.10356
31500.00000	92.19127	-984.12400	92.19127
31550.00000	92.53695	-985.39540	92.53695
31600.00000	92.70288	-987.52681	92.70288
31650.00000	92.91773	-989.00643	92.91773
31700.00000	93.09853	-990.70594	93.09853
31750.00000	93.27909	-992.40068	93.27909
31800.00000	93.47950	-994.05885	93.47950
31850.00000	93.63115	-995.34822	93.63115
31900.00000	93.81954	-997.71582	93.81954
31950.00000	94.02319	-999.27571	94.02319
32000.00000	94.15653	-1001.03502	94.15653
32050.00000	94.34532	-1002.71015	94.34532
32100.00000	94.47069	-1004.28749	94.47069
32150.00000	94.62433	-1006.15693	94.62433
32200.00000	94.78695	-1007.80457	94.78695
32250.00000	94.99254	-1009.27652	94.99254
32300.00000	95.03979	-1010.58836	95.03979
32350.00000	95.20445	-1012.25231	95.20445
32400.00000	95.37240	-1013.78509	95.37240
32450.00000	95.50818	-1015.39421	95.50818
32500.00000	95.67611	-1017.21951	95.67611
32550.00000	95.85607	-1018.52747	95.85607
32600.00000	95.98843	-1020.04017	95.98843
32650.00000	96.13244	-1021.06005	96.13244
32700.00000	96.31771	-1022.78663	96.31771
32750.00000	96.47267	-1024.16558	96.47267
32800.00000	96.59715	-1025.72612	96.59715
32850.00000	96.83282	-1027.09920	96.83282
32900.00000	97.00042	-1028.33150	97.00042
32950.00000	97.19843	-1029.83202	97.19843
33000.00000	97.34896	-1030.90472	97.34896
33050.00000	97.60463	-1032.44552	97.60463
33100.00000	97.80522	-1034.00638	97.80522
33150.00000	98.00436	-1035.25301	98.00436
33200.00000	98.22143	-1036.54814	98.22143
33250.00000	98.44239	-1037.91271	98.44239
33300.00000	98.70257	-1039.24827	98.70257
33350.00000	98.96270	-1040.89111	98.96270
33400.00000	99.18586	-1042.28946	99.18586
33450.00000	99.43061	-1044.05849	99.43061
33500.00000	99.69228	-1045.60628	99.69228
33550.00000	99.97383	-1046.97260	99.97383
33600.00000	100.24465	-1048.80163	100.24465
33650.00000	100.54531	-1050.66186	100.54531
33700.00000	100.81374	-1052.28119	100.81374
33750.00000	101.09731	-1054.24088	101.09731
33800.00000	101.38452	-1055.99421	101.38452
33850.00000	101.68449	-1057.86344	101.68449
33900.00000	101.97500	-1060.16950	101.97500
33950.00000	102.26308	-1061.93265	102.26308
34000.00000	102.58799	-1064.04136	102.58799
34050.00000	102.86675	-1066.08981	102.86675
34100.00000	103.18717	-1068.46752	103.18717
34150.00000	103.44970	-1070.89980	103.44970
34200.00000	103.73195	-1073.16828	103.73195
34250.00000	104.05486	-1075.45149	104.05486
34300.00000	104.33096	-1078.12077	104.33096
34350.00000	104.65826	-1080.46145	104.65826
34400.00000	104.96952	-1083.08603	104.96952
34450.00000	105.24058	-1085.82245	105.24058
34500.00000	105.51929	-1088.51822	105.51929
34550.00000	105.79261	-1091.11607	105.79261
34600.00000	106.09184	-1093.95873	106.09184
34650.00000	106.38498	-1096.90623	106.38498
34700.00000	106.64838	-1099.76190	106.64838
34750.00000	106.94094	-1102.84189	106.94094
34800.00000	107.22657	-1105.98681	107.22657
34850.00000	107.50777	-1109.29703	107.50777
34900.00000	107.74717	-1112.64669	107.74717
34950.00000	107.99037	-1116.31936	107.99037
35000.00000	108.19904	-1119.78758	108.19904
35050.00000	108.33457	-1123.61115	108.33457
35100.00000	108.40889	-1127.05630	108.40889
35150.00000	108.47149	-1129.96173	108.47149
35200.00000	108.60495	-1132.43355	108.60495
35250.00000	108.80268	-1134.93345	108.80268
35300.00000	109.02413	-1137.68926	109.02413
35350.00000	109.24478	-1140.68980	109.24478
35400.00000	109.46673	-1144.06857	109.46673
35450.00000	109.67498	-1147.43506	109.67498
35500.00000	109.85101	-1150.84995	109.85101
35550.00000	110.02205	-1154.34838	110.02205
35600.00000	110.18327	-1157.86148	110.18327
35650.00000	110.30798	-1161.30770	110.30798
35700.00000	110.41887	-1164.93282	110.41887
35750.00000	110.52518	-1168.22438	110.52518
35800.00000	110.63651	-1171.88098	110.63651
35850.00000	110.71457	-1175.27082	110.71457
35900.00000	110.76068	-1178.64854	110.76068
35950.00000	110.83541	-1181.85174	110.83541
36000.00000	110.88474	-1185.13706	110.88474
36050.00000	110.93102	-1188.42963	110.93102
36100.00000	110.95138	-1191.47007	110.95138
36150.00000	110.98219	-1194.65206	110.98219
36200.00000	111.00220	-1197.71274	111.00220
36250.00000	111.00295	-1200.49481	111.00295
36300.00000	111.02128	-1203.42347	111.02128
36350.00000	111.03112	-1206.30095	111.03112
36400.00000	111.05085	-1208.96063	111.05085
36450.00000	111.07398	-1211.48973	111.07398
36500.00000	111.09398	-1214.06768	111.09398
36550.00000	111.10708	-1216.47740	111.10708
36600.00000	111.13789	-1218.83927	111.13789
36650.00000	111.17135	-1221.21500	111.17135
36700.00000	111.22299	-1223.52009	111.22299
36750.00000	111.26683	-1225.74530	111.26683
36800.00000	111.33322	-1227.86524	111.33322
36850.00000	111.40577	-1230.02440	111.40577
36900.00000	111.46636	-1232.01040	111.46636
36950.00000	111.55844	-1234.06985	111.55844
37000.00000	111.66685	-1236.11197	111.66685
37050.00000	111.76639	-1238.05129	111.76639
37100.00000	111.88599	-1239.91813	111.88599
37150.00000	112.02822	-1241.89553	112.02822
37200.00000	112.15828	-1243.77761	112.15828
37250.00000	112.33379	-1245.54044	112.33379
37300.00000	112.49852	-1247.45567	112.49852
37350.00000	112.67053	-1249.23797	112.67053
37400.00000	112.89363	-1251.10751	112.89363
37450.00000	113.13677	-1252.82040	113.13677
37500.00000	113.38646	-1254.53780	113.38646
37550.00000	113.68639	-1256.35449	113.68639
37600.00000	114.00263	-1258.13962	114.00263
37650.00000	114.37168	-1260.12054	114.37168
37700.00000	114.77388	-1262.18992	114.77388
37750.00000	115.22299	-1264.45826	115.22299
37800.00000	115.68585	-1267.05290	115.68585
37850.00000	116.18500	-1270.00654	116.18500
37900.00000	116.68522	-1273.37476	116.68522
37950.00000	117.18821	-1277.18093	117.18821
38000.00000	117.68333	-1281.25254	117.68333
38050.00000	118.15435	-1285.88356	118.15435
38100.00000	118.57111	-1290.59919	118.57111
38150.00000	118.96054	-1295.65741	118.96054
38200.00000	119.32242	-1300.94508	119.32242
38250.00000	119.61186	-1306.26370	119.61186
38300.00000	119.89203	-1311.76276	119.89203
38350.00000	120.13054	-1317.26965	120.13054
38400.00000	120.32183	-1322.87307	120.32183
38450.00000	120.48533	-1328.44893	120.48533
38500.00000	120.62194	-1333.93762	120.62194
38550.00000	120.72356	-1339.49219	120.72356
38600.00000	120.80113	-1344.95986	120.80113
38650.00000	120.85620	-1350.44189	120.85620
38700.00000	120.88161	-1355.80712	120.88161
38750.00000	120.89070	-1361.13616	120.89070
38800.00000	120.88311	-1366.35718	120.88311
38850.00000	120.86231	-1371.56486	120.86231
38900.00000	120.83068	-1376.63594	120.83068
38950.00000	120.78160	-1381.69502	120.78160
39000.00000	120.73321	-1386.76967	120.73321
39050.00000	120.66432	-1391.81070	120.66432
39100.00000	120.58677	-1396.80773	120.58677
39150.00000	120.49116	-1401.77342	120.49116
39200.00000	120.38302	-1406.71471	120.38302
39250.00000	120.27257	-1411.54652	120.27257
39300.00000	120.14234	-1416.32074	120.14234
39350.00000	120.00668	-1421.09909	120.00668
39400.00000	119.87177	-1425.86723	119.87177
39450.00000	119.74151	-1430.55824	119.74151
39500.00000	119.58405	-1435.34792	119.58405
39550.00000	119.42228	-1440.08896	119.42228
39600.00000	119.23801	-1444.95541	119.23801
39650.00000	119.03342	-1449.74888	119.03342
39700.00000	118.81107	-1454.50624	118.81107
39750.00000	118.55401	-1459.18462	118.55401
39800.00000	118.26562	-1463.79775	118.26562
39850.00000	117.96728	-1468.33548	117.96728
39900.00000	117.64407	-1472.67849	117.64407
39950.00000	117.32110	-1476.87010	117.32110
40000.00000	116.96210	-1480.86483	116.96210
40050.00000	116.61370	-1484.79602	116.61370
40100.00000	116.25761	-1488.66152	116.25761
40150.00000	115.89863	-1492.23198	115.89863
40200.00000	115.52462	-1495.68090	115.52462
40250.00000	115.15694	-1498.98645	115.15694
40300.00000	114.77179	-1502.11501	114.77179
40350.00000	114.41295	-1505.14042	114.41295
40400.00000	114.03868	-1507.96139	114.03868
40450.00000	113.68044	-1510.74039	113.68044
40500.00000	113.31257	-1513.25308	113.31257
40550.00000	112.95951	-1515.78048	112.95951
40600.00000	112.62885	-1518.13983	112.62885
40650.00000	112.28452	-1520.31884	112.28452
40700.00000	111.96829	-1522.58563	111.96829
40750.00000	111.67050	-1524.44687	111.67050
40800.00000	111.36640	-1526.46479	111.36640
40850.00000	111.08224	-1528.26666	111.08224
40900.00000	110.83209	-1530.10992	110.83209
40950.00000	110.58375	-1531.83485	110.58375
41000.00000	110.34349	-1533.54614	110.34349
41050.00000	110.12175	-1535.12221	110.12175
41100.00000	109.91953	-1536.53919	109.91953
41150.00000	109.75445	-1538.27495	109.75445
41200.00000	109.55458	-1539.94090	109.55458
41250.00000	109.43832	-1541.52634	109.43832
41300.00000	109.28755	-1543.26289	109.28755
41350.00000	109.15540	-1544.80957	109.15540
41400.00000	109.02366	-1546.50566	109.02366
41450.00000	108.91925	-1548.28449	108.91925
41500.00000	108.80265	-1549.87537	108.80265
41550.00000	108.69969	-1551.57283	108.69969
41600.00000	108.61421	-1553.47992	108.61421
41650.00000	108.53356	-1555.28954	108.53356
41700.00000	108.46642	-1557.22798	108.46642
41750.00000	108.39415	-1559.22792	108.39415
41800.00000	108.32986	-1561.01946	108.32986
41850.00000	108.27420	-1563.26912	108.27420
41900.00000	108.24875	-1565.61679	108.24875
41950.00000	108.16641	-1567.52197	108.16641
42000.00000	108.07979	-1569.88407	108.07979
42050.00000	108.01831	-1572.41872	108.01831
42100.00000	107.94899	-1574.64458	107.94899
42150.00000	107.83314	-1577.10169	107.83314
42200.00000	107.72464	-1579.51385	107.72464
42250.00000	107.60860	-1581.88880	107.60860
42300.00000	107.54075	-1583.79709	107.54075
42350.00000	107.40408	-1586.12133	107.40408
42400.00000	107.31805	-1588.36869	107.31805
42450.00000	107.18514	-1590.84778	107.18514
42500.00000	107.04173	-1592.84618	107.04173
42550.00000	106.90917	-1595.05712	106.90917
42600.00000	106.78258	-1597.16374	106.78258
42650.00000	106.67755	-1599.32853	106.67755
42700.00000	106.45957	-1601.20201	106.45957
42750.00000	106.35969	-1603.48583	106.35969
42800.00000	106.23688	-1605.34123	106.23688
42850.00000	106.15102	-1607.16985	106.15102
42900.00000	106.06870	-1609.47548	106.06870
42950.00000	105.90621	-1611.10019	105.90621
43000.00000	105.79999	-1613.24262	105.79999
43050.00000	105.65608	-1615.15459	105.65608
43100.00000	105.55301	-1617.37806	105.55301
43150.00000	105.42513	-1618.67661	105.42513
43200.00000	105.33244	-1620.67776	105.33244
43250.00000	105.17561	-1622.16840	105.17561
43300.00000	105.09211	-1623.83747	105.09211
43350.00000	105.01129	-1625.54065	105.01129
43400.00000	104.93793	-1627.11168	104.93793
43450.00000	104.77802	-1628.77984	104.77802
43500.00000	104.62004	-1631.02568	104.62004
43550.00000	104.54220	-1632.44989	104.54220
43600.00000	104.44951	-1634.39887	104.44951
43650.00000	104.38012	-1635.54342	104.38012
43700.00000	104.28889	-1636.68696	104.28889
43750.00000	104.19098	-1638.81293	104.19098
43800.00000	104.03463	-1640.32048	104.03463
43850.00000	104.01871	-1641.53154	104.01871
43900.00000	103.97898	-1643.13597	103.97898
43950.00000	103.91405	-1644.88873	103.91405
44000.00000	103.76314	-1646.12447	103.76314
44050.00000	103.78154	-1646.62563	103.78154
44100.00000	103.64600	-1647.61421	103.64600
44150.00000	103.63349	-1648.84820	103.63349
44200.00000	103.52953	-1650.07616	103.52953
44250.00000	103.57186	-1650.69803	103.57186
44300.00000	103.60039	-1651.93738	103.60039
44350.00000	103.70202	-1653.00561	103.70202
44400.00000	103.61134	-1653.61877	103.61134
44450.00000	103.72272	-1654.69543	103.72272
44500.00000	103.69463	-1655.41526	103.69463
44550.00000	103.79179	-1656.41034	103.79179
44600.00000	103.94075	-1656.92301	103.94075
44650.00000	103.92396	-1658.49402	103.92396
44700.00000	104.21117	-1659.24604	104.21117
44750.00000	104.29972	-1660.78402	104.29972
44800.00000	104.37824	-1662.22294	104.37824
44850.00000	104.54403	-1663.69553	104.54403
44900.00000	104.84317	-1664.88703	104.84317
44950.00000	104.95814	-1666.30608	104.95814
45000.00000	105.18652	-1667.54137	105.18652
45050.00000	105.39526	-1670.03802	105.39526
45100.00000	105.58958	-1671.87943	105.58958
45150.00000	105.83262	-1672.94460	105.83262
45200.00000	106.13693	-1675.18222	106.13693
45250.00000	106.31853	-1677.53599	106.31853
45300.00000	106.50508	-1679.56013	106.50508
45350.00000	106.83309	-1681.21858	106.83309
45400.00000	107.04411	-1683.86439	107.04411
45450.00000	107.39378	-1686.33289	107.39378
45500.00000	107.56589	-1688.85419	107.56589
45550.00000	107.88689	-1691.39802	107.88689
45600.00000	108.19097	-1693.85452	108.19097
45650.00000	108.41656	-1696.80060	108.41656
45700.00000	108.72854	-1699.95730	108.72854
45750.00000	109.03588	-1703.95338	109.03588
45800.00000	109.28403	-1707.69640	109.28403
45850.00000	109.57636	-1711.68592	109.57636
45900.00000	109.74274	-1715.88609	109.74274
45950.00000	109.88016	-1719.90764	109.88016
46000.00000	110.05256	-1724.34634	110.05256
46050.00000	110.18715	-1728.98768	110.18715
46100.00000	110.28399	-1733.33814	110.28399
46150.00000	110.37500	-1737.73495	110.37500
46200.00000	110.44565	-1742.09872	110.44565
46250.00000	110.44730	-1746.53544	110.44730
46300.00000	110.42459	-1751.21730	110.42459
46350.00000	110.47699	-1755.21930	110.47699
46400.00000	110.42176	-1759.77203	110.42176
46450.00000	110.32453	-1763.87206	110.32453
46500.00000	110.24610	-1767.94522	110.24610
46550.00000	110.12450	-1771.84766	110.12450
46600.00000	110.05113	-1775.70702	110.05113
46650.00000	109.88648	-1779.29817	109.88648
46700.00000	109.84369	-1782.89719	109.84369
46750.00000	109.68239	-1786.72319	109.68239
46800.00000	109.58023	-1790.33359	109.58023
46850.00000	109.48973	-1793.64202	109.48973
46900.00000	109.38334	-1797.28868	109.38334
46950.00000	109.32233	-1800.34500	109.32233
47000.00000	109.15847	-1804.47999	109.15847
47050.00000	109.04236	-1808.03213	109.04236
47100.00000	108.96983	-1811.39672	108.96983
47150.00000	108.80439	-1814.77403	108.80439
47200.00000	108.67267	-1818.30593	108.67267
47250.00000	108.55775	-1821.53754	108.55775
47300.00000	108.47524	-1825.07599	108.47524
47350.00000	108.37441	-1828.48112	108.37441
47400.00000	108.23097	-1831.49531	108.23097
47450.00000	108.08298	-1834.87898	108.08298
47500.00000	108.00420	-1837.89133	108.00420
47550.00000	107.88355	-1841.14434	107.88355
47600.00000	107.68157	-1844.98162	107.68157
47650.00000	107.54515	-1847.64354	107.54515
47700.00000	107.45223	-1851.26943	107.45223
47750.00000	107.29998	-1854.38225	107.29998
47800.00000	107.08690	-1857.72424	107.08690
47850.00000	107.01437	-1861.71856	107.01437
47900.00000	106.94655	-1864.18323	106.94655
47950.00000	106.80876	-1867.29232	106.80876
48000.00000	106.59164	-1870.92021	106.59164
48050.00000	106.52830	-1874.18237	106.52830
48100.00000	106.33045	-1877.79844	106.33045
48150.00000	106.20387	-1880.42185	106.20387
48200.00000	106.05431	-1884.88739	106.05431
48250.00000	105.92300	-1888.29753	105.92300
48300.00000	105.80147	-1892.35493	105.80147
48350.00000	105.68761	-1894.44709	105.68761
48400.00000	105.39907	-1898.37013	105.39907
48450.00000	105.28732	-1902.29555	105.28732
48500.00000	105.02601	-1906.15630	105.02601
48550.00000	104.82002	-1909.98980	104.82002
48600.00000	104.63178	-1915.03924	104.63178
48650.00000	104.30709	-1917.76606	104.30709
48700.00000	104.08257	-1921.49213	104.08257
48750.00000	103.72738	-1566.88666	103.72738
48800.00000	103.30658	-1569.16299	103.30658
48850.00000	103.04139	-1213.82083	103.04139
48900.00000	102.66157	-857.25433	102.66157
48950.00000	102.20948	-860.37436	102.20948
49000.00000	101.83740	-504.64250	101.83740
49050.00000	101.50966	-508.08428	101.50966
49100.00000	100.68939	-150.76190	100.68939
49150.00000	100.41198	-154.06570	100.41198
49200.00000	99.70846	-154.58253	99.70846
49250.00000	99.26172	-156.30933	99.26172
49300.00000	98.76938	-157.84814	98.76938
49350.00000	98.26436	199.52201	98.26436
49400.00000	97.75927	198.36202	97.75927
49450.00000	97.15770	197.73221	97.15770
49500.00000	96.87284	557.09674	96.87284
49550.00000	96.45810	915.15545	96.45810
49600.00000	96.07123	916.06852	96.07123
49650.00000	95.91786	1273.89254	95.91786
49700.00000	95.20172	1275.34779	95.20172
49750.00000	94.96592	1633.77033	94.96592
49800.00000	94.91065	1633.85826	94.91065
49850.00000	94.41149	2352.32442	94.41149
49900.00000	94.71810	2353.05900	94.71810
49950.00000	94.33070	2713.57759	94.33070
50000.00000	94.30014	2712.44332	94.30014
50050.00000	93.84635	2712.50888	93.84635
50100.00000	93.75211	2709.43822	93.75211
50150.00000	93.75726	2709.66062	93.75726
50200.00000	93.78346	2710.05598	93.78346
50250.00000	93.62359	2710.00191	93.62359
50300.00000	93.54943	2708.21821	93.54943
50350.00000	93.70730	2707.40432	93.70730
50400.00000	93.61824	2705.11214	93.61824
50450.00000	93.46462	2704.58651	93.46462
50500.00000	93.62135	2704.36707	93.62135
50550.00000	93.33191	2701.22263	93.33191
50600.00000	93.81865	2700.33637	93.81865
50650.00000	93.65177	2699.07056	93.65177
50700.00000	93.55762	2697.33063	93.55762
50750.00000	93.34271	2695.38323	93.34271
50800.00000	93.66668	2692.22264	93.66668
50850.00000	93.66586	2692.17202	93.66586
50900.00000	93.21045	2689.27761	93.21045
50950.00000	93.18866	2687.67799	93.18866
51000.00000	93.49703	2684.95223	93.49703
51050.00000	93.17631	2683.48475	93.17631
51100.00000	92.94633	2681.31737	92.94633
51150.00000	93.00409	2679.15453	93.00409
51200.00000	92.93009	2675.81969	92.93009
51250.00000	92.86730	2674.47226	92.86730
51300.00000	92.47806	2668.58172	92.47806
51350.00000	92.47082	2668.97110	92.47082
51400.00000	92.41518	2664.86417	92.41518
51450.00000	91.96666	2665.43235	91.96666
51500.00000	91.61971	2662.09575	91.61971
51550.00000	91.46650	2658.68395	91.46650
51600.00000	91.52371	2657.02053	91.52371
51650.00000	90.98974	2654.19623	90.98974
51700.00000	91.09746	2652.64804	91.09746
51750.00000	90.26481	2652.49111	90.26481
51800.00000	90.21102	2649.90905	90.21102
51850.00000	89.71181	2647.49904	89.71181
51900.00000	89.58162	2646.89978	89.58162
51950.00000	89.11912	2646.04984	89.11912
52000.00000	88.85453	2648.21138	88.85453
52050.00000	88.85263	2646.48794	88.85263
52100.00000	88.58578	2645.77467	88.58578
52150.00000	88.25187	2647.89985	88.25187
52200.00000	88.06413	2645.91737	88.06413
52250.00000	88.42387	2642.88970	88.42387
52300.00000	87.40647	2646.96489	87.40647
52350.00000	87.54839	2644.50656	87.54839
52400.00000	86.85036	2643.94213	86.85036
52450.00000	87.35704	2643.10292	87.35704
52500.00000	87.19458	2644.94109	87.19458
52550.00000	87.83383	2645.68311	87.83383
52600.00000	87.78310	2646.20988	87.78310
52650.00000	87.68831	2643.30699	87.68831
52700.00000	87.60084	2643.49835	87.60084
52750.00000	87.63116	2646.55883	87.63116
52800.00000	87.69739	2638.13567	87.69739
52850.00000	87.18101	2644.42613	87.18101
52900.00000	87.89817	2643.10914	87.89817
52950.00000	87.49913	2642.24729	87.49913
53000.00000	88.00532	2639.89482	88.00532
53050.00000	87.86324	2636.93323	87.86324
53100.00000	87.76369	2633.17224	87.76369
53150.00000	88.30022	2636.93026	88.30022
53200.00000	87.53097	2635.03821	87.53097
53250.00000	88.26615	2635.10154	88.26615
53300.00000	87.69330	2632.04432	87.69330
53350.00000	88.58168	2628.12577	88.58168
53400.00000	87.99567	2630.09857	87.99567
53450.00000	87.93009	2627.57216	87.93009
53500.00000	88.97892	2626.16184	88.97892
53550.00000	88.73594	2625.51027	88.73594
53600.00000	87.81015	2624.60952	87.81015
53650.00000	87.94634	2619.24997	87.94634
53700.00000	88.70696	2618.57945	88.70696
53750.00000	88.36274	2613.66477	88.36274
53800.00000	88.20737	2617.74450	88.20737
53850.00000	88.50192	2614.06711	88.50192
53900.00000	88.56031	2612.88056	88.56031
53950.00000	89.16035	2614.08848	89.16035
54000.00000	88.27850	2607.92834	88.27850
54050.00000	88.25382	2608.07506	88.25382
54100.00000	88.57216	2606.54545	88.57216
54150.00000	88.55042	2604.13762	88.55042
54200.00000	88.08347	2602.59104	88.08347
54250.00000	88.33539	2597.59259	88.33539
54300.00000	88.18665	2599.46063	88.18665
54350.00000	87.97967	2596.60770	87.97967
54400.00000	88.81979	2596.03336	88.81979
54450.00000	87.80173	2595.72003	87.80173
54500.00000	88.00311	2596.24906	88.00311
54550.00000	88.26471	2596.69354	88.26471
54600.00000	88.20571	2593.33994	88.20571
54650.00000	88.30991	2589.19856	88.30991
54700.00000	88.15461	2592.66560	88.15461
54750.00000	88.41328	2588.35541	88.41328
54800.00000	88.20984	2589.40288	88.20984
54850.00000	88.23243	2585.42592	88.23243
54900.00000	88.25817	2584.34655	88.25817
54950.00000	87.89651	2586.42710	87.89651
55000.00000	88.60371	2583.09356	88.60371
55050.00000	88.32417	2585.78354	88.32417
55100.00000	88.48981	2584.41743	88.48981
55150.00000	88.67352	2580.94671	88.67352
55200.00000	88.66806	2582.14562	88.66806
55250.00000	89.10215	2583.00057	89.10215
55300.00000	88.85949	2580.84598	88.85949
55350.00000	88.71018	2578.28971	88.71018
55400.00000	89.02691	2576.80919	89.02691
55450.00000	89.34776	2576.82924	89.34776
55500.00000	89.22282	2575.71232	89.22282
55550.00000	89.78042	2571.72852	89.78042
55600.00000	89.92758	2569.94307	89.92758
55650.00000	90.23382	2568.78295	90.23382
55700.00000	90.38061	2569.15244	90.38061
55750.00000	90.42347	2566.13870	90.42347
55800.00000	90.70296	2566.46595	90.70296
55850.00000	90.81745	2564.43519	90.81745
55900.00000	91.18233	2561.59866	91.18233
55950.00000	91.48657	2559.09558	91.48657
56000.00000	91.66166	2555.65419	91.66166
56050.00000	91.85820	2556.28047	91.85820
56100.00000	92.04886	2552.20534	92.04886
56150.00000	92.26536	2548.79094	92.26536
56200.00000	92.39093	2546.91801	92.39093
56250.00000	92.40416	2543.79301	92.40416
56300.00000	92.69729	2541.37756	92.69729
56350.00000	92.99040	2537.38328	92.99040
56400.00000	93.09821	2535.36200	93.09821
56450.00000	93.06063	2530.86203	93.06063
56500.00000	93.20672	2528.89686	93.20672
56550.00000	93.48550	2524.76304	93.48550
56600.00000	93.40441	2521.13712	93.40441
56650.00000	93.51913	2519.78682	93.51913
56700.00000	93.52051	2515.34356	93.52051
56750.00000	93.62959	2513.43273	93.62959
56800.00000	93.49970	2509.53003	93.49970
56850.00000	93.53081	2506.11702	93.53081
56900.00000	93.68709	2503.30458	93.68709
56950.00000	93.60422	2499.77125	93.60422
57000.00000	93.61399	2495.14630	93.61399
57050.00000	93.10528	2494.72217	93.10528
57100.00000	93.24593	2491.46118	93.24593
57150.00000	92.97452	2487.78427	92.97452
57200.00000	92.78742	2485.51799	92.78742
57250.00000	92.95271	2480.76074	92.95271
57300.00000	92.72448	2479.24969	92.72448
57350.00000	92.61105	2477.83892	92.61105
57400.00000	92.39567	2475.96834	92.39567
57450.00000	92.15362	2474.53548	92.15362
57500.00000	91.90860	2473.12732	91.90860
57550.00000	91.88798	2470.02079	91.88798
57600.00000	91.89595	2470.12409	91.89595
57650.00000	91.85480	2467.34283	91.85480
57700.00000	91.69375	2466.00420	91.69375
57750.00000	91.77163	2464.05543	91.77163
57800.00000	91.67020	2463.90589	91.67020
57850.00000	91.53821	2462.47603	91.53821
57900.00000	91.42915	2460.58659	91.42915
57950.00000	91.59838	2460.49025	91.59838
58000.00000	91.56133	2460.46905	91.56133
58050.00000	91.56556	2459.80681	91.56556
58100.00000	91.85591	2456.87209	91.85591
58150.00000	91.92169	2456.32639	91.92169
58200.00000	92.16219	2454.67728	92.16219
58250.00000	92.37845	2452.56279	92.37845
58300.00000	92.42238	2450.15301	92.42238
58350.00000	92.67181	2447.72042	92.67181
58400.00000	92.72206	2446.40641	92.72206
58450.00000	92.99018	2444.46857	92.99018
58500.00000	93.13432	2441.67950	93.13432
58550.00000	93.16790	2439.35687	93.16790
58600.00000	93.17752	2436.67011	93.17752
58650.00000	93.31995	2435.47613	93.31995
58700.00000	93.55680	2432.80448	93.55680
58750.00000	93.56830	2429.75919	93.56830
58800.00000	93.68860	2428.64794	93.68860
58850.00000	93.86730	2426.08312	93.86730
58900.00000	93.96886	2423.18760	93.96886
58950.00000	94.05868	2420.89991	94.05868
59000.00000	94.13198	2418.09245	94.13198
59050.00000	94.25682	2415.15480	94.25682
59100.00000	94.35246	2412.54325	94.35246
59150.00000	94.50445	2410.23393	94.50445
59200.00000	94.67601	2407.93335	94.67601
59250.00000	94.62245	2404.98490	94.62245
59300.00000	94.63350	2402.42035	94.63350
59350.00000	94.80145	2399.41265	94.80145
59400.00000	94.86739	2397.20280	94.86739
59450.00000	94.93360	2394.58578	94.93360
59500.00000	95.13161	2391.81735	95.13161
59550.00000	95.12133	2389.34741	95.12133
59600.00000	95.32361	2386.66708	95.32361
59650.00000	95.40861	2383.96697	95.40861
59700.00000	95.54963	2381.20466	95.54963
59750.00000	95.74935	2378.29616	95.74935
59800.00000	95.76322	2375.36757	95.76322
59850.00000	95.92359	2372.54951	95.92359
59900.00000	96.13765	2369.24002	96.13765
59950.00000	96.22162	2365.62924	96.22162
60000.00000	96.43129	2362.21416	96.43129
60050.00000	96.46034	2358.52537	96.46034
60100.00000	96.56132	2354.63480	96.56132
60150.00000	96.66962	2350.70547	96.66962
60200.00000	96.71479	2346.38978	96.71479
60250.00000	96.77480	2342.27754	96.77480
60300.00000	96.73165	2337.83452	96.73165
60350.00000	96.56931	2333.84524	96.56931
60400.00000	96.49437	2328.98110	96.49437
60450.00000	96.26696	2325.52940	96.26696
60500.00000	96.14630	2321.11830	96.14630
60550.00000	95.87434	2317.79654	95.87434
60600.00000	95.61367	2315.01711	95.61367
60650.00000	95.36824	2311.51074	95.36824
60700.00000	95.12057	2308.77286	95.12057
60750.00000	94.86335	2306.41723	94.86335
60800.00000	94.70527	2304.30203	94.70527
60850.00000	94.43327	2301.83048	94.43327
60900.00000	94.36435	2299.57325	94.36435
60950.00000	94.21335	2297.47022	94.21335
61000.00000	94.06817	2295.67401	94.06817
61050.00000	93.99034	2293.93857	93.99034
61100.00000	93.77541	2291.45804	93.77541
61150.00000	93.73055	2289.26856	93.73055
61200.00000	93.75521	2287.36377	93.75521
61250.00000	93.73556	2286.17712	93.73556
61300.00000	93.63269	2283.28841	93.63269
61350.00000	93.69830	2280.75062	93.69830
61400.00000	93.58981	2278.62779	93.58981
61450.00000	93.57883	2275.78067	93.57883
61500.00000	93.53911	2274.02317	93.53911
61550.00000	93.55384	2270.89252	93.55384
61600.00000	93.59672	2269.46758	93.59672
61650.00000	93.50271	2266.15058	93.50271
61700.00000	93.51653	2263.45187	93.51653
61750.00000	93.41849	2260.62658	93.41849
61800.00000	93.44739	2258.29361	93.44739
61850.00000	93.34620	2254.98422	93.34620
61900.00000	93.21161	2252.61788	93.21161
61950.00000	93.09873	2250.46223	93.09873
62000.00000	93.07761	2246.29198	93.07761
62050.00000	92.94424	2242.96966	92.94424
62100.00000	92.91453	2241.11089	92.91453
62150.00000	92.73211	2238.11647	92.73211
62200.00000	92.58199	2235.16588	92.58199
62250.00000	92.39377	2233.76286	92.39377
62300.00000	92.33060	2230.02312	92.33060
62350.00000	92.11974	2227.39438	92.11974
62400.00000	91.93468	2224.16773	91.93468
62450.00000	91.76714	2221.13178	91.76714
62500.00000	91.59222	2220.73979	91.59222
62550.00000	91.39101	2217.89007	91.39101
62600.00000	91.20758	2215.17077	91.20758
62650.00000	90.91415	2212.94856	90.91415
62700.00000	90.87757	2211.53288	90.87757
62750.00000	90.44996	2208.03132	90.44996
62800.00000	90.62460	2206.65253	90.62460
62850.00000	90.31481	2206.49421	90.31481
62900.00000	89.89317	2205.04214	89.89317
62950.00000	89.87742	2202.32034	89.87742
63000.00000	89.42440	2200.90424	89.42440
63050.00000	89.54917	2198.51181	89.54917
63100.00000	89.14740	2198.93675	89.14740
63150.00000	89.05921	2198.04909	89.05921
63200.00000	89.04915	2197.11648	89.04915
63250.00000	88.90093	2195.33193	88.90093
63300.00000	88.62439	2196.40741	88.62439
63350.00000	88.54064	2195.77071	88.54064
63400.00000	88.50378	2193.57969	88.50378
63450.00000	88.54566	2193.18776	88.54566
63500.00000	88.72477	2194.06696	88.72477
63550.00000	88.96989	2191.94044	88.96989
63600.00000	88.83282	2191.90447	88.83282
63650.00000	88.93727	2191.88892	88.93727
63700.00000	89.25656	2190.97645	89.25656
63750.00000	89.06723	2188.39476	89.06723
63800.00000	89.24775	2188.27843	89.24775
63850.00000	89.35400	2185.11429	89.35400
63900.00000	89.87991	2184.62675	89.87991
63950.00000	89.82392	2183.37075	89.82392
64000.00000	90.02757	2182.44891	90.02757
64050.00000	90.33256	2179.83928	90.33256
64100.00000	90.47147	2177.10542	90.47147
64150.00000	90.59029	2175.39097	90.59029
64200.00000	90.78769	2171.66737	90.78769
64250.00000	91.05678	2169.02605	91.05678
64300.00000	91.17027	2166.08530	91.17027
64350.00000	91.34119	2163.36128	91.34119
64400.00000	91.41161	2160.83853	91.41161
64450.00000	91.57569	2157.26420	91.57569
64500.00000	91.81479	2154.86791	91.81479
64550.00000	91.78786	2150.34288	91.78786
64600.00000	91.96447	2148.29474	91.96447
64650.00000	91.94791	2142.81318	91.94791
64700.00000	92.00505	2140.46941	92.00505
64750.00000	91.71844	2137.26149	91.71844
64800.00000	91.44957	2134.21908	91.44957
64850.00000	91.65467	2133.24472	91.65467
64900.00000	91.61848	2130.66761	91.61848
64950.00000	91.76306	2127.44258	91.76306
65000.00000	91.85246	2125.16162	91.85246
65050.00000	92.11430	2121.51725	92.11430
65100.00000	92.12952	2117.59535	92.12952
65150.00000	92.32691	2113.63367	92.32691
65200.00000	92.39371	2108.82549	92.39371
65250.00000	92.16682	2103.90756	92.16682
65300.00000	92.08523	2099.10262	92.08523
65350.00000	91.66581	2094.39240	91.66581
65400.00000	91.19752	2090.16923	91.19752
65450.00000	90.45855	2087.37814	90.45855
65500.00000	89.99969	2085.10816	89.99969
65550.00000	89.16633	2084.90167	89.16633
65600.00000	88.69231	2085.15146	88.69231
65650.00000	88.33131	2087.64415	88.33131
65700.00000	88.25646	2090.11921	88.25646
65750.00000	88.50623	2091.46882	88.50623
65800.00000	88.96083	2091.57507	88.96083
65850.00000	89.02792	2090.10171	89.02792
65900.00000	89.51536	2090.25016	89.51536
65950.00000	89.89923	2088.44566	89.89923
66000.00000	90.48247	2086.46106	90.48247
66050.00000	90.81341	2083.71746	90.81341
66100.00000	91.07126	2080.95326	91.07126
66150.00000	91.33552	2077.20921	91.33552
66200.00000	91.72627	2073.55961	91.72627
66250.00000	91.84519	2069.76719	91.84519
66300.00000	92.04926	2065.16552	92.04926
66350.00000	92.06585	2060.88381	92.06585
66400.00000	92.11109	2056.25309	92.11109
66450.00000	92.05002	2051.86885	92.05002
66500.00000	91.78898	2047.15184	91.78898
66550.00000	91.62401	2042.58942	91.62401
66600.00000	91.40724	2039.61674	91.40724
66650.00000	91.09225	2037.85390	91.09225
66700.00000	91.00068	2035.94109	91.00068
66750.00000	90.85460	2031.83293	90.85460
66800.00000	90.64194	2029.62847	90.64194
66850.00000	90.57569	2028.48148	90.57569
66900.00000	90.38762	2026.42242	90.38762
66950.00000	90.42859	2024.41546	90.42859
67000.00000	90.26313	2020.83657	90.26313
67050.00000	90.28758	2019.17883	90.28758
67100.00000	90.20455	2017.12014	90.20455
67150.00000	89.96467	2014.96479	89.96467
67200.00000	89.98719	2012.39503	89.98719
67250.00000	89.95001	2011.89681	89.95001
67300.00000	89.86825	2008.94039	89.86825
67350.00000	89.89583	2006.40794	89.89583
67400.00000	89.96260	2004.61042	89.96260
67450.00000	89.73229	2001.92526	89.73229
67500.00000	89.78415	2000.35715	89.78415
67550.00000	89.70945	1997.89666	89.70945
67600.00000	89.84802	1994.97721	89.84802
67650.00000	89.64019	1993.56265	89.64019
67700.00000	89.33408	1990.45991	89.33408
67750.00000	89.15710	1988.22108	89.15710
67800.00000	89.21457	1987.34439	89.21457
67850.00000	89.03260	1984.92831	89.03260
67900.00000	88.87303	1984.67961	88.87303
67950.00000	88.86973	1984.70304	88.86973
68000.00000	88.90680	1984.03745	88.90680
68050.00000	88.86026	1983.15726	88.86026
68100.00000	89.12415	1983.02750	89.12415
68150.00000	89.48830	1983.24601	89.48830
68200.00000	89.62740	1982.27529	89.62740
68250.00000	89.93200	1980.63502	89.93200
68300.00000	90.22332	1979.17111	90.22332
68350.00000	90.65672	1976.52101	90.65672
68400.00000	90.99472	1974.92678	90.99472
68450.00000	91.27124	1971.84567	91.27124
68500.00000	91.73433	1968.97147	91.73433
68550.00000	92.00901	1966.79788	92.00901
68600.00000	92.35691	1963.22628	92.35691
68650.00000	92.71372	1959.32346	92.71372
68700.00000	93.11273	1955.47714	93.11273
68750.00000	93.48255	1952.00035	93.48255
68800.00000	93.77783	1947.39756	93.77783
68850.00000	94.02224	1942.90010	94.02224
68900.00000	94.40316	1938.17976	94.40316
68950.00000	94.73013	1933.50198	94.73013
69000.00000	94.93592	1928.61448	94.93592
69050.00000	95.06360	1922.38121	95.06360
69100.00000	95.24869	1917.11299	95.24869
69150.00000	95.35840	1910.87684	95.35840
69200.00000	95.44637	1905.51279	95.44637
69250.00000	95.45343	1899.76998	95.45343
69300.00000	95.42551	1893.46569	95.42551
69350.00000	95.40537	1887.71651	95.40537
69400.00000	95.30346	1881.88181	95.30346
69450.00000	95.20735	1875.85841	95.20735
69500.00000	95.07407	1869.66118	95.07407
69550.00000	94.92546	1863.10126	94.92546
69600.00000	94.65696	1857.12564	94.65696
69650.00000	94.34047	1851.24851	94.34047
69700.00000	93.98248	1844.95379	93.98248
69750.00000	93.56697	1838.56886	93.56697
69800.00000	93.05297	1833.15732	93.05297
69850.00000	92.51320	1827.30856	92.51320
69900.00000	91.83040	1822.39537	91.83040
69950.00000	91.26846	1817.71918	91.26846
70000.00000	90.53274	1814.39765	90.53274
70050.00000	89.90570	1810.50599	89.90570
70100.00000	89.13904	1806.96596	89.13904
70150.00000	88.41535	1804.29457	88.41535
70200.00000	87.68768	1802.82163	87.68768
70250.00000	86.99498	1800.96112	86.99498
70300.00000	86.26947	1799.74990	86.26947
70350.00000	85.74439	1800.72228	85.74439
70400.00000	84.89740	1800.81467	84.89740
70450.00000	84.57363	1800.48795	84.57363
70500.00000	84.04789	1801.90074	84.04789
70550.00000	83.82823	1802.05438	83.82823
70600.00000	83.62841	1805.85756	83.62841
70650.00000	83.77991	1805.16681	83.77991
70700.00000	83.58372	1805.06331	83.58372
70750.00000	83.79469	1805.91940	83.79469
70800.00000	84.01210	1806.05956	84.01210
70850.00000	83.97638	1803.98136	83.97638
70900.00000	84.26277	1805.14259	84.26277
70950.00000	84.61467	1804.37057	84.61467
71000.00000	84.72580	1802.48047	84.72580
71050.00000	85.15385	1801.41186	85.15385
71100.00000	85.49340	1799.76797	85.49340
71150.00000	85.91368	1796.32782	85.91368
71200.00000	86.30140	1794.31586	86.30140
71250.00000	86.86275	1791.20920	86.86275
71300.00000	87.24369	1784.59416	87.24369
71350.00000	87.57338	1779.78841	87.57338
71400.00000	87.70075	1773.43375	87.70075
71450.00000	87.93882	1767.87579	87.93882
71500.00000	88.10463	1762.14220	88.10463
71550.00000	88.08308	1756.53434	88.08308
71600.00000	88.08871	1748.93654	88.08871
71650.00000	87.90098	1744.61222	87.90098
71700.00000	87.57626	1735.73975	87.57626
71750.00000	87.74430	1731.42099	87.74430
71800.00000	87.31451	1725.41856	87.31451
71850.00000	86.94913	1719.27145	86.94913
71900.00000	86.64881	1713.95381	86.64881
71950.00000	86.21497	1705.73206	86.21497
72000.00000	85.64883	1703.37363	85.64883
72050.00000	85.48882	1699.44372	85.48882
72100.00000	84.75979	1695.60773	84.75979
72150.00000	84.73348	1691.05191	84.73348
72200.00000	84.71122	1686.36417	84.71122
72250.00000	84.54664	1678.27905	84.54664
72300.00000	84.52845	1672.69219	84.52845
72350.00000	84.02092	1664.98986	84.02092
72400.00000	84.24603	1657.15294	84.24603
72450.00000	83.64684	1651.61366	83.64684
72500.00000	83.36077	1640.51803	83.36077
72550.00000	83.04498	1631.42039	83.04498
72600.00000	82.27931	1623.80083	82.27931
72650.00000	81.29894	1609.22266	81.29894
72700.00000	81.31553	1600.19826	81.31553
72750.00000	80.44692	1587.79182	80.44692
72800.00000	80.12994	1568.82082	80.12994
72850.00000	79.64341	1557.49734	79.64341
72900.00000	78.63780	1537.95355	78.63780
72950.00000	78.52409	1527.86471	78.52409
73000.00000	77.72834	1507.46620	77.72834
73050.00000	77.83927	1488.73475	77.83927
73100.00000	77.38169	1474.94692	77.38169
73150.00000	77.99342	1457.94635	77.99342
73200.00000	77.50629	1441.46947	77.50629
73250.00000	77.86098	1431.09060	77.86098
73300.00000	78.43072	1420.52792	78.43072
73350.00000	78.11387	1411.61108	78.11387
73400.00000	77.61954	1400.26200	77.61954
73450.00000	78.35787	1390.57680	78.35787
73500.00000	77.91743	1381.98920	77.91743
73550.00000	78.39624	1372.25477	78.39624
73600.00000	77.84258	1375.51804	77.84258
73650.00000	78.04769	1363.43921	78.04769
73700.00000	78.12306	1364.23192	78.12306
73750.00000	77.65577	1353.93031	77.65577
73800.00000	77.66548	1351.13984	77.66548
73850.00000	78.83440	1345.50380	78.83440
73900.00000	78.87462	1336.03924	78.87462
73950.00000	79.22783	1332.03304	79.22783
74000.00000	78.70960	1329.34147	78.70960
74050.00000	79.51979	1321.06318	79.51979
74100.00000	79.08241	1311.05751	79.08241
74150.00000	79.20521	1300.18855	79.20521
74200.00000	79.90784	1290.43373	79.90784
74250.00000	79.24811	1279.06724	79.24811
74300.00000	79.45615	1257.30116	79.45615
74350.00000	78.87149	1244.27178	78.87149
74400.00000	76.93914	1186.82137	76.93914
74450.00000	72.84519	1010.86355	72.84519
74500.00000	76.93518	942.53544	76.93518
74550.00000	74.85130	907.53436	74.85130
74600.00000	73.54937	882.77038	73.54937
74650.00000	73.02762	876.65092	73.02762
74700.00000	71.91176	843.58215	71.91176
74750.00000	71.36590	822.82998	71.36590
74800.00000	67.51041	803.29825	67.51041
74850.00000	66.97899	786.94843	66.97899
74900.00000	66.26216	765.64052	66.26216
74950.00000	69.43893	714.72719	69.43893
75000.00000	70.42918	710.52076	70.42918
75050.00000	70.93043	680.73935	70.93043
75100.00000	71.87232	674.05888	71.87232
75150.00000	72.27169	661.64907	72.27169
75200.00000	73.79239	647.67117	73.79239
75250.00000	74.16235	640.58245	74.16235
75300.00000	73.92366	623.60583	73.92366
75350.00000	75.50354	624.15645	75.50354
75400.00000	74.83594	613.91686	74.83594
75450.00000	76.49724	607.73092	76.49724
75500.00000	75.52591	603.27473	75.52591
75550.00000	76.19930	596.72767	76.19930
75600.00000	76.39154	594.70877	76.39154
75650.00000	75.82510	589.59763	75.82510
75700.00000	76.76979	587.17893	76.76979
75750.00000	76.12356	582.73597	76.12356
75800.00000	75.36467	568.72131	75.36467
75850.00000	76.61190	569.71113	76.61190
75900.00000	75.67835	573.97530	75.67835
75950.00000	76.20973	557.55082	76.20973
76000.00000	78.01781	557.36223	78.01781
76050.00000	75.80254	556.39023	75.80254
76100.00000	77.71607	550.40922	77.71607
76150.00000	76.67107	549.40621	76.67107
76200.00000	76.85463	538.56144	76.85463
76250.00000	77.99690	541.86805	77.99690
76300.00000	76.45135	539.03940	76.45135
76350.00000	77.86305	522.95424	77.86305
76400.00000	77.35000	531.65572	77.35000
76450.00000	75.65631	518.76037	75.65631
76500.00000	78.28645	521.56883	78.28645
76550.00000	76.68231	527.40728	76.68231
76600.00000	77.24200	500.90838	77.24200
76650.00000	78.10998	510.25419	78.10998
76700.00000	75.56106	502.95009	75.56106
76750.00000	78.25746	491.91404	78.25746
76800.00000	77.29001	499.33566	77.29001
76850.00000	76.30442	473.10327	76.30442
76900.00000	78.77934	485.48932	78.77934
76950.00000	76.14166	485.45865	76.14166
77000.00000	77.87113	463.72648	77.87113
77050.00000	78.73389	479.37419	78.73389
77100.00000	74.34182	462.29884	74.34182
77150.00000	78.54973	454.31762	78.54973
77200.00000	76.61203	474.33472	76.61203
77250.00000	75.19266	441.60589	75.19266
77300.00000	79.15972	456.00822	79.15972
77350.00000	73.78243	451.56484	73.78243
77400.00000	77.22382	430.89762	77.22382
77450.00000	77.45988	450.09308	77.45988
77500.00000	74.26091	426.01885	74.26091
77550.00000	77.45230	423.91476	77.45230
77600.00000	73.95555	434.14133	73.95555
77650.00000	74.25148	401.63354	74.25148
77700.00000	75.95566	425.50555	75.95566
77750.00000	68.81276	425.09435	68.81276
77800.00000	75.82001	395.40608	75.82001
77850.00000	74.53368	423.08037	74.53368
77900.00000	69.84308	389.52804	69.84308
77950.00000	76.34567	399.70923	76.34567
78000.00000	70.93055	414.08809	70.93055
78050.00000	72.11185	374.96634	72.11185
78100.00000	75.17055	401.93059	75.17055
78150.00000	66.26050	392.95668	66.26050
78200.00000	73.81479	372.63556	73.81479
78250.00000	70.43022	411.76704	70.43022
78300.00000	67.34436	353.19039	67.34436
78350.00000	72.85259	380.39176	72.85259
78400.00000	66.95078	402.81249	66.95078
78450.00000	71.39271	356.23900	71.39271
78500.00000	71.54458	393.77093	71.54458
78550.00000	59.99284	357.87972	59.99284
78600.00000	70.45313	362.00012	70.45313
78650.00000	67.23017	393.76699	67.23017
78700.00000	67.29479	347.48041	67.29479
78750.00000	70.28555	378.90492	70.28555
78800.00000	59.42777	377.56832	59.42777
78850.00000	69.10986	346.63289	69.10986
78900.00000	67.29311	378.34268	67.29311
78950.00000	62.09753	344.03998	62.09753
79000.00000	68.89487	359.11221	68.89487
79050.00000	62.31021	375.27309	62.31021
79100.00000	67.39664	345.40311	67.39664
79150.00000	67.49986	372.95823	67.49986
79200.00000	62.12475	362.22393	62.12475
79250.00000	66.09502	341.78242	66.09502
79300.00000	64.71024	383.01182	64.71024
79350.00000	63.52101	324.53910	63.52101
79400.00000	67.01959	360.46243	67.01959
79450.00000	58.00727	344.67052	58.00727
79500.00000	66.48661	329.12633	66.48661
79550.00000	60.77951	375.77883	60.77951
79600.00000	59.53481	328.49238	59.53481
79650.00000	64.46580	353.83276	64.46580
79700.00000	55.35756	366.95559	55.35756
79750.00000	61.97435	337.17498	61.97435
79800.00000	60.68994	372.26086	60.68994
79850.00000	58.86187	317.66007	58.86187
79900.00000	63.64405	351.01845	63.64405
79950.00000	58.76457	380.63296	58.76457
80000.00000	60.33800	330.33414	60.33800
80050.00000	62.36149	378.30436	62.36149
80100.00000	55.07481	377.84926	55.07481
80150.00000	60.91320	360.08492	60.91320
80200.00000	61.85226	393.37872	61.85226
80250.00000	58.37258	388.87766	58.37258
80300.00000	63.60943	371.08188	63.60943
80350.00000	58.96033	382.15598	58.96033
80400.00000	63.05622	355.29626	63.05622
80450.00000	64.94592	358.34216	64.94592
80500.00000	63.04495	349.85253	63.04495
80550.00000	65.38377	351.60886	65.38377
80600.00000	63.80090	350.49260	63.80090
80650.00000	64.78618	334.03914	64.78618
80700.00000	63.39751	342.18700	63.39751
80750.00000	61.59372	313.87679	61.59372
80800.00000	64.87594	324.46220	64.87594
80850.00000	62.29663	317.91945	62.29663
80900.00000	60.51790	322.96727	60.51790
80950.00000	59.44418	328.98395	59.44418
81000.00000	57.80891	305.76339	57.80891
81050.00000	60.06596	324.76792	60.06596
81100.00000	54.98869	325.07771	54.98869
81150.00000	58.04598	340.53871	58.04598
81200.00000	58.26537	346.85878	58.26537
81250.00000	57.04152	359.20459	57.04152
81300.00000	61.58575	350.20921	61.58575
81350.00000	62.03494	353.41454	62.03494
81400.00000	61.59894	347.48611	61.59894
81450.00000	63.59712	346.82601	63.59712
81500.00000	62.98498	333.47001	62.98498
81550.00000	64.49290	333.24637	64.49290
81600.00000	62.96407	332.30648	62.96407
81650.00000	64.10268	315.92725	64.10268
81700.00000	63.92126	314.50963	63.92126
81750.00000	64.39566	314.85386	64.39566
81800.00000	63.60444	318.48336	63.60444
81850.00000	64.89546	309.14036	64.89546
81900.00000	63.87776	300.99062	63.87776
81950.00000	63.53245	301.97594	63.53245
82000.00000	64.07016	288.18354	64.07016
82050.00000	65.22791	286.23823	65.22791
82100.00000	64.81014	283.48085	64.81014
82150.00000	64.62721	275.59203	64.62721
82200.00000	63.96392	271.92296	63.96392
82250.00000	64.68463	256.04537	64.68463
82300.00000	63.40206	251.85813	63.40206
82350.00000	65.02012	242.20045	65.02012
82400.00000	65.48718	240.45712	65.48718
82450.00000	63.61858	228.66094	63.61858
82500.00000	65.44106	220.88369	65.44106
82550.00000	64.59310	202.87826	64.59310
82600.00000	64.91114	197.03836	64.91114
82650.00000	65.31111	191.23382	65.31111
82700.00000	64.74988	169.35461	64.74988
82750.00000	65.76841	159.23800	65.76841
82800.00000	65.00150	159.94889	65.00150
82850.00000	64.04300	141.68025	64.04300
82900.00000	62.61241	135.88677	62.61241
82950.00000	64.82939	113.07672	64.82939
83000.00000	62.06636	109.15255	62.06636
83050.00000	63.27248	112.15520	63.27248
83100.00000	63.99131	99.53594	63.99131
83150.00000	64.17972	98.49447	64.17972
83200.00000	65.24159	77.08595	65.24159
83250.00000	64.63431	76.26272	64.63431
83300.00000	66.67097	70.80251	66.67097
83350.00000	66.86260	55.31527	66.86260
83400.00000	68.75194	53.47527	68.75194
83450.00000	68.10433	44.24016	68.10433
83500.00000	68.62025	44.36611	68.62025
83550.00000	69.37501	28.28462	69.37501
83600.00000	70.00476	20.37125	70.00476
83650.00000	70.87310	 7.99118	70.87310
83700.00000	71.51043	-0.67359	71.51043
83750.00000	71.06857	 2.19064	71.06857
83800.00000	71.52766	-12.68079	71.52766
83850.00000	72.80373	-22.95356	72.80373
83900.00000	72.10071	-30.02893	72.10071
83950.00000	72.55852	-43.86173	72.55852
84000.00000	73.28769	-50.70076	73.28769
84050.00000	72.61861	-58.25158	72.61861
84100.00000	71.55827	-67.71559	71.55827
84150.00000	71.88013	-69.92319	71.88013
84200.00000	71.80610	-84.45876	71.80610
84250.00000	71.56829	-87.60010	71.56829
84300.00000	70.87466	-88.69951	70.87466
84350.00000	70.83407	-93.27719	70.83407
84400.00000	69.03082	-97.17539	69.03082
84450.00000	68.69486	-104.69435	68.69486
84500.00000	69.55678	-91.99153	69.55678
84550.00000	69.59526	-88.73645	69.59526
84600.00000	70.27148	-96.52380	70.27148
84650.00000	71.82970	-96.43919	71.82970
84700.00000	72.54752	-101.17430	72.54752
84750.00000	72.76737	-108.26359	72.76737
84800.00000	74.26430	-111.62086	74.26430
84850.00000	74.07495	-123.48694	74.07495
84900.00000	75.18761	-129.94363	75.18761
84950.00000	75.48477	-138.05589	75.48477
85000.00000	75.72850	-148.20261	75.72850
85050.00000	75.66991	-153.76738	75.66991
85100.00000	75.39846	-162.54369	75.39846
85150.00000	75.83889	-172.15594	75.83889
85200.00000	75.33322	-178.03345	75.33322
85250.00000	75.92293	-185.21754	75.92293
85300.00000	75.16902	-190.35150	75.16902
85350.00000	74.71551	-199.38836	74.71551
85400.00000	74.16395	-205.80878	74.16395
85450.00000	73.84106	-214.09853	73.84106
85500.00000	73.04875	-218.51565	73.04875
85550.00000	72.89314	-225.24894	72.89314
85600.00000	72.38464	-232.51170	72.38464
85650.00000	71.28475	-234.66632	71.28475
85700.00000	70.41397	-249.32399	70.41397
85750.00000	69.77260	-249.18451	69.77260
85800.00000	70.03101	-255.57253	70.03101
85850.00000	67.82803	-254.84926	67.82803
85900.00000	66.48031	-257.22387	66.48031
85950.00000	66.56355	-265.43029	66.56355
86000.00000	64.91325	-259.18667	64.91325
86050.00000	64.15376	-266.48707	64.15376
86100.00000	63.11646	-262.57106	63.11646
86150.00000	61.75609	-268.38870	61.75609
86200.00000	61.95216	-249.01282	61.95216
86250.00000	62.64995	-251.52384	62.64995
86300.00000	60.14179	-258.51464	60.14179
86350.00000	62.51160	-230.50363	62.51160
86400.00000	60.02550	-242.92205	60.02550
86450.00000	61.00082	-245.37026	61.00082
86500.00000	62.70709	-226.87793	62.70709
86550.00000	61.31128	-220.82948	61.31128
86600.00000	62.45412	-233.64297	62.45412
86650.00000	62.48095	-253.27913	62.48095
86700.00000	63.38915	-241.22021	63.38915
86750.00000	64.56644	-249.90538	64.56644
86800.00000	62.33654	-251.90167	62.33654
86850.00000	63.46734	-255.73129	63.46734
86900.00000	62.54744	-261.00166	62.54744
86950.00000	62.79225	-265.33085	62.79225
87000.00000	62.91689	-267.38311	62.91689
87050.00000	63.00632	-272.21313	63.00632
87100.00000	63.80810	-273.12156	63.80810
87150.00000	61.43524	-270.32147	61.43524
87200.00000	61.59568	-279.13773	61.59568
87250.00000	61.91401	-269.36398	61.91401
87300.00000	61.73159	-271.87173	61.73159
87350.00000	59.84820	-289.59348	59.84820
87400.00000	58.89510	-287.08472	58.89510
87450.00000	59.21299	-286.37677	59.21299
87500.00000	57.55074	-286.78878	57.55074
87550.00000	57.14189	-286.70417	57.14189
87600.00000	57.78013	-284.92055	57.78013
87650.00000	59.19237	-269.96560	59.19237
87700.00000	60.02239	-277.55103	60.02239
87750.00000	58.14956	-291.62881	58.14956
87800.00000	56.46495	-259.95982	56.46495
87850.00000	54.47693	-305.64390	54.47693
87900.00000	57.37412	-298.19839	57.37412
87950.00000	52.87740	-299.56995	52.87740
88000.00000	58.05314	-272.29164	58.05314
88050.00000	51.28157	-305.65388	51.28157
88100.00000	58.01923	-261.03144	58.01923
88150.00000	56.15773	-269.98537	56.15773
88200.00000	55.40986	-266.56194	55.40986
88250.00000	52.79145	-269.16470	52.79145
88300.00000	53.88173	-260.22844	53.88173
88350.00000	55.62113	-247.73146	55.62113
88400.00000	53.77813	-270.34710	53.77813
88450.00000	57.95274	-245.01177	57.95274
88500.00000	56.36317	-241.08236	56.36317
88550.00000	56.47589	-240.96256	56.47589
88600.00000	59.66335	-225.80351	59.66335
88650.00000	59.34591	-249.72075	59.34591
88700.00000	59.49651	-260.40672	59.49651
88750.00000	59.04940	-266.59259	59.04940
88800.00000	59.96352	-277.05700	59.96352
88850.00000	61.79048	-270.11727	61.79048
88900.00000	63.42633	-278.45274	63.42633
88950.00000	62.47945	-277.22249	62.47945
89000.00000	63.73220	-278.73267	63.73220
89050.00000	63.28143	-288.62601	63.28143
89100.00000	63.44696	-295.45951	63.44696
89150.00000	64.07460	-302.13240	64.07460
89200.00000	64.00202	-296.36069	64.00202
89250.00000	63.10759	-306.03381	63.10759
89300.00000	63.54300	-318.00774	63.54300
89350.00000	63.55520	-316.01350	63.55520
89400.00000	63.80230	-327.43894	63.80230
89450.00000	63.71833	-327.03862	63.71833
89500.00000	63.05677	-334.94341	63.05677
89550.00000	63.62573	-343.35939	63.62573
89600.00000	63.56939	-348.65254	63.56939
89650.00000	63.41540	-353.78679	63.41540
89700.00000	62.86163	-352.58780	62.86163
89750.00000	61.95106	-365.65964	61.95106
89800.00000	63.50022	-363.71278	63.50022
89850.00000	59.23438	-381.20027	59.23438
89900.00000	61.53132	-375.90247	61.53132
89950.00000	61.36498	-387.99687	61.36498
90000.00000	58.58129	-373.03683	58.58129
90050.00000	59.50411	-368.78882	59.50411
90100.00000	59.15377	-390.68150	59.15377
90150.00000	62.43371	-389.58757	62.43371
90200.00000	65.64004	-374.38047	65.64004
90250.00000	62.84416	-426.26647	62.84416
90300.00000	61.62563	-452.27348	61.62563
90350.00000	60.33290	-473.75537	60.33290
90400.00000	57.86652	-507.82159	57.86652
90450.00000	56.05632	-476.32644	56.05632
90500.00000	51.22861	-596.53108	51.22861
90550.00000	54.51299	-569.32074	54.51299
90600.00000	56.71505	-629.38988	56.71505
90650.00000	56.86023	-625.21457	56.86023
90700.00000	60.73778	-645.14162	60.73778
90750.00000	59.99134	-643.87040	59.99134
90800.00000	61.84875	-661.61786	61.84875
90850.00000	62.19126	-677.66111	62.19126
90900.00000	63.44109	-684.43266	63.44109
90950.00000	65.03118	-679.08492	65.03118
91000.00000	65.05424	-698.66440	65.05424
91050.00000	64.84955	-693.99153	64.84955
91100.00000	65.36757	-703.15736	65.36757
91150.00000	66.94736	-712.24991	66.94736
91200.00000	67.60869	-713.80058	67.60869
91250.00000	68.17350	-721.73132	68.17350
91300.00000	68.82803	-719.34679	68.82803
91350.00000	69.12817	-729.01743	69.12817
91400.00000	69.60079	-737.12202	69.60079
91450.00000	69.60174	-741.96262	69.60174
91500.00000	69.69168	-746.54397	69.69168
91550.00000	68.95081	-757.13169	68.95081
91600.00000	70.67952	-754.61845	70.67952
91650.00000	69.28991	-760.54446	69.28991
91700.00000	70.80131	-764.08620	70.80131
91750.00000	71.29976	-770.70671	71.29976
91800.00000	71.42146	-773.72389	71.42146
91850.00000	71.40728	-781.11885	71.40728
91900.00000	71.49145	-782.51868	71.49145
91950.00000	71.36936	-782.63085	71.36936
92000.00000	72.54638	-789.53398	72.54638
92050.00000	72.00679	-794.61787	72.00679
92100.00000	71.64205	-802.94808	71.64205
92150.00000	72.01303	-807.48039	72.01303
92200.00000	72.83519	-809.06984	72.83519
92250.00000	72.21719	-817.02825	72.21719
92300.00000	71.55133	-820.09956	71.55133
92350.00000	72.31731	-826.15079	72.31731
92400.00000	70.85177	-827.07271	70.85177
92450.00000	71.31513	-830.59466	71.31513
92500.00000	71.59893	-839.39892	71.59893
92550.00000	71.34802	-838.20176	71.34802
92600.00000	70.57147	-848.68508	70.57147
92650.00000	70.44249	-844.16996	70.44249
92700.00000	70.68364	-853.31428	70.68364
92750.00000	70.48152	-846.91891	70.48152
92800.00000	70.01397	-851.12229	70.01397
92850.00000	71.23388	-857.97637	71.23388
92900.00000	70.93792	-862.34829	70.93792
92950.00000	69.54977	-860.46141	69.54977
93000.00000	69.81968	-866.98159	69.81968
93050.00000	70.10100	-864.17409	70.10100
93100.00000	70.14395	-864.64387	70.14395
93150.00000	69.93765	-869.00174	69.93765
93200.00000	70.15432	-873.00204	70.15432
93250.00000	70.49786	-875.63245	70.49786
93300.00000	70.55050	-873.17183	70.55050
93350.00000	70.91593	-883.48320	70.91593
93400.00000	70.55352	-882.02148	70.55352
93450.00000	70.38715	-886.41427	70.38715
93500.00000	70.83957	-888.74450	70.83957
93550.00000	71.15004	-893.68826	71.15004
93600.00000	70.99588	-896.84266	70.99588
93650.00000	70.73066	-901.13229	70.73066
93700.00000	71.32445	-908.04778	71.32445
93750.00000	71.47327	-914.38138	71.47327
93800.00000	71.82581	-919.77919	71.82581
93850.00000	71.03686	-927.95963	71.03686
93900.00000	71.80216	-928.79019	71.80216
93950.00000	71.58333	-935.70971	71.58333
94000.00000	70.98672	-938.44476	70.98672
94050.00000	71.89737	-948.20621	71.89737
94100.00000	70.72904	-955.70908	70.72904
94150.00000	70.72718	-963.42318	70.72718
94200.00000	70.73185	-966.94128	70.73185
94250.00000	70.17967	-976.04123	70.17967
94300.00000	70.93068	-984.46355	70.93068
94350.00000	69.48924	-989.72448	69.48924
94400.00000	69.15802	-990.64839	69.15802
94450.00000	69.34651	-997.38392	69.34651
94500.00000	68.21367	-1003.58097	68.21367
94550.00000	67.29066	-1019.57177	67.29066
94600.00000	66.96558	-1018.31154	66.96558
94650.00000	67.15746	-1027.04093	67.15746
94700.00000	65.39825	-1026.35795	65.39825
94750.00000	65.61883	-1032.62444	65.61883
94800.00000	66.05827	-1027.26771	66.05827
94850.00000	64.22315	-1051.99635	64.22315
94900.00000	65.64691	-1043.80205	65.64691
94950.00000	64.95169	-1046.85553	64.95169
95000.00000	63.97113	-1053.51188	63.97113
95050.00000	63.23857	-1073.23611	63.23857
95100.00000	62.61841	-1067.37950	62.61841
95150.00000	59.01196	-1068.84553	59.01196
95200.00000	60.65786	-1052.32783	60.65786
95250.00000	59.80198	-1086.83281	59.80198
95300.00000	62.70001	-1074.79585	62.70001
95350.00000	61.98272	-1076.38669	61.98272
95400.00000	61.19905	-1090.73706	61.19905
95450.00000	59.45319	-1098.79724	59.45319
95500.00000	59.83774	-1089.86323	59.83774
95550.00000	60.26671	-1077.90545	60.26671
95600.00000	61.71890	-1094.23453	61.71890
95650.00000	60.27286	-1102.76287	60.27286
95700.00000	59.75416	-1118.45094	59.75416
95750.00000	57.00300	-1100.57616	57.00300
95800.00000	53.17296	-1106.75000	53.17296
95850.00000	53.60289	-1078.61190	53.60289
95900.00000	52.83873	-1117.29982	52.83873
95950.00000	59.28272	-1108.94361	59.28272
96000.00000	55.74531	-1087.87000	55.74531
96050.00000	38.36576	-975.74211	38.36576
96100.00000	45.72806	-1099.20911	45.72806
96150.00000	53.06391	-1066.35130	53.06391
96200.00000	52.99146	-1082.57635	52.99146
96250.00000	52.60014	-1127.46762	52.60014
96300.00000	55.14633	-1018.66881	55.14633
96350.00000	54.09078	-893.58775	54.09078
96400.00000	51.63465	-770.94452	51.63465
96450.00000	56.00299	-639.02038	56.00299
96500.00000	50.15935	-760.85357	50.15935
96550.00000	52.61456	-687.67972	52.61456
96600.00000	59.01328	-675.12181	59.01328
96650.00000	64.87301	-673.70311	64.87301
96700.00000	52.79103	-662.32271	52.79103
96750.00000	57.51505	-656.90284	57.51505
96800.00000	63.49305	-673.85289	63.49305
96850.00000	63.16495	-658.95737	63.16495
96900.00000	61.28536	-647.28523	61.28536
96950.00000	64.21353	-680.34775	64.21353
97000.00000	68.36539	-691.03420	68.36539
97050.00000	65.85636	-692.97180	65.85636
97100.00000	61.91335	-667.58161	61.91335
97150.00000	70.73943	-683.75722	70.73943
97200.00000	63.89999	-692.36158	63.89999
97250.00000	67.99255	-712.33287	67.99255
97300.00000	69.03454	-723.73868	69.03454
97350.00000	71.06815	-734.32375	71.06815
97400.00000	66.90357	-741.77043	66.90357
97450.00000	63.69513	-723.81448	63.69513
97500.00000	63.97613	-736.64903	63.97613
97550.00000	59.33304	-693.43366	59.33304
97600.00000	61.41106	-746.74176	61.41106
97650.00000	58.97039	-737.90066	58.97039
97700.00000	60.42613	-725.07964	60.42613
97750.00000	63.40897	-739.15504	63.40897
97800.00000	59.62816	-689.36036	59.62816
97850.00000	60.75091	-715.54296	60.75091
97900.00000	63.07627	-752.93127	63.07627
97950.00000	61.81913	-743.17024	61.81913
98000.00000	65.29099	-740.02072	65.29099
98050.00000	63.72508	-741.29750	63.72508
98100.00000	66.02345	-727.39939	66.02345
98150.00000	61.64524	-734.77734	61.64524
98200.00000	62.04699	-741.62302	62.04699
98250.00000	64.93837	-735.42141	64.93837
98300.00000	60.65649	-739.23553	60.65649
98350.00000	61.91415	-735.33877	61.91415
98400.00000	63.82180	-740.26013	63.82180
98450.00000	64.18870	-725.21477	64.18870
98500.00000	64.56619	-742.43777	64.56619
98550.00000	63.11481	-756.82926	63.11481
98600.00000	63.05211	-763.12747	63.05211
98650.00000	61.20021	-714.35955	61.20021
98700.00000	60.32572	-758.24666	60.32572
98750.00000	61.06314	-745.22570	61.06314
98800.00000	61.47471	-732.08844	61.47471
98850.00000	61.04197	-743.38213	61.04197
98900.00000	62.15115	-752.90089	62.15115
98950.00000	60.66971	-768.43700	60.66971
99000.00000	61.67076	-770.03122	61.67076
99050.00000	61.08861	-793.73242	61.08861
99100.00000	59.73641	-749.11743	59.73641
99150.00000	61.25478	-771.58021	61.25478
99200.00000	61.33261	-804.79312	61.33261
99250.00000	60.70404	-796.06452	60.70404
99300.00000	58.23581	-800.17963	58.23581
99350.00000	60.39807	-804.48913	60.39807
99400.00000	59.51018	-807.40995	59.51018
99450.00000	59.72832	-827.70411	59.72832
99500.00000	55.56827	-821.18695	55.56827
99550.00000	60.97645	-851.40812	60.97645
99600.00000	57.70853	-845.18268	57.70853
99650.00000	61.87866	-861.03463	61.87866
99700.00000	60.02961	-853.11701	60.02961
99750.00000	57.18599	-857.07188	57.18599
99800.00000	57.77685	-853.98226	57.77685
99850.00000	61.32327	-878.42845	61.32327
99900.00000	60.55782	-882.31554	60.55782
99950.00000	59.80081	-917.92885	59.80081
