---ACOUSTIC CALIBRATION---
Filename: C:\Data\CL0809 DATA\CL08092\RightPrimary.calib
Date: 8/9/2019 10:57:50 AM
Format: 4
Probe Tube Correction File: C:\Data\Probe Tube Calibrations\74_ProbeTube.calib
Experiment VIs: 2128
EPL_CFTS.exe V15.0.1f5 (2015)
DAQmx V15.1

Attenuation (dB): 40.000000
Min Freq (Hz): 50.000000
Max Freq (Hz): 99950.000000
Freq Step (Hz): 50.000000
Sample Rate (Hz): 200000.000000
[Smoothing]
Method=None
MA.Iterations=0
MA.Length=0
Loess.Length=0
Loess.Type=Linear
Loess.Robust=FALSE


Freq(Hz)	Mag(dB)	Phase(deg)	Unsmoothed(dB)

50.00000	94.35418	179.04381	94.35418
100.00000	72.58482	285.96491	72.58482
150.00000	65.97211	435.81563	65.97211
200.00000	67.88140	513.97568	67.88140
250.00000	52.08074	746.29795	52.08074
300.00000	64.70073	821.45145	64.70073
350.00000	65.37940	983.26722	65.37940
400.00000	64.07884	1042.75563	64.07884
450.00000	67.87140	1078.14102	67.87140
500.00000	72.53136	1194.60117	72.53136
550.00000	77.00220	1137.14714	77.00220
600.00000	76.89763	1092.95468	76.89763
650.00000	83.02227	1084.29587	83.02227
700.00000	81.46443	1087.67099	81.46443
750.00000	84.72759	1057.22918	84.72759
800.00000	85.11140	1048.69195	85.11140
850.00000	83.62948	1050.42164	83.62948
900.00000	84.20478	1060.92920	84.20478
950.00000	87.56442	1062.51913	87.56442
1000.00000	89.80856	1065.66290	89.80856
1050.00000	92.97519	1056.84077	92.97519
1100.00000	95.58952	1043.05402	95.58952
1150.00000	96.99983	1027.86020	96.99983
1200.00000	97.63295	1016.23845	97.63295
1250.00000	98.13843	1008.32406	98.13843
1300.00000	99.42862	1002.92156	99.42862
1350.00000	100.84849	991.71673	100.84849
1400.00000	101.53404	978.45734	101.53404
1450.00000	101.60677	966.65719	101.60677
1500.00000	101.66948	958.85575	101.66948
1550.00000	101.79141	950.42514	101.79141
1600.00000	102.22822	945.97532	102.22822
1650.00000	102.71914	942.19696	102.71914
1700.00000	106.35276	926.30466	106.35276
1750.00000	103.11200	906.79452	103.11200
1800.00000	102.67810	902.48976	102.67810
1850.00000	102.31421	895.45664	102.31421
1900.00000	102.01637	888.90248	102.01637
1950.00000	101.24546	885.15921	101.24546
2000.00000	100.78309	883.65177	100.78309
2050.00000	101.07729	883.44137	101.07729
2100.00000	101.71984	878.78810	101.71984
2150.00000	102.10512	870.50552	102.10512
2200.00000	101.84290	859.92670	101.84290
2250.00000	100.91738	854.54415	100.91738
2300.00000	100.65309	853.36146	100.65309
2350.00000	100.70795	847.88203	100.70795
2400.00000	100.68603	842.16460	100.68603
2450.00000	100.17391	834.47848	100.17391
2500.00000	99.29973	831.55693	99.29973
2550.00000	99.00213	828.67265	99.00213
2600.00000	98.63252	825.28754	98.63252
2650.00000	98.19195	822.55434	98.19195
2700.00000	97.81096	819.20661	97.81096
2750.00000	97.35399	816.68692	97.35399
2800.00000	96.92643	813.56861	96.92643
2850.00000	96.51308	811.43176	96.51308
2900.00000	96.12713	809.65038	96.12713
2950.00000	95.76695	808.03506	95.76695
3000.00000	95.42516	806.79013	95.42516
3050.00000	95.19842	805.37507	95.19842
3100.00000	94.99152	803.19380	94.99152
3150.00000	94.56220	800.79043	94.56220
3200.00000	94.22742	798.49366	94.22742
3250.00000	93.91567	796.55656	93.91567
3300.00000	93.35157	794.46822	93.35157
3350.00000	92.98662	793.51888	92.98662
3400.00000	92.48170	791.59748	92.48170
3450.00000	91.99412	792.01171	91.99412
3500.00000	91.45301	791.35194	91.45301
3550.00000	91.26797	789.18516	91.26797
3600.00000	90.29248	785.38784	90.29248
3650.00000	89.19669	786.41388	89.19669
3700.00000	87.82056	787.55632	87.82056
3750.00000	86.44825	789.91151	86.44825
3800.00000	85.14180	798.30802	85.14180
3850.00000	83.74577	805.18412	83.74577
3900.00000	83.10594	820.68081	83.10594
3950.00000	82.96418	841.88388	82.96418
4000.00000	84.64558	861.82680	84.64558
4050.00000	86.47706	871.91846	86.47706
4100.00000	88.75318	878.11038	88.75318
4150.00000	91.51613	879.51600	91.51613
4200.00000	93.49125	878.56593	93.49125
4250.00000	94.45610	869.75426	94.45610
4300.00000	95.45303	870.24342	95.45303
4350.00000	96.72168	868.85764	96.72168
4400.00000	97.94036	865.50326	97.94036
4450.00000	98.89962	860.46409	98.89962
4500.00000	99.80458	855.43302	99.80458
4550.00000	100.31522	850.67838	100.31522
4600.00000	100.70104	846.79924	100.70104
4650.00000	101.09426	845.58210	101.09426
4700.00000	101.73456	845.26506	101.73456
4750.00000	102.60191	844.52685	102.60191
4800.00000	103.62825	843.28216	103.62825
4850.00000	104.74620	840.82112	104.74620
4900.00000	105.90991	836.81294	105.90991
4950.00000	107.04142	832.60564	107.04142
5000.00000	108.22649	827.70104	108.22649
5050.00000	109.54733	822.16425	109.54733
5100.00000	111.07129	815.40011	111.07129
5150.00000	112.92370	806.42338	112.92370
5200.00000	115.33133	791.63184	115.33133
5250.00000	117.81999	760.92314	117.81999
5300.00000	116.08295	712.59104	116.08295
5350.00000	110.05128	689.51926	110.05128
5400.00000	104.70398	694.74088	104.70398
5450.00000	102.42188	709.35993	102.42188
5500.00000	100.87258	715.08326	100.87258
5550.00000	98.54561	728.61867	98.54561
5600.00000	98.43084	753.07601	98.43084
5650.00000	100.55992	767.65905	100.55992
5700.00000	102.74961	770.39521	102.74961
5750.00000	104.38797	767.43960	104.38797
5800.00000	105.36423	762.72777	105.36423
5850.00000	105.82828	758.33234	105.82828
5900.00000	106.08296	755.60404	106.08296
5950.00000	106.39078	754.65259	106.39078
6000.00000	106.84720	754.44486	106.84720
6050.00000	107.46129	753.95334	107.46129
6100.00000	108.17350	753.12614	108.17350
6150.00000	108.94425	751.65956	108.94425
6200.00000	109.78201	750.01313	109.78201
6250.00000	110.68379	747.59373	110.68379
6300.00000	111.64024	744.57391	111.64024
6350.00000	112.64208	740.84332	112.64208
6400.00000	113.67806	736.34261	113.67806
6450.00000	114.74166	730.78856	114.74166
6500.00000	115.79296	724.06536	115.79296
6550.00000	116.81713	716.03539	116.81713
6600.00000	117.70422	706.64679	117.70422
6650.00000	118.40350	696.22576	118.40350
6700.00000	118.88503	685.22771	118.88503
6750.00000	119.14964	674.07605	119.14964
6800.00000	119.21404	663.00744	119.21404
6850.00000	119.08646	652.24951	119.08646
6900.00000	118.78091	642.16069	118.78091
6950.00000	118.35565	633.01426	118.35565
7000.00000	117.86609	624.79094	117.86609
7050.00000	117.36469	617.47985	117.36469
7100.00000	116.86122	610.72375	116.86122
7150.00000	116.38168	604.47868	116.38168
7200.00000	115.92241	598.62298	115.92241
7250.00000	115.49325	592.99548	115.49325
7300.00000	115.07713	587.36352	115.07713
7350.00000	114.65449	581.71030	114.65449
7400.00000	114.20558	576.11840	114.20558
7450.00000	113.71551	570.64288	113.71551
7500.00000	113.19213	565.36047	113.19213
7550.00000	112.64406	560.22297	112.64406
7600.00000	112.06291	555.39889	112.06291
7650.00000	111.45793	550.82697	111.45793
7700.00000	110.82736	546.67730	110.82736
7750.00000	110.19884	542.76727	110.19884
7800.00000	109.56194	539.36426	109.56194
7850.00000	108.93065	536.14004	108.93065
7900.00000	108.31852	533.19575	108.31852
7950.00000	107.69952	530.66498	107.69952
8000.00000	107.09696	528.41387	107.09696
8050.00000	106.51664	526.43743	106.51664
8100.00000	105.95314	524.65266	105.95314
8150.00000	105.43115	523.05772	105.43115
8200.00000	104.90940	521.69628	104.90940
8250.00000	104.42332	520.50214	104.42332
8300.00000	103.97002	519.35753	103.97002
8350.00000	103.53213	518.41804	103.53213
8400.00000	103.13113	517.68392	103.13113
8450.00000	102.74660	516.90775	102.74660
8500.00000	102.38543	516.23522	102.38543
8550.00000	102.04890	515.78081	102.04890
8600.00000	101.75551	515.36959	101.75551
8650.00000	101.47986	515.04202	101.47986
8700.00000	101.23097	514.70949	101.23097
8750.00000	101.00252	514.38874	101.00252
8800.00000	100.84618	514.02463	100.84618
8850.00000	100.69894	513.44923	100.69894
8900.00000	100.53013	513.21258	100.53013
8950.00000	100.43465	512.91875	100.43465
9000.00000	100.32047	512.38480	100.32047
9050.00000	100.26328	511.69424	100.26328
9100.00000	100.20893	511.26748	100.20893
9150.00000	100.18011	510.63292	100.18011
9200.00000	100.17181	509.87269	100.17181
9250.00000	100.12657	509.11760	100.12657
9300.00000	100.17591	508.22394	100.17591
9350.00000	100.20723	507.03918	100.20723
9400.00000	100.21856	505.91579	100.21856
9450.00000	100.29536	504.84421	100.29536
9500.00000	100.34533	503.36214	100.34533
9550.00000	100.40713	502.03059	100.40713
9600.00000	100.46518	500.51552	100.46518
9650.00000	100.53458	498.84671	100.53458
9700.00000	100.55384	496.95289	100.55384
9750.00000	100.54492	495.20244	100.54492
9800.00000	100.54178	493.32852	100.54178
9850.00000	100.43056	491.34136	100.43056
9900.00000	100.28406	490.45645	100.28406
9950.00000	100.05656	490.54928	100.05656
10000.00000	100.17020	493.30157	100.17020
10050.00000	100.91854	494.59179	100.91854
10100.00000	101.71430	491.36422	101.71430
10150.00000	102.08047	486.73891	102.08047
10200.00000	102.29306	482.65278	102.29306
10250.00000	102.40531	479.05461	102.40531
10300.00000	102.52522	475.44958	102.52522
10350.00000	102.63798	472.09351	102.63798
10400.00000	102.70070	468.65232	102.70070
10450.00000	102.79443	465.14014	102.79443
10500.00000	102.90368	461.40133	102.90368
10550.00000	102.97229	457.97717	102.97229
10600.00000	103.09979	453.97406	103.09979
10650.00000	103.12708	450.25505	103.12708
10700.00000	103.16358	446.06789	103.16358
10750.00000	103.18752	442.27134	103.18752
10800.00000	103.19726	437.94833	103.19726
10850.00000	103.20432	433.85109	103.20432
10900.00000	103.18113	429.70301	103.18113
10950.00000	103.11233	425.45950	103.11233
11000.00000	103.05687	421.23294	103.05687
11050.00000	102.90461	416.93974	102.90461
11100.00000	102.80982	412.67678	102.80982
11150.00000	102.65716	408.20159	102.65716
11200.00000	102.48565	403.95470	102.48565
11250.00000	102.25027	399.38897	102.25027
11300.00000	102.02804	395.18960	102.02804
11350.00000	101.79462	390.78561	101.79462
11400.00000	101.49747	386.39270	101.49747
11450.00000	101.21767	381.99083	101.21767
11500.00000	100.93473	377.76751	100.93473
11550.00000	100.60781	373.60613	100.60781
11600.00000	100.26396	369.66858	100.26396
11650.00000	99.92263	365.65556	99.92263
11700.00000	99.58563	361.69351	99.58563
11750.00000	99.20012	358.10627	99.20012
11800.00000	98.86978	354.57945	98.86978
11850.00000	98.51574	350.76351	98.51574
11900.00000	98.07779	347.52314	98.07779
11950.00000	97.73045	344.24943	97.73045
12000.00000	97.40627	341.24392	97.40627
12050.00000	96.99692	338.24123	96.99692
12100.00000	96.53541	335.01618	96.53541
12150.00000	96.12863	331.73533	96.12863
12200.00000	95.78604	328.37098	95.78604
12250.00000	95.37484	325.16784	95.37484
12300.00000	94.86208	321.73834	94.86208
12350.00000	94.51535	318.43896	94.51535
12400.00000	94.02985	314.47493	94.02985
12450.00000	93.75288	310.76626	93.75288
12500.00000	93.41154	307.62224	93.41154
12550.00000	93.06822	304.38217	93.06822
12600.00000	92.76231	299.69723	92.76231
12650.00000	92.45414	295.79512	92.45414
12700.00000	92.10433	291.51575	92.10433
12750.00000	91.79259	287.31755	91.79259
12800.00000	91.58087	282.60003	91.58087
12850.00000	91.21203	278.48629	91.21203
12900.00000	90.92941	272.60359	90.92941
12950.00000	90.85228	266.69015	90.85228
13000.00000	90.65644	260.07954	90.65644
13050.00000	90.57858	253.62733	90.57858
13100.00000	90.58190	246.46720	90.58190
13150.00000	90.83934	239.83690	90.83934
13200.00000	91.12450	231.27316	91.12450
13250.00000	91.87305	220.69189	91.87305
13300.00000	92.72958	216.25118	92.72958
13350.00000	94.05480	209.00044	94.05480
13400.00000	95.54236	207.27676	95.54236
13450.00000	96.59292	210.79873	96.59292
13500.00000	96.73084	219.24438	96.73084
13550.00000	96.03457	220.23210	96.03457
13600.00000	94.89310	217.98359	94.89310
13650.00000	93.92224	210.40127	93.92224
13700.00000	93.32116	200.76025	93.32116
13750.00000	93.14102	187.14740	93.14102
13800.00000	93.53020	174.31500	93.53020
13850.00000	94.15119	160.66993	94.15119
13900.00000	95.00514	146.65972	95.00514
13950.00000	96.38008	134.94683	96.38008
14000.00000	98.18245	124.89145	98.18245
14050.00000	100.37102	119.45236	100.37102
14100.00000	102.77313	116.96426	102.77313
14150.00000	104.46200	124.69816	104.46200
14200.00000	104.73484	134.43955	104.73484
14250.00000	103.76287	140.87057	103.76287
14300.00000	102.51627	140.00492	102.51627
14350.00000	101.51406	133.63363	101.51406
14400.00000	100.92228	126.33661	100.92228
14450.00000	100.50555	117.13340	100.50555
14500.00000	100.39046	107.39802	100.39046
14550.00000	100.63728	96.90645	100.63728
14600.00000	100.92407	88.45319	100.92407
14650.00000	101.49678	79.43821	101.49678
14700.00000	102.26507	70.19746	102.26507
14750.00000	103.11894	62.77164	103.11894
14800.00000	104.05103	57.34722	104.05103
14850.00000	105.09514	53.03769	105.09514
14900.00000	106.07239	50.94468	106.07239
14950.00000	106.58693	51.10882	106.58693
15000.00000	106.72870	51.43427	106.72870
15050.00000	106.52721	51.81831	106.52721
15100.00000	106.09607	49.55972	106.09607
15150.00000	105.60064	45.35686	105.60064
15200.00000	105.23481	40.38025	105.23481
15250.00000	104.82568	34.66950	104.82568
15300.00000	104.57190	27.97692	104.57190
15350.00000	104.57281	21.62323	104.57281
15400.00000	104.59029	14.79090	104.59029
15450.00000	104.70681	 8.34423	104.70681
15500.00000	104.99843	 3.17655	104.99843
15550.00000	105.28033	-1.03594	105.28033
15600.00000	105.64690	-4.31207	105.64690
15650.00000	105.95276	-6.64085	105.95276
15700.00000	105.98914	-7.69837	105.98914
15750.00000	106.11413	-8.77639	106.11413
15800.00000	105.95605	-10.05439	105.95605
15850.00000	105.84067	-11.13312	105.84067
15900.00000	105.54781	-13.76612	105.54781
15950.00000	105.30755	-16.70741	105.30755
16000.00000	105.12823	-20.05342	105.12823
16050.00000	105.11966	-23.64998	105.11966
16100.00000	105.06280	-27.06420	105.06280
16150.00000	105.16485	-31.08566	105.16485
16200.00000	105.31488	-34.24817	105.31488
16250.00000	105.46900	-37.68897	105.46900
16300.00000	105.67034	-40.47401	105.67034
16350.00000	105.90039	-42.68231	105.90039
16400.00000	106.02692	-44.33165	106.02692
16450.00000	106.18899	-46.00520	106.18899
16500.00000	106.20559	-48.19445	106.20559
16550.00000	106.22080	-50.12853	106.22080
16600.00000	106.24028	-52.48170	106.24028
16650.00000	106.19429	-55.21522	106.19429
16700.00000	106.24019	-58.16750	106.24019
16750.00000	106.24046	-61.31872	106.24046
16800.00000	106.29164	-64.32261	106.29164
16850.00000	106.41803	-67.75549	106.41803
16900.00000	106.53401	-70.48883	106.53401
16950.00000	106.63462	-73.28544	106.63462
17000.00000	106.78854	-75.76565	106.78854
17050.00000	106.89869	-77.98641	106.89869
17100.00000	107.01427	-80.25783	107.01427
17150.00000	107.06480	-82.63361	107.06480
17200.00000	107.06408	-84.95739	107.06408
17250.00000	107.12250	-87.83628	107.12250
17300.00000	107.17969	-90.49913	107.17969
17350.00000	107.22094	-93.34328	107.22094
17400.00000	107.27299	-96.51763	107.27299
17450.00000	107.36142	-99.26193	107.36142
17500.00000	107.41026	-102.06771	107.41026
17550.00000	107.49629	-105.14224	107.49629
17600.00000	107.62393	-107.83184	107.62393
17650.00000	107.72048	-110.51263	107.72048
17700.00000	107.82178	-113.27743	107.82178
17750.00000	107.91079	-115.79907	107.91079
17800.00000	107.97008	-118.56194	107.97008
17850.00000	108.04996	-121.26722	108.04996
17900.00000	108.11542	-124.05942	108.11542
17950.00000	108.15780	-127.03366	108.15780
18000.00000	108.22469	-130.13104	108.22469
18050.00000	108.27333	-133.10500	108.27333
18100.00000	108.32866	-136.17922	108.32866
18150.00000	108.38378	-139.31220	108.38378
18200.00000	108.42307	-142.43876	108.42307
18250.00000	108.45736	-145.61455	108.45736
18300.00000	108.47955	-148.76095	108.47955
18350.00000	108.49416	-151.89943	108.49416
18400.00000	108.49385	-154.99018	108.49385
18450.00000	108.49192	-158.04996	108.49192
18500.00000	108.50285	-161.02329	108.50285
18550.00000	108.47662	-164.25593	108.47662
18600.00000	108.43870	-167.23161	108.43870
18650.00000	108.44059	-170.23593	108.44059
18700.00000	108.41454	-173.11820	108.41454
18750.00000	108.35653	-176.02879	108.35653
18800.00000	108.29155	-178.87790	108.29155
18850.00000	108.25457	-181.72827	108.25457
18900.00000	108.15550	-184.44157	108.15550
18950.00000	108.10262	-187.23147	108.10262
19000.00000	108.00788	-189.94311	108.00788
19050.00000	107.94094	-192.70634	107.94094
19100.00000	107.87244	-195.38296	107.87244
19150.00000	107.82751	-197.63992	107.82751
19200.00000	107.78349	-200.36513	107.78349
19250.00000	107.69453	-202.58712	107.69453
19300.00000	107.65993	-204.98880	107.65993
19350.00000	107.62818	-207.48909	107.62818
19400.00000	107.54159	-209.70980	107.54159
19450.00000	107.49862	-212.26049	107.49862
19500.00000	107.45733	-214.41671	107.45733
19550.00000	107.43466	-216.75261	107.43466
19600.00000	107.38280	-219.00723	107.38280
19650.00000	107.34617	-221.25303	107.34617
19700.00000	107.32587	-223.64947	107.32587
19750.00000	107.29345	-225.86568	107.29345
19800.00000	107.28582	-227.81132	107.28582
19850.00000	107.24248	-230.38490	107.24248
19900.00000	107.23298	-232.65421	107.23298
19950.00000	107.21546	-234.78273	107.21546
20000.00000	107.17933	-237.36434	107.17933
20050.00000	107.15266	-239.54351	107.15266
20100.00000	107.16172	-241.86063	107.16172
20150.00000	107.13135	-244.41234	107.13135
20200.00000	107.14443	-246.62180	107.14443
20250.00000	107.12417	-248.80059	107.12417
20300.00000	107.10650	-251.07732	107.10650
20350.00000	107.09963	-253.38453	107.09963
20400.00000	107.09370	-255.65775	107.09370
20450.00000	107.06613	-257.89746	107.06613
20500.00000	107.05301	-260.26064	107.05301
20550.00000	107.03357	-262.69761	107.03357
20600.00000	107.01625	-264.89260	107.01625
20650.00000	107.03061	-267.42416	107.03061
20700.00000	107.01379	-269.47580	107.01379
20750.00000	106.97961	-271.83109	106.97961
20800.00000	106.96857	-274.09974	106.96857
20850.00000	106.94440	-276.51056	106.94440
20900.00000	106.91540	-278.75571	106.91540
20950.00000	106.92847	-281.15342	106.92847
21000.00000	106.93814	-283.67846	106.93814
21050.00000	106.94375	-285.99078	106.94375
21100.00000	106.93303	-288.50372	106.93303
21150.00000	106.94801	-290.59153	106.94801
21200.00000	106.90949	-292.90502	106.90949
21250.00000	106.87569	-295.35205	106.87569
21300.00000	106.85579	-297.72252	106.85579
21350.00000	106.84062	-300.24478	106.84062
21400.00000	106.80342	-302.87441	106.80342
21450.00000	106.84425	-305.21806	106.84425
21500.00000	106.86163	-307.23770	106.86163
21550.00000	106.85966	-309.80780	106.85966
21600.00000	106.83208	-312.37272	106.83208
21650.00000	106.82087	-314.61050	106.82087
21700.00000	106.78402	-317.33288	106.78402
21750.00000	106.77258	-319.98837	106.77258
21800.00000	106.70387	-322.83463	106.70387
21850.00000	106.72145	-325.26235	106.72145
21900.00000	106.68714	-327.89566	106.68714
21950.00000	106.64386	-330.34720	106.64386
22000.00000	106.52263	-333.05858	106.52263
22050.00000	106.46983	-335.32571	106.46983
22100.00000	106.42347	-337.62455	106.42347
22150.00000	106.35944	-340.08579	106.35944
22200.00000	106.30671	-342.57889	106.30671
22250.00000	106.27890	-344.99628	106.27890
22300.00000	106.22566	-347.46581	106.22566
22350.00000	106.10353	-350.06349	106.10353
22400.00000	106.05186	-352.68524	106.05186
22450.00000	105.96058	-355.04572	105.96058
22500.00000	105.83872	-357.53579	105.83872
22550.00000	105.79910	-359.70903	105.79910
22600.00000	105.67429	-361.96328	105.67429
22650.00000	105.59085	-364.02747	105.59085
22700.00000	105.45703	-366.00733	105.45703
22750.00000	105.38301	-368.40887	105.38301
22800.00000	105.29530	-370.70092	105.29530
22850.00000	105.18378	-372.76153	105.18378
22900.00000	105.11928	-374.56756	105.11928
22950.00000	105.08229	-376.67023	105.08229
23000.00000	104.99462	-378.58353	104.99462
23050.00000	104.89116	-380.84600	104.89116
23100.00000	104.83265	-382.61501	104.83265
23150.00000	104.72728	-384.68183	104.72728
23200.00000	104.65146	-386.91848	104.65146
23250.00000	104.61305	-388.99718	104.61305
23300.00000	104.60397	-391.08786	104.60397
23350.00000	104.45234	-392.77682	104.45234
23400.00000	104.39321	-394.53122	104.39321
23450.00000	104.34960	-396.28587	104.34960
23500.00000	104.30095	-398.06169	104.30095
23550.00000	104.20060	-399.98569	104.20060
23600.00000	104.18414	-401.87809	104.18414
23650.00000	104.05208	-403.66624	104.05208
23700.00000	104.07365	-405.21734	104.07365
23750.00000	104.01041	-407.24075	104.01041
23800.00000	103.96467	-409.04543	103.96467
23850.00000	103.94382	-410.88615	103.94382
23900.00000	103.89262	-412.80145	103.89262
23950.00000	103.82344	-414.50326	103.82344
24000.00000	103.89209	-416.48374	103.89209
24050.00000	103.78023	-418.31096	103.78023
24100.00000	103.78681	-420.26542	103.78681
24150.00000	103.71827	-422.03853	103.71827
24200.00000	103.75213	-424.33862	103.75213
24250.00000	103.75272	-425.82405	103.75272
24300.00000	103.72891	-428.09121	103.72891
24350.00000	103.72574	-429.59775	103.72574
24400.00000	103.76273	-431.70503	103.76273
24450.00000	103.67239	-432.85294	103.67239
24500.00000	103.62652	-435.73017	103.62652
24550.00000	103.61668	-438.09069	103.61668
24600.00000	103.64036	-439.99039	103.64036
24650.00000	103.60514	-442.10709	103.60514
24700.00000	103.60204	-444.22378	103.60204
24750.00000	103.60193	-446.53905	103.60193
24800.00000	103.54445	-448.37678	103.54445
24850.00000	103.55570	-450.52977	103.55570
24900.00000	103.45280	-452.64394	103.45280
24950.00000	103.50506	-454.82430	103.50506
25000.00000	103.41467	-457.31095	103.41467
25050.00000	103.41102	-458.87718	103.41102
25100.00000	103.38003	-460.65239	103.38003
25150.00000	103.27767	-462.69963	103.27767
25200.00000	103.29049	-464.95145	103.29049
25250.00000	103.17562	-467.26746	103.17562
25300.00000	103.09335	-469.47863	103.09335
25350.00000	103.10630	-471.69426	103.10630
25400.00000	103.04553	-473.74103	103.04553
25450.00000	103.05470	-476.36443	103.05470
25500.00000	102.93885	-477.99949	102.93885
25550.00000	102.86234	-480.18472	102.86234
25600.00000	102.77918	-481.85260	102.77918
25650.00000	102.67150	-484.52463	102.67150
25700.00000	102.61928	-486.21497	102.61928
25750.00000	102.56046	-488.73098	102.56046
25800.00000	102.45990	-490.16246	102.45990
25850.00000	102.37416	-492.23507	102.37416
25900.00000	102.23275	-494.26753	102.23275
25950.00000	102.15266	-495.94043	102.15266
26000.00000	102.05916	-497.65412	102.05916
26050.00000	102.03728	-499.96674	102.03728
26100.00000	101.94871	-501.41817	101.94871
26150.00000	101.82568	-503.79373	101.82568
26200.00000	101.68144	-504.76792	101.68144
26250.00000	101.64197	-506.57696	101.64197
26300.00000	101.49655	-508.58274	101.49655
26350.00000	101.46152	-509.97632	101.46152
26400.00000	101.43184	-511.85758	101.43184
26450.00000	101.27706	-513.93648	101.27706
26500.00000	101.23202	-515.11609	101.23202
26550.00000	101.15994	-515.93197	101.15994
26600.00000	101.05897	-517.54403	101.05897
26650.00000	101.01574	-519.67799	101.01574
26700.00000	100.97287	-520.82617	100.97287
26750.00000	100.87496	-522.21153	100.87496
26800.00000	100.80637	-523.64007	100.80637
26850.00000	100.75135	-524.88917	100.75135
26900.00000	100.69031	-526.58694	100.69031
26950.00000	100.58281	-527.74103	100.58281
27000.00000	100.55097	-529.30056	100.55097
27050.00000	100.55207	-530.41118	100.55207
27100.00000	100.50966	-531.91819	100.50966
27150.00000	100.45010	-533.32993	100.45010
27200.00000	100.48624	-535.07358	100.48624
27250.00000	100.41721	-536.16758	100.41721
27300.00000	100.39292	-537.42360	100.39292
27350.00000	100.35037	-538.94247	100.35037
27400.00000	100.34227	-540.00449	100.34227
27450.00000	100.42484	-541.71181	100.42484
27500.00000	100.31193	-542.96490	100.31193
27550.00000	100.30419	-544.25427	100.30419
27600.00000	100.34063	-545.74991	100.34063
27650.00000	100.28307	-547.18150	100.28307
27700.00000	100.28255	-548.83413	100.28255
27750.00000	100.25049	-550.10002	100.25049
27800.00000	100.22531	-551.75381	100.22531
27850.00000	100.25342	-552.93174	100.25342
27900.00000	100.24811	-554.48227	100.24811
27950.00000	100.19995	-555.20619	100.19995
28000.00000	100.20450	-556.72273	100.20450
28050.00000	100.17935	-558.14731	100.17935
28100.00000	100.15262	-559.23365	100.15262
28150.00000	100.15750	-560.77302	100.15750
28200.00000	100.18970	-561.86945	100.18970
28250.00000	100.16038	-563.11559	100.16038
28300.00000	100.13918	-564.71693	100.13918
28350.00000	100.19621	-565.53205	100.19621
28400.00000	100.16753	-566.88643	100.16753
28450.00000	100.17326	-568.06831	100.17326
28500.00000	100.22935	-569.34921	100.22935
28550.00000	100.25819	-570.63755	100.25819
28600.00000	100.36812	-571.89731	100.36812
28650.00000	100.36814	-572.98717	100.36814
28700.00000	100.37036	-574.16185	100.37036
28750.00000	100.43747	-575.36444	100.43747
28800.00000	100.40106	-577.20570	100.40106
28850.00000	100.47335	-578.40374	100.47335
28900.00000	100.51498	-579.79641	100.51498
28950.00000	100.53331	-581.07184	100.53331
29000.00000	100.67145	-582.00830	100.67145
29050.00000	100.70131	-583.38522	100.70131
29100.00000	100.70316	-584.47460	100.70316
29150.00000	100.75916	-586.57759	100.75916
29200.00000	100.91080	-587.40922	100.91080
29250.00000	100.85887	-588.55585	100.85887
29300.00000	100.95167	-590.09642	100.95167
29350.00000	101.00938	-591.22698	101.00938
29400.00000	101.05459	-592.52191	101.05459
29450.00000	101.16180	-594.12908	101.16180
29500.00000	101.24840	-595.77035	101.24840
29550.00000	101.35115	-596.66632	101.35115
29600.00000	101.39115	-598.27942	101.39115
29650.00000	101.45825	-599.60173	101.45825
29700.00000	101.54417	-600.83235	101.54417
29750.00000	101.62442	-602.27088	101.62442
29800.00000	101.66947	-603.66053	101.66947
29850.00000	101.79932	-605.08464	101.79932
29900.00000	101.87228	-606.44881	101.87228
29950.00000	101.93415	-607.53077	101.93415
30000.00000	102.02553	-609.22849	102.02553
30050.00000	102.10561	-610.42322	102.10561
30100.00000	102.21175	-611.79994	102.21175
30150.00000	102.28111	-613.21115	102.28111
30200.00000	102.39240	-614.65550	102.39240
30250.00000	102.47977	-616.05489	102.47977
30300.00000	102.58214	-617.60339	102.58214
30350.00000	102.72603	-618.83561	102.72603
30400.00000	102.80550	-620.29092	102.80550
30450.00000	102.92153	-621.56720	102.92153
30500.00000	103.08184	-623.09351	103.08184
30550.00000	103.15449	-624.48967	103.15449
30600.00000	103.30419	-626.12613	103.30419
30650.00000	103.42429	-627.38922	103.42429
30700.00000	103.55567	-628.93961	103.55567
30750.00000	103.65663	-630.49756	103.65663
30800.00000	103.77747	-631.84930	103.77747
30850.00000	103.90218	-633.31988	103.90218
30900.00000	104.06089	-635.08461	104.06089
30950.00000	104.17495	-636.37183	104.17495
31000.00000	104.31301	-637.92582	104.31301
31050.00000	104.46137	-639.31514	104.46137
31100.00000	104.63152	-640.87578	104.63152
31150.00000	104.76144	-642.42397	104.76144
31200.00000	104.89808	-644.18667	104.89808
31250.00000	105.08961	-645.77824	105.08961
31300.00000	105.23990	-647.39811	105.23990
31350.00000	105.41308	-648.81072	105.41308
31400.00000	105.57621	-650.42440	105.57621
31450.00000	105.74611	-652.00123	105.74611
31500.00000	105.90264	-653.91147	105.90264
31550.00000	106.08753	-655.65100	106.08753
31600.00000	106.28835	-657.61685	106.28835
31650.00000	106.46336	-659.39600	106.46336
31700.00000	106.61692	-661.11121	106.61692
31750.00000	106.80847	-662.86799	106.80847
31800.00000	106.97044	-664.89582	106.97044
31850.00000	107.15458	-666.65726	107.15458
31900.00000	107.34499	-668.61780	107.34499
31950.00000	107.53503	-670.63794	107.53503
32000.00000	107.71372	-672.62438	107.71372
32050.00000	107.89630	-674.68436	107.89630
32100.00000	108.10215	-676.64529	108.10215
32150.00000	108.26374	-678.72153	108.26374
32200.00000	108.44532	-680.79168	108.44532
32250.00000	108.65431	-682.95421	108.65431
32300.00000	108.81841	-684.93219	108.81841
32350.00000	109.01590	-687.25224	109.01590
32400.00000	109.21434	-689.47399	109.21434
32450.00000	109.40610	-691.72744	109.40610
32500.00000	109.57775	-694.02172	109.57775
32550.00000	109.76769	-696.25763	109.76769
32600.00000	109.96197	-698.59928	109.96197
32650.00000	110.15536	-700.97758	110.15536
32700.00000	110.32828	-703.26402	110.32828
32750.00000	110.50726	-705.65946	110.50726
32800.00000	110.68666	-708.07538	110.68666
32850.00000	110.89852	-710.62804	110.89852
32900.00000	111.04758	-713.03018	111.04758
32950.00000	111.25238	-715.46453	111.25238
33000.00000	111.43774	-718.11202	111.43774
33050.00000	111.60670	-720.63066	111.60670
33100.00000	111.80824	-723.33478	111.80824
33150.00000	111.97069	-725.93786	111.97069
33200.00000	112.14534	-728.62289	112.14534
33250.00000	112.28886	-731.35029	112.28886
33300.00000	112.47181	-734.00365	112.47181
33350.00000	112.66461	-736.87856	112.66461
33400.00000	112.81464	-739.78570	112.81464
33450.00000	112.97249	-742.73896	112.97249
33500.00000	113.12502	-745.43160	113.12502
33550.00000	113.27393	-748.51271	113.27393
33600.00000	113.43102	-751.39036	113.43102
33650.00000	113.55311	-754.54869	113.55311
33700.00000	113.65977	-757.59347	113.65977
33750.00000	113.78437	-760.68014	113.78437
33800.00000	113.89411	-763.79192	113.89411
33850.00000	114.00850	-766.69833	114.00850
33900.00000	114.08821	-769.92683	114.08821
33950.00000	114.19697	-772.85741	114.19697
34000.00000	114.25519	-775.81745	114.25519
34050.00000	114.32089	-778.82867	114.32089
34100.00000	114.37591	-781.82321	114.37591
34150.00000	114.44011	-784.95834	114.44011
34200.00000	114.50078	-787.82688	114.50078
34250.00000	114.53396	-790.72132	114.53396
34300.00000	114.59769	-793.60539	114.59769
34350.00000	114.64075	-796.53540	114.64075
34400.00000	114.69306	-799.33751	114.69306
34450.00000	114.71125	-802.20711	114.71125
34500.00000	114.75068	-804.87179	114.75068
34550.00000	114.78848	-807.63734	114.78848
34600.00000	114.84060	-810.41752	114.84060
34650.00000	114.88545	-813.10376	114.88545
34700.00000	114.92243	-815.72266	114.92243
34750.00000	114.98615	-818.58392	114.98615
34800.00000	115.04126	-821.39772	115.04126
34850.00000	115.10431	-824.34146	115.10431
34900.00000	115.12858	-827.30309	115.12858
34950.00000	115.10894	-830.36695	115.10894
35000.00000	115.03127	-833.04707	115.03127
35050.00000	114.96485	-835.46289	114.96485
35100.00000	114.93176	-837.33203	114.93176
35150.00000	114.97784	-839.10130	114.97784
35200.00000	115.08470	-841.15216	115.08470
35250.00000	115.17797	-843.45973	115.17797
35300.00000	115.27177	-845.84531	115.27177
35350.00000	115.37195	-848.32180	115.37195
35400.00000	115.48080	-850.93131	115.48080
35450.00000	115.57167	-853.58530	115.57167
35500.00000	115.67307	-856.25985	115.67307
35550.00000	115.74309	-858.95179	115.74309
35600.00000	115.83426	-861.77362	115.83426
35650.00000	115.91181	-864.52268	115.91181
35700.00000	115.98464	-867.38911	115.98464
35750.00000	116.05031	-870.15167	116.05031
35800.00000	116.11925	-873.00082	116.11925
35850.00000	116.18236	-875.88360	116.18236
35900.00000	116.23890	-878.66594	116.23890
35950.00000	116.27923	-881.56274	116.27923
36000.00000	116.34701	-884.42462	116.34701
36050.00000	116.37567	-887.29679	116.37567
36100.00000	116.40680	-890.18403	116.40680
36150.00000	116.44338	-893.07202	116.44338
36200.00000	116.47043	-896.00402	116.47043
36250.00000	116.49764	-898.78792	116.49764
36300.00000	116.51711	-901.61516	116.51711
36350.00000	116.53999	-904.50950	116.53999
36400.00000	116.55773	-907.37957	116.55773
36450.00000	116.57841	-910.25268	116.57841
36500.00000	116.58996	-913.11786	116.58996
36550.00000	116.60709	-915.93322	116.60709
36600.00000	116.60727	-918.76736	116.60727
36650.00000	116.59084	-921.56425	116.59084
36700.00000	116.58782	-924.34580	116.58782
36750.00000	116.55769	-927.17909	116.55769
36800.00000	116.55303	-930.03406	116.55303
36850.00000	116.52216	-932.77305	116.52216
36900.00000	116.47128	-935.51447	116.47128
36950.00000	116.41624	-938.23467	116.41624
37000.00000	116.37667	-940.85445	116.37667
37050.00000	116.31557	-943.38730	116.31557
37100.00000	116.25225	-945.97318	116.25225
37150.00000	116.17061	-948.29535	116.17061
37200.00000	116.09840	-950.48233	116.09840
37250.00000	116.00394	-952.68399	116.00394
37300.00000	115.91534	-954.71577	115.91534
37350.00000	115.85471	-956.55706	115.85471
37400.00000	115.77687	-958.27565	115.77687
37450.00000	115.70395	-959.70532	115.70395
37500.00000	115.66687	-960.96206	115.66687
37550.00000	115.65592	-962.18098	115.65592
37600.00000	115.68716	-963.18499	115.68716
37650.00000	115.75234	-964.02735	115.75234
37700.00000	115.86268	-964.78096	115.86268
37750.00000	116.02322	-965.58785	116.02322
37800.00000	116.23031	-966.45396	116.23031
37850.00000	116.51911	-967.49765	116.51911
37900.00000	116.83613	-968.91008	116.83613
37950.00000	117.19016	-970.52532	117.19016
38000.00000	117.58266	-972.46634	117.58266
38050.00000	117.96076	-975.04629	117.96076
38100.00000	118.34751	-977.83964	118.34751
38150.00000	118.70768	-980.99676	118.70768
38200.00000	119.05909	-984.44990	119.05909
38250.00000	119.36552	-988.06266	119.36552
38300.00000	119.65751	-991.89455	119.65751
38350.00000	119.91133	-995.84956	119.91133
38400.00000	120.13959	-999.88835	120.13959
38450.00000	120.34050	-1003.96765	120.34050
38500.00000	120.52185	-1008.00392	120.52185
38550.00000	120.67350	-1012.23796	120.67350
38600.00000	120.80918	-1016.38401	120.80918
38650.00000	120.93418	-1020.56672	120.93418
38700.00000	121.03887	-1024.69507	121.03887
38750.00000	121.13509	-1028.79223	121.13509
38800.00000	121.20440	-1032.87473	121.20440
38850.00000	121.27479	-1037.07353	121.27479
38900.00000	121.33419	-1041.21113	121.33419
38950.00000	121.38597	-1045.32860	121.38597
39000.00000	121.42707	-1049.45502	121.42707
39050.00000	121.45262	-1053.68847	121.45262
39100.00000	121.46699	-1057.89503	121.46699
39150.00000	121.45883	-1062.07954	121.45883
39200.00000	121.44558	-1066.27039	121.44558
39250.00000	121.41951	-1070.33648	121.41951
39300.00000	121.37561	-1074.41066	121.37561
39350.00000	121.34062	-1078.46523	121.34062
39400.00000	121.30466	-1082.52943	121.30466
39450.00000	121.26798	-1086.55058	121.26798
39500.00000	121.20849	-1090.63544	121.20849
39550.00000	121.15493	-1094.74459	121.15493
39600.00000	121.07593	-1098.98639	121.07593
39650.00000	120.98675	-1103.18076	120.98675
39700.00000	120.87965	-1107.41909	120.87965
39750.00000	120.74234	-1111.50006	120.74234
39800.00000	120.58472	-1115.60449	120.58472
39850.00000	120.41901	-1119.67093	120.41901
39900.00000	120.23261	-1123.59390	120.23261
39950.00000	120.04657	-1127.43813	120.04657
40000.00000	119.85233	-1131.22189	119.85233
40050.00000	119.63420	-1134.91003	119.63420
40100.00000	119.42346	-1138.49484	119.42346
40150.00000	119.20954	-1142.03234	119.20954
40200.00000	118.97826	-1145.46434	118.97826
40250.00000	118.76725	-1148.76689	118.76725
40300.00000	118.52110	-1152.04069	118.52110
40350.00000	118.29280	-1155.19105	118.29280
40400.00000	118.05306	-1158.37742	118.05306
40450.00000	117.81984	-1161.41569	117.81984
40500.00000	117.57289	-1164.40196	117.57289
40550.00000	117.31849	-1167.40204	117.31849
40600.00000	117.08636	-1170.11150	117.08636
40650.00000	116.83115	-1172.90051	116.83115
40700.00000	116.58354	-1175.63678	116.58354
40750.00000	116.34028	-1178.21205	116.34028
40800.00000	116.10212	-1180.77978	116.10212
40850.00000	115.85112	-1183.27036	115.85112
40900.00000	115.62938	-1185.64846	115.62938
40950.00000	115.39055	-1187.93000	115.39055
41000.00000	115.15767	-1190.25002	115.15767
41050.00000	114.92068	-1192.39392	114.92068
41100.00000	114.70349	-1194.48798	114.70349
41150.00000	114.50944	-1196.45647	114.50944
41200.00000	114.28506	-1198.48142	114.28506
41250.00000	114.09624	-1200.32731	114.09624
41300.00000	113.88422	-1202.15415	113.88422
41350.00000	113.70634	-1203.99813	113.70634
41400.00000	113.54058	-1205.80708	113.54058
41450.00000	113.37194	-1207.42341	113.37194
41500.00000	113.19761	-1208.99529	113.19761
41550.00000	113.02674	-1210.53758	113.02674
41600.00000	112.90395	-1212.30697	112.90395
41650.00000	112.80627	-1213.74712	112.80627
41700.00000	112.68168	-1215.14876	112.68168
41750.00000	112.60770	-1216.67347	112.60770
41800.00000	112.54506	-1218.21072	112.54506
41850.00000	112.48739	-1220.02124	112.48739
41900.00000	112.45196	-1221.63770	112.45196
41950.00000	112.42258	-1223.29034	112.42258
42000.00000	112.42253	-1225.09606	112.42253
42050.00000	112.38560	-1227.06949	112.38560
42100.00000	112.37955	-1229.03281	112.37955
42150.00000	112.36977	-1231.08382	112.36977
42200.00000	112.36122	-1233.27327	112.36122
42250.00000	112.33519	-1235.24436	112.33519
42300.00000	112.31246	-1237.65168	112.31246
42350.00000	112.31373	-1239.97666	112.31373
42400.00000	112.28211	-1242.38065	112.28211
42450.00000	112.21945	-1244.78364	112.21945
42500.00000	112.15762	-1247.13755	112.15762
42550.00000	112.11183	-1249.77033	112.11183
42600.00000	112.02285	-1252.53932	112.02285
42650.00000	111.93940	-1254.88713	111.93940
42700.00000	111.81901	-1257.34351	111.81901
42750.00000	111.74991	-1260.09957	111.74991
42800.00000	111.63694	-1262.53535	111.63694
42850.00000	111.50692	-1265.02901	111.50692
42900.00000	111.37314	-1267.28014	111.37314
42950.00000	111.21608	-1269.52356	111.21608
43000.00000	111.09907	-1271.84891	111.09907
43050.00000	110.91334	-1273.89373	110.91334
43100.00000	110.77978	-1276.12088	110.77978
43150.00000	110.59671	-1277.79451	110.59671
43200.00000	110.42537	-1279.86230	110.42537
43250.00000	110.26500	-1281.55438	110.26500
43300.00000	110.11161	-1282.84562	110.11161
43350.00000	109.95546	-1284.37786	109.95546
43400.00000	109.77351	-1285.85833	109.77351
43450.00000	109.63669	-1287.16556	109.63669
43500.00000	109.47241	-1288.41968	109.47241
43550.00000	109.39072	-1289.69650	109.39072
43600.00000	109.25157	-1290.49490	109.25157
43650.00000	109.17351	-1291.60884	109.17351
43700.00000	109.07048	-1292.43356	109.07048
43750.00000	109.03725	-1293.80589	109.03725
43800.00000	109.05655	-1294.86334	109.05655
43850.00000	109.00857	-1295.13653	109.00857
43900.00000	108.97334	-1296.38252	108.97334
43950.00000	109.06254	-1297.23921	109.06254
44000.00000	109.05726	-1298.15141	109.05726
44050.00000	109.16128	-1298.60211	109.16128
44100.00000	109.21788	-1299.61912	109.21788
44150.00000	109.29454	-1300.41324	109.29454
44200.00000	109.46919	-1301.51296	109.46919
44250.00000	109.58320	-1302.71703	109.58320
44300.00000	109.73040	-1303.70147	109.73040
44350.00000	109.88765	-1304.91034	109.88765
44400.00000	110.14527	-1306.50318	110.14527
44450.00000	110.33799	-1308.05902	110.33799
44500.00000	110.53290	-1309.34872	110.53290
44550.00000	110.69084	-1311.29481	110.69084
44600.00000	110.89323	-1313.46800	110.89323
44650.00000	111.07571	-1315.65327	111.07571
44700.00000	111.29580	-1317.71131	111.29580
44750.00000	111.50654	-1319.87951	111.50654
44800.00000	111.69020	-1322.47737	111.69020
44850.00000	111.92060	-1325.40332	111.92060
44900.00000	112.02663	-1328.08381	112.02663
44950.00000	112.25810	-1330.71659	112.25810
45000.00000	112.39135	-1333.56385	112.39135
45050.00000	112.59898	-1336.68583	112.59898
45100.00000	112.70153	-1339.77317	112.70153
45150.00000	112.84001	-1342.64790	112.84001
45200.00000	112.97195	-1345.55850	112.97195
45250.00000	113.08804	-1348.67538	113.08804
45300.00000	113.11451	-1352.27566	113.11451
45350.00000	113.29138	-1354.31266	113.29138
45400.00000	113.40683	-1357.49469	113.40683
45450.00000	113.53179	-1360.66650	113.53179
45500.00000	113.55181	-1363.66758	113.55181
45550.00000	113.68908	-1366.72539	113.68908
45600.00000	113.78488	-1369.87613	113.78488
45650.00000	113.86173	-1373.29075	113.86173
45700.00000	113.93252	-1376.79022	113.93252
45750.00000	113.99295	-1380.39610	113.99295
45800.00000	114.00763	-1383.84800	114.00763
45850.00000	114.08609	-1387.49208	114.08609
45900.00000	114.02631	-1391.00788	114.02631
45950.00000	114.05178	-1394.67129	114.05178
46000.00000	114.02423	-1398.19656	114.02423
46050.00000	114.04009	-1401.46490	114.04009
46100.00000	113.99659	-1404.93413	113.99659
46150.00000	113.99306	-1408.14696	113.99306
46200.00000	113.92254	-1411.66012	113.92254
46250.00000	113.89651	-1414.79879	113.89651
46300.00000	113.81316	-1418.26758	113.81316
46350.00000	113.81424	-1421.53910	113.81424
46400.00000	113.72799	-1424.74857	113.72799
46450.00000	113.70639	-1427.84998	113.70639
46500.00000	113.61349	-1430.76916	113.61349
46550.00000	113.52654	-1433.96660	113.52654
46600.00000	113.48920	-1436.90358	113.48920
46650.00000	113.43954	-1440.04353	113.43954
46700.00000	113.41582	-1443.19320	113.41582
46750.00000	113.34642	-1446.74117	113.34642
46800.00000	113.30119	-1449.84449	113.30119
46850.00000	113.22072	-1453.58031	113.22072
46900.00000	113.10176	-1456.73874	113.10176
46950.00000	113.06704	-1459.80114	113.06704
47000.00000	112.92803	-1463.21734	112.92803
47050.00000	112.83595	-1466.72929	112.83595
47100.00000	112.80524	-1469.23239	112.80524
47150.00000	112.67651	-1472.44527	112.67651
47200.00000	112.60216	-1475.72362	112.60216
47250.00000	112.42747	-1478.90752	112.42747
47300.00000	112.33442	-1481.98360	112.33442
47350.00000	112.27133	-1485.31206	112.27133
47400.00000	112.09622	-1487.95992	112.09622
47450.00000	111.98409	-1491.53509	111.98409
47500.00000	111.83696	-1494.20337	111.83696
47550.00000	111.70741	-1497.34578	111.70741
47600.00000	111.51421	-1500.28709	111.51421
47650.00000	111.40184	-1503.31773	111.40184
47700.00000	111.24828	-1506.44191	111.24828
47750.00000	111.09198	-1509.45361	111.09198
47800.00000	110.97140	-1512.02677	110.97140
47850.00000	110.74962	-1514.70638	110.74962
47900.00000	110.71244	-1517.48533	110.71244
47950.00000	110.61879	-1520.62139	110.61879
48000.00000	110.44879	-1523.73883	110.44879
48050.00000	110.31326	-1525.74231	110.31326
48100.00000	110.13226	-1529.78136	110.13226
48150.00000	110.04157	-1532.11414	110.04157
48200.00000	109.86922	-1535.42561	109.86922
48250.00000	109.68589	-1537.91962	109.68589
48300.00000	109.56081	-1540.78760	109.56081
48350.00000	109.40416	-1543.70279	109.40416
48400.00000	109.17140	-1546.84701	109.17140
48450.00000	109.07313	-1549.57130	109.07313
48500.00000	108.90621	-1552.28403	108.90621
48550.00000	108.66003	-1555.22362	108.66003
48600.00000	108.48894	-1558.69112	108.48894
48650.00000	108.32767	-1561.14891	108.32767
48700.00000	108.12075	-1563.78665	108.12075
48750.00000	107.95846	-1567.49429	107.95846
48800.00000	107.64871	-1569.78051	107.64871
48850.00000	107.30018	-1573.43236	107.30018
48900.00000	107.27469	-1576.46775	107.27469
48950.00000	106.74530	-1578.49775	106.74530
49000.00000	106.48331	-1581.42840	106.48331
49050.00000	106.18014	-1584.30489	106.18014
49100.00000	105.85586	-1586.17770	105.85586
49150.00000	105.61124	-1588.83498	105.61124
49200.00000	105.12379	-1589.50185	105.12379
49250.00000	104.92490	-1591.64644	104.92490
49300.00000	104.58649	-1592.66912	104.58649
49350.00000	104.22613	-1234.56541	104.22613
49400.00000	103.87187	-1235.19311	103.87187
49450.00000	103.63664	-876.84283	103.63664
49500.00000	103.40630	-877.13529	103.40630
49550.00000	103.19790	-877.99123	103.19790
49600.00000	102.97969	-518.69641	102.97969
49650.00000	102.85411	-160.56959	102.85411
49700.00000	102.56044	199.08328	102.56044
49750.00000	102.47179	558.74114	102.47179
49800.00000	102.30986	559.11163	102.30986
49850.00000	102.20693	1276.62302	102.20693
49900.00000	102.28235	1276.59449	102.28235
49950.00000	102.12873	1636.40736	102.12873
50000.00000	102.27534	1634.91131	102.27534
50050.00000	102.18828	1634.52698	102.18828
50100.00000	102.16962	1633.64990	102.16962
50150.00000	102.34515	1632.63371	102.34515
50200.00000	102.23389	1630.81433	102.23389
50250.00000	102.16503	1630.13065	102.16503
50300.00000	102.42549	1629.00932	102.42549
50350.00000	102.43076	1627.70727	102.43076
50400.00000	102.52376	1626.55649	102.52376
50450.00000	102.48753	1624.39100	102.48753
50500.00000	102.61770	1623.71759	102.61770
50550.00000	102.50020	1621.07801	102.50020
50600.00000	102.74708	1618.29581	102.74708
50650.00000	102.77390	1617.15962	102.77390
50700.00000	102.78252	1614.64261	102.78252
50750.00000	102.79120	1612.91729	102.79120
50800.00000	102.88804	1610.52877	102.88804
50850.00000	102.91023	1608.34762	102.91023
50900.00000	102.96973	1605.39628	102.96973
50950.00000	103.01061	1602.84724	103.01061
51000.00000	103.14915	1600.34986	103.14915
51050.00000	103.15590	1598.47203	103.15590
51100.00000	103.08093	1595.66254	103.08093
51150.00000	102.99670	1592.31435	102.99670
51200.00000	102.93517	1590.82018	102.93517
51250.00000	102.95340	1588.09049	102.95340
51300.00000	103.01008	1584.74053	103.01008
51350.00000	102.90222	1582.86974	102.90222
51400.00000	102.95460	1579.23838	102.95460
51450.00000	102.68747	1577.44718	102.68747
51500.00000	102.69114	1575.01677	102.69114
51550.00000	102.60124	1572.61507	102.60124
51600.00000	102.50253	1569.91439	102.50253
51650.00000	102.17952	1567.24641	102.17952
51700.00000	102.21429	1563.90821	102.21429
51750.00000	102.07099	1562.61511	102.07099
51800.00000	101.93213	1560.23928	101.93213
51850.00000	101.82987	1557.73934	101.82987
51900.00000	101.74243	1555.02635	101.74243
51950.00000	101.42731	1553.06000	101.42731
52000.00000	101.13988	1550.69185	101.13988
52050.00000	101.26222	1549.66662	101.26222
52100.00000	100.95563	1548.21826	100.95563
52150.00000	100.77723	1546.29423	100.77723
52200.00000	100.71629	1544.90463	100.71629
52250.00000	100.49751	1542.86164	100.49751
52300.00000	100.31535	1542.95208	100.31535
52350.00000	100.21788	1540.44232	100.21788
52400.00000	100.15464	1538.55973	100.15464
52450.00000	100.11603	1537.00455	100.11603
52500.00000	100.20049	1534.48782	100.20049
52550.00000	99.97927	1534.56633	99.97927
52600.00000	99.81905	1532.95579	99.81905
52650.00000	99.87451	1531.65108	99.87451
52700.00000	99.82134	1530.10589	99.82134
52750.00000	99.78146	1527.97968	99.78146
52800.00000	99.70813	1526.46299	99.70813
52850.00000	99.65111	1524.65597	99.65111
52900.00000	99.67015	1523.54000	99.67015
52950.00000	99.60848	1522.43930	99.60848
53000.00000	99.61202	1520.06500	99.61202
53050.00000	99.36757	1517.39416	99.36757
53100.00000	99.45005	1516.58499	99.45005
53150.00000	99.56952	1515.57959	99.56952
53200.00000	99.46398	1512.92726	99.46398
53250.00000	99.49647	1511.07817	99.49647
53300.00000	99.32454	1508.58170	99.32454
53350.00000	99.14976	1508.00593	99.14976
53400.00000	99.30741	1506.61385	99.30741
53450.00000	99.27473	1504.38003	99.27473
53500.00000	99.24751	1502.85469	99.24751
53550.00000	99.07816	1500.43986	99.07816
53600.00000	98.98839	1497.92914	98.98839
53650.00000	98.94223	1497.18291	98.94223
53700.00000	99.09207	1494.45097	99.09207
53750.00000	98.96127	1493.41711	98.96127
53800.00000	98.97366	1491.90284	98.97366
53850.00000	98.84415	1489.23302	98.84415
53900.00000	98.74342	1489.23666	98.74342
53950.00000	98.64721	1484.27770	98.64721
54000.00000	98.72452	1484.27135	98.72452
54050.00000	98.66655	1481.36962	98.66655
54100.00000	98.58783	1480.03268	98.58783
54150.00000	98.50527	1477.25797	98.50527
54200.00000	98.36658	1476.75354	98.36658
54250.00000	98.30525	1473.24691	98.30525
54300.00000	98.03850	1472.30016	98.03850
54350.00000	98.05061	1469.74026	98.05061
54400.00000	98.02713	1469.46905	98.02713
54450.00000	97.97994	1467.47420	97.97994
54500.00000	97.69022	1466.22663	97.69022
54550.00000	97.64643	1465.19093	97.64643
54600.00000	97.41265	1465.06025	97.41265
54650.00000	97.45722	1462.22172	97.45722
54700.00000	97.47263	1460.72603	97.47263
54750.00000	97.46210	1460.92566	97.46210
54800.00000	97.44551	1459.48766	97.44551
54850.00000	97.17592	1459.24257	97.17592
54900.00000	97.24856	1457.39417	97.24856
54950.00000	97.28365	1457.13055	97.28365
55000.00000	97.58294	1456.04740	97.58294
55050.00000	97.26022	1454.56963	97.26022
55100.00000	97.36858	1453.73482	97.36858
55150.00000	97.51577	1452.67670	97.51577
55200.00000	97.44384	1452.62504	97.44384
55250.00000	97.45161	1452.01053	97.45161
55300.00000	97.76311	1450.81383	97.76311
55350.00000	97.78980	1449.64243	97.78980
55400.00000	97.84975	1448.24161	97.84975
55450.00000	98.16536	1447.16028	98.16536
55500.00000	98.39303	1445.16981	98.39303
55550.00000	98.28369	1444.30324	98.28369
55600.00000	98.52692	1441.84739	98.52692
55650.00000	98.76709	1440.91480	98.76709
55700.00000	98.91512	1439.84169	98.91512
55750.00000	99.14594	1437.74506	99.14594
55800.00000	99.33466	1435.94092	99.33466
55850.00000	99.62763	1433.93399	99.62763
55900.00000	99.85853	1432.44298	99.85853
55950.00000	100.02063	1429.79815	100.02063
56000.00000	100.18336	1427.37059	100.18336
56050.00000	100.46534	1425.25152	100.46534
56100.00000	100.67325	1422.66906	100.67325
56150.00000	100.87358	1419.82868	100.87358
56200.00000	101.14728	1416.65708	101.14728
56250.00000	101.32321	1414.30451	101.32321
56300.00000	101.44035	1410.79764	101.44035
56350.00000	101.70116	1407.84444	101.70116
56400.00000	101.80350	1404.71516	101.80350
56450.00000	101.96327	1401.36395	101.96327
56500.00000	102.02807	1397.76074	102.02807
56550.00000	102.19100	1394.04823	102.19100
56600.00000	102.32440	1390.78193	102.32440
56650.00000	102.31659	1387.07298	102.31659
56700.00000	102.42180	1383.92725	102.42180
56750.00000	102.44804	1379.90296	102.44804
56800.00000	102.37486	1376.45961	102.37486
56850.00000	102.38875	1372.75644	102.38875
56900.00000	102.38305	1369.12715	102.38305
56950.00000	102.38219	1365.86067	102.38219
57000.00000	102.26204	1362.21691	102.26204
57050.00000	102.19930	1359.29477	102.19930
57100.00000	102.16244	1356.11712	102.16244
57150.00000	102.08539	1353.06745	102.08539
57200.00000	101.92300	1350.07100	101.92300
57250.00000	101.85883	1346.45534	101.85883
57300.00000	101.78328	1343.60683	101.78328
57350.00000	101.72455	1341.04571	101.72455
57400.00000	101.61775	1338.43161	101.61775
57450.00000	101.49003	1335.85222	101.49003
57500.00000	101.35121	1333.04896	101.35121
57550.00000	101.26153	1330.28221	101.26153
57600.00000	101.16706	1328.08524	101.16706
57650.00000	101.09240	1325.92715	101.09240
57700.00000	100.92040	1323.91863	100.92040
57750.00000	100.92220	1321.13848	100.92220
57800.00000	100.81581	1319.27856	100.81581
57850.00000	100.75664	1317.27289	100.75664
57900.00000	100.73808	1315.55005	100.73808
57950.00000	100.71135	1313.47684	100.71135
58000.00000	100.70067	1311.92019	100.70067
58050.00000	100.77587	1310.07730	100.77587
58100.00000	100.84954	1307.60467	100.84954
58150.00000	100.83764	1306.15315	100.83764
58200.00000	100.94088	1303.26099	100.94088
58250.00000	101.07164	1300.86757	101.07164
58300.00000	101.17553	1298.85331	101.17553
58350.00000	101.24313	1295.79021	101.24313
58400.00000	101.31726	1292.95420	101.31726
58450.00000	101.40533	1290.15641	101.40533
58500.00000	101.46343	1287.19437	101.46343
58550.00000	101.57776	1284.00823	101.57776
58600.00000	101.63522	1280.84120	101.63522
58650.00000	101.67798	1277.72679	101.67798
58700.00000	101.64659	1274.65256	101.64659
58750.00000	101.70698	1271.16203	101.70698
58800.00000	101.71369	1267.82706	101.71369
58850.00000	101.70978	1264.41088	101.70978
58900.00000	101.62991	1261.42066	101.62991
58950.00000	101.65689	1257.61222	101.65689
59000.00000	101.58185	1254.47357	101.58185
59050.00000	101.50865	1251.30349	101.50865
59100.00000	101.46908	1247.73764	101.46908
59150.00000	101.40607	1244.83339	101.40607
59200.00000	101.37590	1241.81401	101.37590
59250.00000	101.20112	1238.64527	101.20112
59300.00000	101.19306	1235.41147	101.19306
59350.00000	101.07967	1232.45939	101.07967
59400.00000	101.01695	1229.42476	101.01695
59450.00000	100.91835	1226.35482	100.91835
59500.00000	100.81865	1223.51559	100.81865
59550.00000	100.75939	1220.85576	100.75939
59600.00000	100.68064	1217.70900	100.68064
59650.00000	100.62035	1214.46165	100.62035
59700.00000	100.57422	1211.70485	100.57422
59750.00000	100.51522	1208.51052	100.51522
59800.00000	100.44167	1205.66052	100.44167
59850.00000	100.41730	1202.43408	100.41730
59900.00000	100.39138	1199.27737	100.39138
59950.00000	100.41245	1196.18016	100.41245
60000.00000	100.37816	1192.74970	100.37816
60050.00000	100.33052	1189.03158	100.33052
60100.00000	100.26757	1185.17819	100.26757
60150.00000	100.24427	1181.04162	100.24427
60200.00000	100.17137	1176.51722	100.17137
60250.00000	100.08120	1171.78024	100.08120
60300.00000	99.93631	1167.42296	99.93631
60350.00000	99.69996	1162.67256	99.69996
60400.00000	99.45942	1157.40963	99.45942
60450.00000	99.13687	1152.72201	99.13687
60500.00000	98.72960	1147.92778	98.72960
60550.00000	98.22777	1143.41292	98.22777
60600.00000	97.71970	1139.26715	97.71970
60650.00000	97.08776	1135.10364	97.08776
60700.00000	96.44380	1131.63864	96.44380
60750.00000	95.87848	1128.10072	95.87848
60800.00000	95.18323	1125.81113	95.18323
60850.00000	94.45044	1123.75581	94.45044
60900.00000	93.65646	1121.46256	93.65646
60950.00000	93.06380	1120.58602	93.06380
61000.00000	92.28435	1119.57606	92.28435
61050.00000	91.60230	1119.88933	91.60230
61100.00000	91.14222	1119.78644	91.14222
61150.00000	90.34883	1121.30614	90.34883
61200.00000	90.01035	1121.74257	90.01035
61250.00000	89.67116	1123.46585	89.67116
61300.00000	89.18889	1125.08786	89.18889
61350.00000	88.89013	1126.49753	88.89013
61400.00000	88.71813	1128.32482	88.71813
61450.00000	88.47711	1128.60923	88.47711
61500.00000	88.54623	1131.67600	88.54623
61550.00000	88.57134	1132.84729	88.57134
61600.00000	88.61670	1133.40909	88.61670
61650.00000	88.69594	1135.37607	88.69594
61700.00000	88.76382	1134.65472	88.76382
61750.00000	88.72088	1135.33399	88.72088
61800.00000	88.91195	1135.14593	88.91195
61850.00000	88.95697	1134.42613	88.95697
61900.00000	89.26103	1133.80770	89.26103
61950.00000	89.33661	1133.52599	89.33661
62000.00000	89.45557	1133.83786	89.45557
62050.00000	89.68256	1131.70154	89.68256
62100.00000	89.88361	1131.29464	89.88361
62150.00000	89.96884	1130.98390	89.96884
62200.00000	90.01028	1130.36904	90.01028
62250.00000	90.33268	1128.87271	90.33268
62300.00000	90.50354	1127.60224	90.50354
62350.00000	90.60073	1126.03307	90.60073
62400.00000	90.87473	1124.02520	90.87473
62450.00000	90.92935	1124.02888	90.92935
62500.00000	91.00471	1120.49116	91.00471
62550.00000	91.27411	1118.70983	91.27411
62600.00000	91.55574	1118.71173	91.55574
62650.00000	91.47441	1115.93444	91.47441
62700.00000	91.75606	1113.21969	91.75606
62750.00000	91.82530	1111.34312	91.82530
62800.00000	91.83884	1108.23537	91.83884
62850.00000	92.07704	1106.06702	92.07704
62900.00000	92.12623	1103.88340	92.12623
62950.00000	92.10459	1102.55103	92.10459
63000.00000	92.01441	1099.95282	92.01441
63050.00000	92.22158	1096.97215	92.22158
63100.00000	92.05087	1096.92383	92.05087
63150.00000	92.20712	1094.01926	92.20712
63200.00000	92.31592	1092.06592	92.31592
63250.00000	92.21548	1090.54431	92.21548
63300.00000	92.31685	1089.46727	92.31685
63350.00000	92.35539	1087.06539	92.35539
63400.00000	92.46857	1085.93793	92.46857
63450.00000	92.55132	1084.23977	92.55132
63500.00000	92.57899	1082.28687	92.57899
63550.00000	93.08075	1080.26863	93.08075
63600.00000	92.96855	1078.83677	92.96855
63650.00000	93.13637	1077.06754	93.13637
63700.00000	93.43689	1075.68112	93.43689
63750.00000	93.70183	1073.56769	93.70183
63800.00000	93.75603	1071.15641	93.75603
63850.00000	94.00955	1068.21133	94.00955
63900.00000	94.26124	1067.07530	94.26124
63950.00000	94.47314	1063.81667	94.47314
64000.00000	94.75188	1060.92686	94.75188
64050.00000	94.95196	1058.46336	94.95196
64100.00000	95.32031	1055.99475	95.32031
64150.00000	95.71873	1051.81130	95.71873
64200.00000	95.85550	1049.95468	95.85550
64250.00000	96.10868	1044.46188	96.10868
64300.00000	96.40577	1040.14238	96.40577
64350.00000	96.59594	1035.88448	96.59594
64400.00000	96.69201	1030.53403	96.69201
64450.00000	96.72120	1026.18173	96.72120
64500.00000	96.71652	1021.80024	96.71652
64550.00000	96.59807	1017.63532	96.59807
64600.00000	96.81278	1012.41666	96.81278
64650.00000	96.59654	1008.96756	96.59654
64700.00000	96.72695	1004.63117	96.72695
64750.00000	96.70484	999.41499	96.70484
64800.00000	96.61296	996.18879	96.61296
64850.00000	96.65759	990.71643	96.65759
64900.00000	96.64471	984.98125	96.64471
64950.00000	96.46513	980.28304	96.46513
65000.00000	96.38436	973.98182	96.38436
65050.00000	96.30114	967.87984	96.30114
65100.00000	95.75875	961.47243	95.75875
65150.00000	95.18571	954.86299	95.18571
65200.00000	94.65241	949.29600	94.65241
65250.00000	93.72166	943.45595	93.72166
65300.00000	92.53310	939.36759	92.53310
65350.00000	91.51524	934.61725	91.51524
65400.00000	90.59869	935.34736	90.59869
65450.00000	89.47895	935.73995	89.47895
65500.00000	88.52859	935.50540	88.52859
65550.00000	87.89616	942.04153	87.89616
65600.00000	87.19219	943.34874	87.19219
65650.00000	86.51038	943.69672	86.51038
65700.00000	86.70028	949.60138	86.70028
65750.00000	86.19063	951.62732	86.19063
65800.00000	86.07748	954.78349	86.07748
65850.00000	86.25242	957.06039	86.25242
65900.00000	86.07229	965.05766	86.07229
65950.00000	86.35016	965.99027	86.35016
66000.00000	87.32732	969.10501	87.32732
66050.00000	88.30197	974.35472	88.30197
66100.00000	89.22239	972.46866	89.22239
66150.00000	90.12057	969.70206	90.12057
66200.00000	90.99440	969.08707	90.99440
66250.00000	91.53407	963.92878	91.53407
66300.00000	92.28391	956.83978	92.28391
66350.00000	92.62314	953.65805	92.62314
66400.00000	92.74407	947.27185	92.74407
66450.00000	92.97839	942.27941	92.97839
66500.00000	93.00273	938.39277	93.00273
66550.00000	92.70686	933.37181	92.70686
66600.00000	92.79188	929.71808	92.79188
66650.00000	92.85236	927.01668	92.85236
66700.00000	92.57482	922.90921	92.57482
66750.00000	92.63871	919.76171	92.63871
66800.00000	92.64772	917.29497	92.64772
66850.00000	92.36326	913.39590	92.36326
66900.00000	92.57376	909.74089	92.57376
66950.00000	92.35779	908.15513	92.35779
67000.00000	92.32651	904.19544	92.32651
67050.00000	92.39497	901.25875	92.39497
67100.00000	92.21831	899.48669	92.21831
67150.00000	92.12126	896.71708	92.12126
67200.00000	92.16175	893.83801	92.16175
67250.00000	92.06815	892.16772	92.06815
67300.00000	91.79406	888.14572	91.79406
67350.00000	91.96379	886.05927	91.96379
67400.00000	91.80691	884.02055	91.80691
67450.00000	91.79418	880.78202	91.79418
67500.00000	91.84898	879.01115	91.84898
67550.00000	91.79727	877.93244	91.79727
67600.00000	91.67897	874.65763	91.67897
67650.00000	91.83016	872.70665	91.83016
67700.00000	91.86563	871.09139	91.86563
67750.00000	91.84143	867.80331	91.84143
67800.00000	91.99407	864.33476	91.99407
67850.00000	92.00953	863.19520	92.00953
67900.00000	91.94884	858.98171	91.94884
67950.00000	92.03796	857.50895	92.03796
68000.00000	92.02822	854.97639	92.02822
68050.00000	92.05536	851.98725	92.05536
68100.00000	92.22081	849.32813	92.22081
68150.00000	92.21053	847.01451	92.21053
68200.00000	92.27503	843.68481	92.27503
68250.00000	92.50613	841.39637	92.50613
68300.00000	92.47712	839.02927	92.47712
68350.00000	92.54398	834.87805	92.54398
68400.00000	92.72385	832.34233	92.72385
68450.00000	92.75731	828.80505	92.75731
68500.00000	92.95711	825.16592	92.95711
68550.00000	93.13173	822.62994	93.13173
68600.00000	93.16937	818.51487	93.16937
68650.00000	93.30390	814.40507	93.30390
68700.00000	93.47217	810.18763	93.47217
68750.00000	93.51205	805.31568	93.51205
68800.00000	93.64137	800.51153	93.64137
68850.00000	93.63942	796.79949	93.63942
68900.00000	93.56921	791.26200	93.56921
68950.00000	93.71886	786.15916	93.71886
69000.00000	93.62547	782.01516	93.62547
69050.00000	93.40685	776.15966	93.40685
69100.00000	93.50830	771.30372	93.50830
69150.00000	93.22080	766.15311	93.22080
69200.00000	93.12362	761.07495	93.12362
69250.00000	93.04964	756.22317	93.04964
69300.00000	92.76875	751.79665	92.76875
69350.00000	92.58853	746.03839	92.58853
69400.00000	92.44837	741.88800	92.44837
69450.00000	92.17877	736.34006	92.17877
69500.00000	91.94313	730.42687	91.94313
69550.00000	91.87795	726.01714	91.87795
69600.00000	91.38404	719.95306	91.38404
69650.00000	91.25990	714.16360	91.25990
69700.00000	90.90671	709.26135	90.90671
69750.00000	90.36089	703.00325	90.36089
69800.00000	90.13353	696.04725	90.13353
69850.00000	89.47680	690.17829	89.47680
69900.00000	88.78982	683.43655	88.78982
69950.00000	88.27740	677.29237	88.27740
70000.00000	87.41047	671.10925	87.41047
70050.00000	86.62392	664.16769	86.62392
70100.00000	85.77440	659.87037	85.77440
70150.00000	84.65407	652.47157	84.65407
70200.00000	83.57072	645.92419	83.57072
70250.00000	82.09542	643.02455	82.09542
70300.00000	80.33408	637.15815	80.33408
70350.00000	79.34815	634.12467	79.34815
70400.00000	77.11176	636.51020	77.11176
70450.00000	74.80284	628.41611	74.80284
70500.00000	73.46337	630.90503	73.46337
70550.00000	70.58065	637.98309	70.58065
70600.00000	66.84203	646.56023	66.84203
70650.00000	67.84339	657.11602	67.84339
70700.00000	66.20955	693.55652	66.20955
70750.00000	64.71060	699.85698	64.71060
70800.00000	67.83215	712.96331	67.83215
70850.00000	66.87574	719.32139	66.87574
70900.00000	68.60907	724.41043	68.60907
70950.00000	72.42038	727.98427	72.42038
71000.00000	72.17760	729.30883	72.17760
71050.00000	72.92897	722.25361	72.92897
71100.00000	74.41367	722.90160	74.41367
71150.00000	74.07538	723.15572	74.07538
71200.00000	74.20474	713.66025	74.20474
71250.00000	74.54353	720.08368	74.54353
71300.00000	74.19529	720.70719	74.19529
71350.00000	74.60387	713.59457	74.60387
71400.00000	74.86175	717.43064	74.86175
71450.00000	73.91944	714.36394	73.91944
71500.00000	75.44128	715.02790	75.44128
71550.00000	76.90246	715.16205	76.90246
71600.00000	76.53007	711.34202	76.53007
71650.00000	77.77758	705.07142	77.77758
71700.00000	77.81535	703.33975	77.81535
71750.00000	78.09296	699.96732	78.09296
71800.00000	77.93140	691.20522	77.93140
71850.00000	77.76234	694.94205	77.76234
71900.00000	76.86731	689.07100	76.86731
71950.00000	78.00143	683.09764	78.00143
72000.00000	76.63948	683.30783	76.63948
72050.00000	76.98877	681.04786	76.98877
72100.00000	77.32386	682.43138	77.32386
72150.00000	76.53248	681.34833	76.53248
72200.00000	77.14551	678.27745	77.14551
72250.00000	77.12822	681.12929	77.12822
72300.00000	75.86169	676.23478	75.86169
72350.00000	76.52420	674.73595	76.52420
72400.00000	77.10617	682.82335	77.10617
72450.00000	77.12122	675.43833	77.12122
72500.00000	77.54479	677.97340	77.54479
72550.00000	78.03477	680.30314	78.03477
72600.00000	78.57722	676.53883	78.57722
72650.00000	79.28311	674.27130	79.28311
72700.00000	79.66419	672.09305	79.66419
72750.00000	80.41827	664.98704	80.41827
72800.00000	80.96773	661.83473	80.96773
72850.00000	80.95018	654.30473	80.95018
72900.00000	81.56408	644.61603	81.56408
72950.00000	81.33379	644.92433	81.33379
73000.00000	81.47340	633.60072	81.47340
73050.00000	81.93821	629.86669	81.93821
73100.00000	81.58622	626.13349	81.58622
73150.00000	81.28687	617.35923	81.28687
73200.00000	81.30598	614.87110	81.30598
73250.00000	79.88749	611.49631	79.88749
73300.00000	80.29071	599.21711	80.29071
73350.00000	80.30752	600.15903	80.30752
73400.00000	79.61912	595.33715	79.61912
73450.00000	80.17438	593.02838	80.17438
73500.00000	78.71176	590.26794	78.71176
73550.00000	79.16448	584.02769	79.16448
73600.00000	80.01074	582.66870	80.01074
73650.00000	79.09256	575.92002	79.09256
73700.00000	79.65567	570.69523	79.65567
73750.00000	80.08348	570.49329	80.08348
73800.00000	79.10610	562.18733	79.10610
73850.00000	80.55227	548.72776	80.55227
73900.00000	79.60334	550.62060	79.60334
73950.00000	80.08122	533.77846	80.08122
74000.00000	79.82039	523.66306	79.82039
74050.00000	79.33263	512.23151	79.33263
74100.00000	79.74616	502.26259	79.74616
74150.00000	79.64114	493.21931	79.64114
74200.00000	78.44026	472.16585	78.44026
74250.00000	79.37194	461.30527	79.37194
74300.00000	78.94074	437.76145	78.94074
74350.00000	78.78790	414.50108	78.78790
74400.00000	75.98050	363.22416	75.98050
74450.00000	71.54947	175.58546	71.54947
74500.00000	77.29307	112.22684	77.29307
74550.00000	74.32645	78.87303	74.32645
74600.00000	74.80910	48.96784	74.80910
74650.00000	75.06248	40.17270	75.06248
74700.00000	73.19152	25.48311	73.19152
74750.00000	73.98328	 7.91403	73.98328
74800.00000	72.68087	 7.95599	72.68087
74850.00000	73.82392	-11.15332	73.82392
74900.00000	74.11667	-6.56599	74.11667
74950.00000	72.75609	-23.55374	72.75609
75000.00000	74.52949	-23.91621	74.52949
75050.00000	72.45911	-19.43578	72.45911
75100.00000	72.73090	-44.63826	72.73090
75150.00000	74.62978	-31.14520	74.62978
75200.00000	73.68412	-45.42708	73.68412
75250.00000	74.40524	-50.83958	74.40524
75300.00000	74.56969	-37.22290	74.56969
75350.00000	73.11312	-55.94672	73.11312
75400.00000	75.57253	-55.27125	75.57253
75450.00000	74.53976	-48.74724	74.53976
75500.00000	75.16477	-61.78609	75.16477
75550.00000	76.76595	-59.25801	76.76595
75600.00000	75.04550	-55.06539	75.04550
75650.00000	75.72967	-68.43248	75.72967
75700.00000	75.99692	-55.68525	75.99692
75750.00000	75.96036	-72.84902	75.96036
75800.00000	77.96068	-73.41325	77.96068
75850.00000	76.31330	-66.89774	76.31330
75900.00000	78.37450	-80.70772	78.37450
75950.00000	78.01568	-76.16367	78.01568
76000.00000	77.22579	-86.65081	77.22579
76050.00000	79.66974	-87.56496	79.66974
76100.00000	78.42534	-85.21348	78.42534
76150.00000	79.31739	-98.85591	79.31739
76200.00000	80.06825	-95.80745	80.06825
76250.00000	80.14888	-100.95803	80.14888
76300.00000	80.40848	-106.27154	80.40848
76350.00000	80.57725	-101.78723	80.57725
76400.00000	81.01942	-117.42145	81.01942
76450.00000	81.40714	-112.41978	81.40714
76500.00000	81.04692	-116.07782	81.04692
76550.00000	81.54653	-130.98678	81.54653
76600.00000	81.58650	-125.11847	81.58650
76650.00000	81.99237	-137.07598	81.99237
76700.00000	82.61756	-134.87593	82.61756
76750.00000	81.96945	-133.46640	81.96945
76800.00000	82.46792	-149.36404	82.46792
76850.00000	83.16476	-144.94317	83.16476
76900.00000	82.36610	-155.71092	82.36610
76950.00000	83.50071	-158.76021	83.50071
77000.00000	82.32116	-156.34748	82.32116
77050.00000	82.58982	-168.51314	82.58982
77100.00000	83.46233	-166.32352	83.46233
77150.00000	82.04378	-170.09792	82.04378
77200.00000	83.12957	-181.56429	83.12957
77250.00000	83.48642	-173.07772	83.48642
77300.00000	82.36527	-185.26087	82.36527
77350.00000	84.00522	-190.47183	84.00522
77400.00000	82.79553	-182.87597	82.79553
77450.00000	82.92226	-200.33378	82.92226
77500.00000	83.37837	-194.43206	83.37837
77550.00000	82.11094	-203.18892	82.11094
77600.00000	83.61992	-210.14633	83.61992
77650.00000	82.81642	-199.79290	82.81642
77700.00000	81.82001	-218.87610	81.82001
77750.00000	83.96928	-211.99910	83.96928
77800.00000	82.02892	-211.37463	82.02892
77850.00000	83.17427	-227.94942	83.17427
77900.00000	83.15282	-219.38235	83.15282
77950.00000	81.73449	-231.14446	81.73449
78000.00000	83.65641	-233.52585	83.65641
78050.00000	82.11528	-226.66759	82.11528
78100.00000	82.31882	-247.44985	82.31882
78150.00000	83.24135	-238.38674	83.24135
78200.00000	81.42736	-245.03565	81.42736
78250.00000	83.44169	-252.98101	83.44169
78300.00000	82.55959	-245.66560	82.55959
78350.00000	81.41556	-261.80195	81.41556
78400.00000	83.13604	-256.35142	83.13604
78450.00000	80.64170	-258.39200	80.64170
78500.00000	82.55537	-269.45134	82.55537
78550.00000	82.21404	-260.11673	82.21404
78600.00000	80.85553	-274.79558	80.85553
78650.00000	82.25416	-273.31108	82.25416
78700.00000	80.78540	-270.71947	80.78540
78750.00000	81.82652	-284.82977	81.82652
78800.00000	82.03149	-277.56397	82.03149
78850.00000	79.92290	-285.46190	79.92290
78900.00000	81.65810	-290.45980	81.65810
78950.00000	80.73425	-283.02344	80.73425
79000.00000	80.60150	-296.08647	80.60150
79050.00000	81.80129	-290.69063	81.80129
79100.00000	79.53758	-295.43030	79.53758
79150.00000	81.57177	-299.39191	81.57177
79200.00000	80.71906	-295.67693	80.71906
79250.00000	80.53413	-306.11142	80.53413
79300.00000	81.41536	-303.12855	81.41536
79350.00000	80.01581	-305.10234	80.01581
79400.00000	81.15786	-313.65837	81.15786
79450.00000	80.61018	-309.42675	80.61018
79500.00000	80.24001	-317.97001	80.24001
79550.00000	81.44919	-319.34788	81.44919
79600.00000	80.07273	-321.43213	80.07273
79650.00000	80.63292	-328.77997	80.63292
79700.00000	80.64147	-327.65772	80.64147
79750.00000	79.76378	-332.81605	79.76378
79800.00000	80.53451	-336.52351	80.53451
79850.00000	79.68283	-336.43328	79.68283
79900.00000	79.66141	-344.29470	79.66141
79950.00000	80.31202	-341.55147	80.31202
80000.00000	79.08538	-348.95228	79.08538
80050.00000	79.63825	-350.36950	79.63825
80100.00000	79.19261	-351.13631	79.19261
80150.00000	79.01207	-361.00141	79.01207
80200.00000	79.05041	-357.94857	79.05041
80250.00000	77.84704	-367.32955	77.84704
80300.00000	78.75808	-366.39420	78.75808
80350.00000	77.43759	-369.80735	77.43759
80400.00000	76.96957	-378.73420	76.96957
80450.00000	76.59793	-372.18043	76.59793
80500.00000	75.01491	-380.64638	75.01491
80550.00000	75.10488	-376.05259	75.10488
80600.00000	73.52625	-371.58939	73.52625
80650.00000	73.42225	-370.98341	73.42225
80700.00000	74.34537	-360.50909	74.34537
80750.00000	73.24804	-361.93547	73.24804
80800.00000	74.54141	-363.34373	74.54141
80850.00000	74.77886	-358.64119	74.77886
80900.00000	75.20818	-363.76809	75.20818
80950.00000	75.56900	-362.21533	75.56900
81000.00000	75.29980	-364.91692	75.29980
81050.00000	76.02936	-368.69897	76.02936
81100.00000	75.45509	-368.68241	75.45509
81150.00000	75.81309	-374.23592	75.81309
81200.00000	75.47419	-373.86174	75.47419
81250.00000	74.64446	-376.88092	74.64446
81300.00000	75.09232	-376.08909	75.09232
81350.00000	74.78527	-373.07494	74.78527
81400.00000	75.18401	-376.46625	75.18401
81450.00000	75.14021	-372.30353	75.14021
81500.00000	75.02282	-375.99234	75.02282
81550.00000	75.68917	-376.30734	75.68917
81600.00000	75.60703	-373.06003	75.60703
81650.00000	76.06067	-379.11209	76.06067
81700.00000	76.51648	-378.94069	76.51648
81750.00000	76.20610	-382.29200	76.20610
81800.00000	77.30870	-384.39003	77.30870
81850.00000	76.78161	-381.64419	76.78161
81900.00000	77.24401	-388.63000	77.24401
81950.00000	77.49202	-389.33885	77.49202
82000.00000	77.41614	-394.49021	77.41614
82050.00000	77.75602	-397.13410	77.75602
82100.00000	77.53968	-396.88100	77.53968
82150.00000	77.98292	-401.05659	77.98292
82200.00000	78.01882	-401.15528	78.01882
82250.00000	77.59782	-406.18336	77.59782
82300.00000	77.53096	-407.89747	77.53096
82350.00000	77.20424	-410.52581	77.20424
82400.00000	76.85164	-412.94094	76.85164
82450.00000	76.89334	-410.00556	76.89334
82500.00000	76.79005	-416.42877	76.79005
82550.00000	76.09941	-410.76189	76.09941
82600.00000	75.57662	-408.18302	75.57662
82650.00000	75.81889	-405.05958	75.81889
82700.00000	75.19054	-394.82301	75.19054
82750.00000	76.81097	-389.86987	76.81097
82800.00000	78.80181	-384.15040	78.80181
82850.00000	80.73167	-385.81433	80.73167
82900.00000	82.40373	-392.07285	82.40373
82950.00000	83.51734	-400.02863	83.51734
83000.00000	84.52532	-408.84538	84.52532
83050.00000	85.30982	-414.32570	85.30982
83100.00000	85.85652	-421.76406	85.85652
83150.00000	86.53375	-427.53749	86.53375
83200.00000	87.17265	-432.96418	87.17265
83250.00000	87.49617	-439.31382	87.49617
83300.00000	87.97545	-444.27055	87.97545
83350.00000	88.28388	-450.04216	88.28388
83400.00000	88.76680	-456.08728	88.76680
83450.00000	89.16515	-461.35908	89.16515
83500.00000	89.49241	-467.69784	89.49241
83550.00000	89.79654	-474.31877	89.79654
83600.00000	89.95256	-480.61134	89.95256
83650.00000	90.08918	-488.05821	90.08918
83700.00000	90.34241	-493.77180	90.34241
83750.00000	90.40689	-502.29646	90.40689
83800.00000	90.38090	-509.77042	90.38090
83850.00000	90.34361	-516.62256	90.34361
83900.00000	90.19451	-525.55337	90.19451
83950.00000	89.93217	-531.99203	89.93217
84000.00000	89.52511	-540.42392	89.52511
84050.00000	88.86881	-547.27159	88.86881
84100.00000	88.16050	-553.40702	88.16050
84150.00000	87.32776	-558.49527	87.32776
84200.00000	86.62071	-561.76438	86.62071
84250.00000	85.56088	-563.67236	85.56088
84300.00000	85.17911	-563.75724	85.17911
84350.00000	84.69614	-563.22252	84.69614
84400.00000	84.84736	-563.54569	84.84736
84450.00000	85.02690	-563.83281	85.02690
84500.00000	85.55817	-566.56251	85.55817
84550.00000	85.80310	-570.89483	85.80310
84600.00000	85.95934	-575.61730	85.95934
84650.00000	86.14599	-580.70117	86.14599
84700.00000	85.96265	-585.61917	85.96265
84750.00000	85.99441	-591.78102	85.99441
84800.00000	85.83098	-597.75297	85.83098
84850.00000	85.70537	-603.57822	85.70537
84900.00000	85.53979	-608.98459	85.53979
84950.00000	85.25582	-614.73062	85.25582
85000.00000	84.76096	-620.78997	84.76096
85050.00000	84.26750	-626.96590	84.26750
85100.00000	83.82269	-631.19562	83.82269
85150.00000	83.40695	-636.91239	83.40695
85200.00000	82.94417	-641.45907	82.94417
85250.00000	82.87936	-646.86223	82.87936
85300.00000	81.64532	-650.82790	81.64532
85350.00000	81.29112	-654.26291	81.29112
85400.00000	80.28514	-657.71641	80.28514
85450.00000	79.95613	-662.37497	79.95613
85500.00000	78.92563	-669.18285	78.92563
85550.00000	77.99307	-667.17243	77.99307
85600.00000	77.32709	-672.72314	77.32709
85650.00000	76.59270	-669.30110	76.59270
85700.00000	75.85170	-675.67051	75.85170
85750.00000	75.62186	-672.49241	75.62186
85800.00000	74.72915	-673.02559	74.72915
85850.00000	73.38040	-674.30254	73.38040
85900.00000	72.42176	-674.04632	72.42176
85950.00000	72.81240	-666.45164	72.81240
86000.00000	72.81255	-665.37182	72.81255
86050.00000	72.36174	-666.17665	72.36174
86100.00000	72.58172	-661.94512	72.58172
86150.00000	73.29621	-663.59473	73.29621
86200.00000	72.63931	-661.32560	72.63931
86250.00000	72.58874	-664.57105	72.58874
86300.00000	72.91667	-667.82369	72.91667
86350.00000	72.87259	-666.14400	72.87259
86400.00000	72.91822	-671.71068	72.91822
86450.00000	72.68370	-674.45632	72.68370
86500.00000	72.22776	-672.65651	72.22776
86550.00000	72.98012	-679.28279	72.98012
86600.00000	72.91234	-679.06730	72.91234
86650.00000	73.34739	-679.78503	73.34739
86700.00000	73.17021	-681.95699	73.17021
86750.00000	72.50670	-686.35374	72.50670
86800.00000	72.90824	-693.95982	72.90824
86850.00000	72.04276	-697.13626	72.04276
86900.00000	72.09835	-691.67483	72.09835
86950.00000	71.29445	-697.12434	71.29445
87000.00000	71.26228	-701.51567	71.26228
87050.00000	71.57880	-705.73534	71.57880
87100.00000	71.57403	-704.04314	71.57403
87150.00000	70.98087	-709.14318	70.98087
87200.00000	70.20063	-711.62035	70.20063
87250.00000	70.39060	-711.02608	70.39060
87300.00000	70.27205	-715.40815	70.27205
87350.00000	70.18579	-723.13753	70.18579
87400.00000	69.45511	-722.83336	69.45511
87450.00000	69.18548	-726.63938	69.18548
87500.00000	68.11349	-722.66391	68.11349
87550.00000	68.42211	-725.92209	68.42211
87600.00000	67.85034	-731.67972	67.85034
87650.00000	67.42108	-726.68076	67.42108
87700.00000	65.60037	-725.55122	65.60037
87750.00000	67.02071	-721.75240	67.02071
87800.00000	65.73121	-721.05556	65.73121
87850.00000	66.17404	-734.18506	66.17404
87900.00000	65.79406	-733.81348	65.79406
87950.00000	67.28936	-718.83043	67.28936
88000.00000	65.19830	-715.55926	65.19830
88050.00000	64.07756	-724.06955	64.07756
88100.00000	64.89691	-719.73866	64.89691
88150.00000	66.56427	-719.64766	66.56427
88200.00000	64.81443	-721.15019	64.81443
88250.00000	64.62293	-718.29325	64.62293
88300.00000	66.08045	-727.67107	66.08045
88350.00000	65.87543	-722.56382	65.87543
88400.00000	66.23538	-728.21866	66.23538
88450.00000	66.43482	-726.61297	66.43482
88500.00000	66.50213	-735.44618	66.50213
88550.00000	67.46487	-736.66297	67.46487
88600.00000	67.13025	-736.71398	67.13025
88650.00000	66.19340	-736.94396	66.19340
88700.00000	66.01561	-738.91047	66.01561
88750.00000	66.34156	-748.47383	66.34156
88800.00000	65.98391	-751.86509	65.98391
88850.00000	66.23137	-757.21099	66.23137
88900.00000	65.26888	-749.22836	65.26888
88950.00000	64.29097	-748.34108	64.29097
89000.00000	64.27656	-754.19152	64.27656
89050.00000	64.41203	-758.21593	64.41203
89100.00000	64.01245	-751.11664	64.01245
89150.00000	64.27068	-744.26188	64.27068
89200.00000	63.28708	-752.65260	63.28708
89250.00000	63.89418	-747.11754	63.89418
89300.00000	62.86484	-749.66965	62.86484
89350.00000	63.58303	-736.93311	63.58303
89400.00000	63.71699	-739.38386	63.71699
89450.00000	64.49560	-737.19380	64.49560
89500.00000	64.05937	-746.81868	64.05937
89550.00000	64.91185	-741.45022	64.91185
89600.00000	65.27364	-736.97834	65.27364
89650.00000	64.61316	-742.20518	64.61316
89700.00000	65.08546	-740.97750	65.08546
89750.00000	64.73142	-745.15484	64.73142
89800.00000	65.76822	-742.26672	65.76822
89850.00000	65.55436	-739.38977	65.55436
89900.00000	66.19445	-741.12922	66.19445
89950.00000	66.89338	-733.47996	66.89338
90000.00000	67.56370	-727.63368	67.56370
90050.00000	68.10306	-727.16212	68.10306
90100.00000	70.31833	-731.26792	70.31833
90150.00000	72.59852	-725.32388	72.59852
90200.00000	74.84648	-737.47561	74.84648
90250.00000	76.79500	-752.73358	76.79500
90300.00000	77.01216	-776.53166	77.01216
90350.00000	74.50116	-789.51943	74.50116
90400.00000	74.52241	-793.63073	74.52241
90450.00000	74.05396	-800.09639	74.05396
90500.00000	73.36431	-798.07630	73.36431
90550.00000	72.35128	-800.06049	72.35128
90600.00000	71.16314	-795.85304	71.16314
90650.00000	72.43440	-804.27954	72.43440
90700.00000	72.12634	-806.36510	72.12634
90750.00000	71.96893	-810.04680	71.96893
90800.00000	73.12706	-808.56255	73.12706
90850.00000	72.99878	-812.90318	72.99878
90900.00000	72.84519	-809.14989	72.84519
90950.00000	72.82622	-815.64644	72.82622
91000.00000	73.14475	-816.27973	73.14475
91050.00000	73.25262	-818.95997	73.25262
91100.00000	74.23757	-824.11141	74.23757
91150.00000	73.82317	-828.16647	73.82317
91200.00000	73.49839	-828.17761	73.49839
91250.00000	74.31260	-832.86013	74.31260
91300.00000	74.36648	-834.35527	74.36648
91350.00000	74.21398	-841.61960	74.21398
91400.00000	74.56499	-842.77031	74.56499
91450.00000	74.06073	-845.22392	74.06073
91500.00000	73.95969	-848.86582	73.95969
91550.00000	73.82516	-849.08810	73.82516
91600.00000	73.77212	-854.78571	73.77212
91650.00000	73.62947	-860.31317	73.62947
91700.00000	74.47851	-863.04890	74.47851
91750.00000	74.55535	-861.55450	74.55535
91800.00000	74.48321	-863.46686	74.48321
91850.00000	74.55095	-866.54429	74.55095
91900.00000	75.85755	-872.26718	75.85755
91950.00000	75.04130	-874.43514	75.04130
92000.00000	74.87297	-872.77308	74.87297
92050.00000	75.48280	-878.13385	75.48280
92100.00000	76.15810	-884.53423	76.15810
92150.00000	75.57798	-885.79529	75.57798
92200.00000	75.62972	-890.61321	75.62972
92250.00000	76.39593	-892.72966	76.39593
92300.00000	77.03366	-897.46814	77.03366
92350.00000	76.74322	-900.50431	76.74322
92400.00000	77.16907	-909.01474	77.16907
92450.00000	77.27655	-910.71374	77.27655
92500.00000	77.76909	-915.90579	77.76909
92550.00000	77.97418	-920.26500	77.97418
92600.00000	78.07600	-928.57829	78.07600
92650.00000	78.31834	-931.27547	78.31834
92700.00000	78.54653	-935.64270	78.54653
92750.00000	78.50749	-942.80495	78.50749
92800.00000	78.92773	-948.52120	78.92773
92850.00000	78.87943	-954.16252	78.87943
92900.00000	78.90229	-962.68891	78.90229
92950.00000	78.79064	-966.87704	78.79064
93000.00000	79.27044	-974.83231	79.27044
93050.00000	78.79984	-982.91095	78.79984
93100.00000	78.88523	-986.39768	78.88523
93150.00000	79.05203	-992.59469	79.05203
93200.00000	78.90507	-999.46065	78.90507
93250.00000	78.70024	-1003.46354	78.70024
93300.00000	78.54359	-1013.18130	78.54359
93350.00000	78.20124	-1021.45637	78.20124
93400.00000	78.40807	-1024.97077	78.40807
93450.00000	78.26457	-1030.26926	78.26457
93500.00000	77.77973	-1039.59011	77.77973
93550.00000	77.79718	-1044.54547	77.79718
93600.00000	77.90179	-1051.24781	77.90179
93650.00000	76.97714	-1057.05909	76.97714
93700.00000	76.82217	-1066.94400	76.82217
93750.00000	76.24456	-1073.57467	76.24456
93800.00000	76.08186	-1074.92272	76.08186
93850.00000	76.03101	-1083.53815	76.03101
93900.00000	75.45262	-1091.26615	75.45262
93950.00000	74.91403	-1093.22624	74.91403
94000.00000	75.00433	-1098.89545	75.00433
94050.00000	74.74394	-1107.00143	74.74394
94100.00000	73.21779	-1113.01339	73.21779
94150.00000	73.83093	-1111.20481	73.83093
94200.00000	72.72603	-1113.75845	72.72603
94250.00000	72.51399	-1125.57908	72.51399
94300.00000	72.74468	-1126.68623	72.74468
94350.00000	70.78651	-1130.29883	70.78651
94400.00000	71.91046	-1136.15070	71.91046
94450.00000	71.31727	-1140.16383	71.31727
94500.00000	70.11306	-1149.79074	70.11306
94550.00000	69.71239	-1152.22112	69.71239
94600.00000	70.61034	-1155.42216	70.61034
94650.00000	69.73240	-1159.43208	69.73240
94700.00000	69.54265	-1171.28910	69.54265
94750.00000	70.32786	-1165.31851	70.32786
94800.00000	68.10477	-1176.39489	68.10477
94850.00000	67.85166	-1181.07969	67.85166
94900.00000	67.64637	-1186.09927	67.64637
94950.00000	67.68417	-1192.47707	67.68417
95000.00000	65.97484	-1203.21060	65.97484
95050.00000	66.98345	-1199.13018	66.98345
95100.00000	62.97596	-1206.86542	62.97596
95150.00000	65.84781	-1206.54938	65.84781
95200.00000	62.21263	-1224.26865	62.21263
95250.00000	64.45903	-1235.65325	64.45903
95300.00000	61.89152	-1228.71425	61.89152
95350.00000	63.42475	-1228.67498	63.42475
95400.00000	61.68243	-1223.80755	61.68243
95450.00000	64.73934	-1234.53194	64.73934
95500.00000	60.67167	-1259.34295	60.67167
95550.00000	59.49888	-1271.35016	59.49888
95600.00000	58.63729	-1267.94016	58.63729
95650.00000	59.69869	-1259.22217	59.69869
95700.00000	55.83771	-1253.79644	55.83771
95750.00000	58.61671	-1275.01123	58.61671
95800.00000	59.82842	-1273.73951	59.82842
95850.00000	48.92593	-1223.43088	48.92593
95900.00000	56.73151	-1292.41315	56.73151
95950.00000	59.35149	-1258.84196	59.35149
96000.00000	56.63594	-1300.98632	56.63594
96050.00000	53.24307	-1278.83109	53.24307
96100.00000	61.61710	-1288.09577	61.61710
96150.00000	61.66075	-1319.42291	61.66075
96200.00000	62.84766	-1344.87286	62.84766
96250.00000	58.09750	-1325.88672	58.09750
96300.00000	60.65245	-1345.43283	60.65245
96350.00000	56.85637	-1346.15774	56.85637
96400.00000	53.49694	-1406.91764	53.49694
96450.00000	64.70707	-1383.52489	64.70707
96500.00000	62.54149	-1383.88960	62.54149
96550.00000	59.97054	-1383.95099	59.97054
96600.00000	62.15184	-1428.32383	62.15184
96650.00000	64.81096	-1426.40406	64.81096
96700.00000	59.27139	-1478.27684	59.27139
96750.00000	62.43523	-1493.85067	62.43523
96800.00000	59.91128	-1444.76261	59.91128
96850.00000	61.42135	-1495.05021	61.42135
96900.00000	64.36433	-1474.92655	64.36433
96950.00000	59.42953	-1505.06067	59.42953
97000.00000	64.42547	-1465.42351	64.42547
97050.00000	63.54177	-1475.60460	63.54177
97100.00000	68.21046	-1496.59203	68.21046
97150.00000	69.66914	-1524.03215	69.66914
97200.00000	67.93230	-1548.97444	67.93230
97250.00000	48.82658	-1509.15310	48.82658
97300.00000	67.48750	-1538.13523	67.48750
97350.00000	68.14566	-1597.83878	68.14566
97400.00000	64.43076	-1596.38021	64.43076
97450.00000	57.52277	-1598.03876	57.52277
97500.00000	63.71388	-1582.33147	63.71388
97550.00000	59.35012	-1600.53157	59.35012
97600.00000	55.76478	-1570.22291	55.76478
97650.00000	62.37709	-1605.04019	62.37709
97700.00000	57.31519	-1588.07069	57.31519
97750.00000	59.19987	-1615.89587	59.19987
97800.00000	56.04960	-1597.01446	56.04960
97850.00000	60.72761	-1622.61969	60.72761
97900.00000	61.85475	-1615.98194	61.85475
97950.00000	61.79146	-1618.67593	61.79146
98000.00000	61.58779	-1629.11184	61.58779
98050.00000	61.83096	-1607.78621	61.83096
98100.00000	62.60908	-1647.92318	62.60908
98150.00000	61.85241	-1652.34679	61.85241
98200.00000	60.77985	-1652.31989	60.77985
98250.00000	63.34525	-1643.36319	63.34525
98300.00000	63.25232	-1667.05641	63.25232
98350.00000	63.35518	-1664.25675	63.35518
98400.00000	65.08579	-1677.21903	65.08579
98450.00000	63.44185	-1680.45137	63.44185
98500.00000	60.01639	-1681.48598	60.01639
98550.00000	61.55722	-1690.98619	61.55722
98600.00000	64.75927	-1686.42319	64.75927
98650.00000	64.16980	-1692.28677	64.16980
98700.00000	63.59954	-1710.05405	63.59954
98750.00000	63.03765	-1704.63685	63.03765
98800.00000	65.11302	-1705.30956	65.11302
98850.00000	65.90210	-1704.44039	65.90210
98900.00000	63.83006	-1712.22035	63.83006
98950.00000	63.84463	-1722.29899	63.84463
99000.00000	62.42592	-1736.83465	62.42592
99050.00000	63.25324	-1712.94435	63.25324
99100.00000	65.43009	-1720.41655	65.43009
99150.00000	62.91462	-1724.67385	62.91462
99200.00000	57.96684	-1743.14336	57.96684
99250.00000	64.19602	-1735.48763	64.19602
99300.00000	64.70113	-1745.27176	64.70113
99350.00000	61.61551	-1754.06241	61.61551
99400.00000	63.91065	-1751.53542	63.91065
99450.00000	60.99591	-1727.92518	60.99591
99500.00000	61.23082	-1753.18653	61.23082
99550.00000	64.56069	-1759.44750	64.56069
99600.00000	64.38622	-1765.80159	64.38622
99650.00000	63.08363	-1789.48686	63.08363
99700.00000	62.09220	-1770.43979	62.09220
99750.00000	64.68378	-1792.47542	64.68378
99800.00000	61.89333	-1788.01814	61.89333
99850.00000	59.43439	-1790.44668	59.43439
99900.00000	62.45761	-1787.19871	62.45761
99950.00000	62.16652	-1797.43205	62.16652
