---ACOUSTIC CALIBRATION---
Filename: C:\Data\CL0809 DATA\CL08092\RightSecondary.calib
Date: 8/9/2019 10:57:57 AM
Format: 4
Probe Tube Correction File: C:\Data\Probe Tube Calibrations\74_ProbeTube.calib
Experiment VIs: 2128
EPL_CFTS.exe V15.0.1f5 (2015)
DAQmx V15.1

Attenuation (dB): 40.000000
Min Freq (Hz): 50.000000
Max Freq (Hz): 99950.000000
Freq Step (Hz): 50.000000
Sample Rate (Hz): 200000.000000
[Smoothing]
Method=None
MA.Iterations=0
MA.Length=0
Loess.Length=0
Loess.Type=Linear
Loess.Robust=FALSE


Freq(Hz)	Mag(dB)	Phase(deg)	Unsmoothed(dB)

50.00000	92.46745	323.61293	92.46745
100.00000	71.96244	146.68640	71.96244
150.00000	63.05988	387.48996	63.05988
200.00000	65.36000	467.11663	65.36000
250.00000	65.67742	603.84695	65.67742
300.00000	67.10709	806.05865	67.10709
350.00000	73.41510	972.92381	73.41510
400.00000	72.00713	1028.11524	72.00713
450.00000	77.07280	1079.92219	77.07280
500.00000	82.74835	1191.08960	82.74835
550.00000	88.14612	1116.48794	88.14612
600.00000	86.94299	1082.44680	86.94299
650.00000	93.94074	1067.60367	93.94074
700.00000	92.40753	1067.97654	92.40753
750.00000	96.24662	1035.00031	96.24662
800.00000	97.14839	1018.34288	97.14839
850.00000	96.04997	1010.73060	96.04997
900.00000	96.77533	1006.96414	96.77533
950.00000	98.20499	992.36258	98.20499
1000.00000	98.28383	986.16165	98.28383
1050.00000	98.32750	971.06443	98.32750
1100.00000	97.44112	962.08955	97.44112
1150.00000	96.49243	962.06653	96.49243
1200.00000	96.08620	966.89897	96.08620
1250.00000	96.81480	971.45528	96.81480
1300.00000	97.88193	971.48979	97.88193
1350.00000	98.67637	969.77930	98.67637
1400.00000	99.56395	969.94299	99.56395
1450.00000	100.60577	968.29444	100.60577
1500.00000	101.92106	966.27554	101.92106
1550.00000	103.33138	960.04163	103.33138
1600.00000	104.61785	954.37793	104.61785
1650.00000	105.64996	949.04392	105.64996
1700.00000	109.62010	932.06882	109.62010
1750.00000	106.61157	911.05064	106.61157
1800.00000	106.24744	905.36365	106.24744
1850.00000	105.78629	897.78275	105.78629
1900.00000	105.48957	891.79456	105.48957
1950.00000	104.77521	886.67284	104.77521
2000.00000	103.94758	882.56740	103.94758
2050.00000	102.94519	883.59150	102.94519
2100.00000	103.19762	890.80672	103.19762
2150.00000	104.49443	887.70173	104.49443
2200.00000	104.79723	878.60533	104.79723
2250.00000	104.22767	873.33891	104.22767
2300.00000	103.90879	872.22876	103.90879
2350.00000	103.94242	869.64300	103.94242
2400.00000	104.02519	867.59394	104.02519
2450.00000	103.80823	863.48610	103.80823
2500.00000	103.34685	863.95886	103.34685
2550.00000	103.55468	863.88256	103.55468
2600.00000	103.73712	862.97788	103.73712
2650.00000	103.90298	862.54267	103.90298
2700.00000	104.16489	860.74461	104.16489
2750.00000	104.40209	859.31647	104.40209
2800.00000	104.69615	856.90370	104.69615
2850.00000	104.99931	854.81294	104.99931
2900.00000	105.32101	852.39945	105.32101
2950.00000	105.62765	849.78774	105.62765
3000.00000	105.89689	847.37403	105.89689
3050.00000	106.15039	844.15396	106.15039
3100.00000	106.38259	840.85342	106.38259
3150.00000	106.39976	838.04231	106.39976
3200.00000	106.58573	834.81153	106.58573
3250.00000	106.81424	832.31209	106.81424
3300.00000	106.84788	829.56400	106.84788
3350.00000	107.06843	827.38904	107.06843
3400.00000	107.14567	825.11572	107.14567
3450.00000	107.26852	823.72436	107.26852
3500.00000	107.42866	822.64873	107.42866
3550.00000	108.10199	820.24156	108.10199
3600.00000	108.16332	816.26147	108.16332
3650.00000	108.44923	815.46469	108.44923
3700.00000	108.67965	813.38513	108.67965
3750.00000	109.17045	810.02196	109.17045
3800.00000	109.94892	807.68404	109.94892
3850.00000	110.44106	797.93179	110.44106
3900.00000	110.73445	789.80224	110.73445
3950.00000	109.82879	786.02620	109.82879
4000.00000	109.32348	787.19379	109.32348
4050.00000	109.58937	788.19579	109.58937
4100.00000	110.13093	788.20529	110.13093
4150.00000	111.58584	785.24394	111.58584
4200.00000	112.39538	780.66316	112.39538
4250.00000	112.36404	768.22471	112.36404
4300.00000	112.35243	765.37159	112.35243
4350.00000	112.64248	760.71317	112.64248
4400.00000	112.84841	754.76079	112.84841
4450.00000	112.81668	748.08304	112.81668
4500.00000	112.82028	742.31922	112.82028
4550.00000	112.60798	737.35958	112.60798
4600.00000	112.53493	732.38430	112.53493
4650.00000	112.44683	728.03946	112.44683
4700.00000	112.32645	723.68811	112.32645
4750.00000	112.21510	719.59655	112.21510
4800.00000	112.14160	715.81206	112.14160
4850.00000	112.08480	711.76046	112.08480
4900.00000	112.03876	707.06932	112.03876
4950.00000	111.96340	702.69053	111.96340
5000.00000	111.84543	697.91218	111.84543
5050.00000	111.69312	693.15844	111.69312
5100.00000	111.48000	688.37144	111.48000
5150.00000	111.18283	683.65556	111.18283
5200.00000	110.73455	679.05641	110.73455
5250.00000	109.98059	676.99139	109.98059
5300.00000	110.12745	678.75117	110.12745
5350.00000	110.46465	673.76175	110.46465
5400.00000	110.30973	668.47115	110.30973
5450.00000	110.01207	664.30728	110.01207
5500.00000	109.74152	660.53900	109.74152
5550.00000	109.51246	657.27806	109.51246
5600.00000	109.25844	653.40750	109.25844
5650.00000	108.90082	650.34720	108.90082
5700.00000	108.58912	647.33424	108.58912
5750.00000	108.31648	644.46894	108.31648
5800.00000	108.03060	642.04249	108.03060
5850.00000	107.73533	639.56540	107.73533
5900.00000	107.47050	637.07921	107.47050
5950.00000	107.23656	634.88439	107.23656
6000.00000	107.01664	632.61669	107.01664
6050.00000	106.80124	630.16103	106.80124
6100.00000	106.57679	627.67216	106.57679
6150.00000	106.30100	625.22237	106.30100
6200.00000	106.03285	623.17500	106.03285
6250.00000	105.77093	621.20095	105.77093
6300.00000	105.52876	619.39462	105.52876
6350.00000	105.31127	617.64349	105.31127
6400.00000	105.09875	615.94076	105.09875
6450.00000	104.89994	614.28466	104.89994
6500.00000	104.68728	612.78525	104.68728
6550.00000	104.48308	611.51208	104.48308
6600.00000	104.35045	610.42573	104.35045
6650.00000	104.26461	609.49539	104.26461
6700.00000	104.24464	608.31295	104.24464
6750.00000	104.28710	606.74963	104.28710
6800.00000	104.35675	604.72785	104.35675
6850.00000	104.39828	602.11003	104.39828
6900.00000	104.36741	599.15215	104.36741
6950.00000	104.31433	595.87505	104.31433
7000.00000	104.17266	592.63337	104.17266
7050.00000	103.99798	589.64021	103.99798
7100.00000	103.76785	586.60555	103.76785
7150.00000	103.48916	583.82145	103.48916
7200.00000	103.18931	581.19721	103.18931
7250.00000	102.85699	579.12002	102.85699
7300.00000	102.49483	577.27697	102.49483
7350.00000	102.14342	575.79208	102.14342
7400.00000	101.82674	574.92080	101.82674
7450.00000	101.52653	574.13416	101.52653
7500.00000	101.29458	573.89632	101.29458
7550.00000	101.14663	573.74270	101.14663
7600.00000	101.04402	573.29545	101.04402
7650.00000	101.04554	572.74247	101.04554
7700.00000	101.03778	571.85511	101.03778
7750.00000	101.04637	570.56203	101.04637
7800.00000	101.04385	568.84912	101.04385
7850.00000	101.02442	567.27990	101.02442
7900.00000	100.96476	565.15254	100.96476
7950.00000	100.88426	563.26942	100.88426
8000.00000	100.76770	561.39285	100.76770
8050.00000	100.63686	559.34903	100.63686
8100.00000	100.48647	557.48169	100.48647
8150.00000	100.35340	555.68407	100.35340
8200.00000	100.16836	554.01201	100.16836
8250.00000	100.01937	552.47736	100.01937
8300.00000	99.88092	550.96368	99.88092
8350.00000	99.69984	549.60240	99.69984
8400.00000	99.56149	548.44114	99.56149
8450.00000	99.39640	547.29338	99.39640
8500.00000	99.25975	546.38230	99.25975
8550.00000	99.14602	545.48794	99.14602
8600.00000	99.04080	544.71774	99.04080
8650.00000	98.95921	543.96803	98.95921
8700.00000	98.87118	543.49794	98.87118
8750.00000	98.80187	542.95942	98.80187
8800.00000	98.77652	542.35522	98.77652
8850.00000	98.78164	541.91046	98.78164
8900.00000	98.74424	541.52511	98.74424
8950.00000	98.77081	541.16127	98.77081
9000.00000	98.76363	540.56706	98.76363
9050.00000	98.79882	539.99592	98.79882
9100.00000	98.81838	539.48401	98.81838
9150.00000	98.87005	538.90675	98.87005
9200.00000	98.89245	538.20795	98.89245
9250.00000	98.92577	537.41425	98.92577
9300.00000	98.98766	536.56553	98.98766
9350.00000	99.05963	535.44127	99.05963
9400.00000	99.09833	534.41090	99.09833
9450.00000	99.18268	533.42632	99.18268
9500.00000	99.26239	531.96064	99.26239
9550.00000	99.34372	530.66007	99.34372
9600.00000	99.45462	529.39030	99.45462
9650.00000	99.57601	527.90784	99.57601
9700.00000	99.69430	526.11516	99.69430
9750.00000	99.79459	524.39644	99.79459
9800.00000	99.87662	522.91357	99.87662
9850.00000	100.01560	521.33559	100.01560
9900.00000	100.18040	519.93562	100.18040
9950.00000	100.30701	518.29351	100.30701
10000.00000	100.51986	517.00628	100.51986
10050.00000	100.73009	515.15162	100.73009
10100.00000	100.92355	513.12849	100.92355
10150.00000	101.06190	511.06313	101.06190
10200.00000	101.19947	509.08175	101.19947
10250.00000	101.29901	507.40754	101.29901
10300.00000	101.44672	505.40913	101.44672
10350.00000	101.57464	503.47558	101.57464
10400.00000	101.65157	501.37234	101.65157
10450.00000	101.78581	499.27071	101.78581
10500.00000	101.92373	496.64194	101.92373
10550.00000	102.02145	494.39475	102.02145
10600.00000	102.17299	491.35684	102.17299
10650.00000	102.25913	488.70240	102.25913
10700.00000	102.35327	485.71027	102.35327
10750.00000	102.43282	482.89310	102.43282
10800.00000	102.52355	479.47626	102.52355
10850.00000	102.59978	476.34769	102.59978
10900.00000	102.66569	473.20204	102.66569
10950.00000	102.70023	469.87484	102.70023
11000.00000	102.75510	466.63974	102.75510
11050.00000	102.71802	463.43557	102.71802
11100.00000	102.72656	460.20143	102.72656
11150.00000	102.69198	456.93741	102.69198
11200.00000	102.63426	453.91388	102.63426
11250.00000	102.51561	450.54575	102.51561
11300.00000	102.39347	447.56039	102.39347
11350.00000	102.26182	444.41181	102.26182
11400.00000	102.07241	441.24159	102.07241
11450.00000	101.88106	438.18349	101.88106
11500.00000	101.67767	435.07911	101.67767
11550.00000	101.45577	432.02667	101.45577
11600.00000	101.21451	429.20234	101.21451
11650.00000	100.96548	426.38249	100.96548
11700.00000	100.73722	423.66341	100.73722
11750.00000	100.48724	421.29374	100.48724
11800.00000	100.24761	419.28167	100.24761
11850.00000	100.07733	417.15957	100.07733
11900.00000	99.79905	415.58755	99.79905
11950.00000	99.61017	414.10742	99.61017
12000.00000	99.44836	413.24621	99.44836
12050.00000	99.21587	412.33251	99.21587
12100.00000	98.94417	411.50705	98.94417
12150.00000	98.71373	410.68617	98.71373
12200.00000	98.51964	409.92536	98.51964
12250.00000	98.32120	409.37673	98.32120
12300.00000	97.97888	408.68295	97.97888
12350.00000	97.84115	408.19571	97.84115
12400.00000	97.54517	406.91560	97.54517
12450.00000	97.49534	406.09518	97.49534
12500.00000	97.37367	405.91688	97.37367
12550.00000	97.23793	405.38794	97.23793
12600.00000	97.23765	403.69451	97.23765
12650.00000	97.21763	403.52459	97.21763
12700.00000	97.10722	402.33461	97.10722
12750.00000	97.05985	402.15615	97.05985
12800.00000	97.10781	401.49704	97.10781
12850.00000	96.95095	401.03922	96.95095
12900.00000	96.88803	399.44857	96.88803
12950.00000	96.99835	397.51434	96.99835
13000.00000	96.93072	395.73468	96.93072
13050.00000	96.93869	393.40465	96.93869
13100.00000	96.99123	391.09861	96.99123
13150.00000	97.28414	388.84295	97.28414
13200.00000	97.57384	384.44650	97.57384
13250.00000	98.22003	379.49542	98.22003
13300.00000	99.05166	379.68290	99.05166
13350.00000	100.14408	377.90522	100.14408
13400.00000	101.35693	381.14673	101.35693
13450.00000	102.06090	389.80089	102.06090
13500.00000	101.67778	403.60783	101.67778
13550.00000	100.58889	409.56424	100.58889
13600.00000	98.89259	411.57086	98.89259
13650.00000	97.29086	408.55117	97.29086
13700.00000	96.08775	403.19717	96.08775
13750.00000	95.30132	394.09310	95.30132
13800.00000	95.04143	385.50372	95.04143
13850.00000	95.10601	375.86313	95.10601
13900.00000	95.39227	366.43066	95.39227
13950.00000	96.32225	359.19941	96.32225
14000.00000	97.67305	353.67758	97.67305
14050.00000	99.43513	353.17145	99.43513
14100.00000	101.45184	355.84110	101.45184
14150.00000	102.74517	368.36906	102.74517
14200.00000	102.70110	383.00247	102.70110
14250.00000	101.41916	394.36989	101.41916
14300.00000	99.86333	397.99019	99.86333
14350.00000	98.58175	396.02433	98.58175
14400.00000	97.73081	393.00157	97.73081
14450.00000	97.08692	387.75385	97.08692
14500.00000	96.83842	381.44369	96.83842
14550.00000	96.90002	374.52734	96.90002
14600.00000	97.09832	369.31021	97.09832
14650.00000	97.61544	363.54945	97.61544
14700.00000	98.32387	357.40511	98.32387
14750.00000	99.14267	353.19739	99.14267
14800.00000	100.02999	350.28859	100.02999
14850.00000	101.06153	349.47783	101.06153
14900.00000	101.97639	350.26507	101.97639
14950.00000	102.50644	353.16509	102.50644
15000.00000	102.61352	356.10152	102.61352
15050.00000	102.36393	359.01861	102.36393
15100.00000	102.01341	359.04792	102.01341
15150.00000	101.47004	357.25221	101.47004
15200.00000	101.09615	354.15606	101.09615
15250.00000	100.71046	350.28046	100.71046
15300.00000	100.54561	345.32956	100.54561
15350.00000	100.64903	340.39065	100.64903
15400.00000	100.69059	335.12291	100.69059
15450.00000	100.90993	330.28325	100.90993
15500.00000	101.23466	326.81144	101.23466
15550.00000	101.60510	324.25362	101.60510
15600.00000	102.03665	321.88323	102.03665
15650.00000	102.32433	321.39532	102.32433
15700.00000	102.44159	321.21223	102.44159
15750.00000	102.55385	321.50224	102.55385
15800.00000	102.38316	321.46121	102.38316
15850.00000	102.25455	321.31795	102.25455
15900.00000	101.91256	319.47960	101.91256
15950.00000	101.70404	317.56567	101.70404
16000.00000	101.50906	315.22404	101.50906
16050.00000	101.51108	313.03714	101.51108
16100.00000	101.49082	310.49913	101.49082
16150.00000	101.63219	307.71366	101.63219
16200.00000	101.84067	305.88607	101.84067
16250.00000	102.02410	303.57359	102.02410
16300.00000	102.32370	302.09739	102.32370
16350.00000	102.58106	301.00318	102.58106
16400.00000	102.76494	300.59276	102.76494
16450.00000	102.96153	299.65772	102.96153
16500.00000	103.04256	298.48944	103.04256
16550.00000	103.11120	297.61933	103.11120
16600.00000	103.19069	295.57615	103.19069
16650.00000	103.17590	294.15639	103.17590
16700.00000	103.24342	291.93754	103.24342
16750.00000	103.31435	289.59461	103.31435
16800.00000	103.47383	287.41161	103.47383
16850.00000	103.63819	284.74483	103.63819
16900.00000	103.84966	283.07937	103.84966
16950.00000	104.00818	281.25892	104.00818
17000.00000	104.18867	279.35949	104.18867
17050.00000	104.40816	277.94403	104.40816
17100.00000	104.53706	276.33974	104.53706
17150.00000	104.71083	274.79255	104.71083
17200.00000	104.78001	272.89061	104.78001
17250.00000	104.88867	270.72748	104.88867
17300.00000	105.03179	268.54662	105.03179
17350.00000	105.14934	265.98939	105.14934
17400.00000	105.30936	263.43307	105.30936
17450.00000	105.48375	260.89766	105.48375
17500.00000	105.62679	258.40793	105.62679
17550.00000	105.79931	255.83754	105.79931
17600.00000	105.98038	253.51450	105.98038
17650.00000	106.14634	251.44035	106.14634
17700.00000	106.33330	249.11581	106.33330
17750.00000	106.49543	246.76413	106.49543
17800.00000	106.61057	244.53831	106.61057
17850.00000	106.74334	242.16745	106.74334
17900.00000	106.87587	239.66130	106.87587
17950.00000	106.96662	237.11508	106.96662
18000.00000	107.11000	234.40505	107.11000
18050.00000	107.22656	231.58941	107.22656
18100.00000	107.33487	228.89487	107.33487
18150.00000	107.45786	225.90790	107.45786
18200.00000	107.57576	223.02387	107.57576
18250.00000	107.67290	220.15231	107.67290
18300.00000	107.76890	217.25908	107.76890
18350.00000	107.85925	214.34637	107.85925
18400.00000	107.91379	211.28223	107.91379
18450.00000	108.01488	208.49466	108.01488
18500.00000	108.06343	205.63432	108.06343
18550.00000	108.13932	202.59938	108.13932
18600.00000	108.14711	199.81502	108.14711
18650.00000	108.21546	196.77611	108.21546
18700.00000	108.25237	194.02948	108.25237
18750.00000	108.25305	191.11271	108.25305
18800.00000	108.25659	188.26644	108.25659
18850.00000	108.25141	185.54424	108.25141
18900.00000	108.20596	182.83188	108.20596
18950.00000	108.20530	179.98147	108.20530
19000.00000	108.16306	177.21647	108.16306
19050.00000	108.14138	174.40273	108.14138
19100.00000	108.10416	171.84660	108.10416
19150.00000	108.08438	169.58015	108.08438
19200.00000	108.06085	166.92727	108.06085
19250.00000	108.01620	164.71567	108.01620
19300.00000	108.01201	162.44318	108.01201
19350.00000	108.01581	159.91665	108.01581
19400.00000	107.95326	157.74495	107.95326
19450.00000	107.95741	155.26591	107.95741
19500.00000	107.95133	153.22330	107.95133
19550.00000	107.94801	151.00922	107.94801
19600.00000	107.93573	148.73696	107.93573
19650.00000	107.93397	146.55625	107.93397
19700.00000	107.95576	144.26398	107.95576
19750.00000	107.96384	142.19203	107.96384
19800.00000	107.98747	140.27692	107.98747
19850.00000	107.99215	137.88150	107.99215
19900.00000	108.03340	135.69966	108.03340
19950.00000	108.04806	133.51330	108.04806
20000.00000	108.07095	130.92381	108.07095
20050.00000	108.09917	128.71830	108.09917
20100.00000	108.13332	126.48329	108.13332
20150.00000	108.17564	123.90994	108.17564
20200.00000	108.21241	121.62868	108.21241
20250.00000	108.24080	119.40093	108.24080
20300.00000	108.27610	117.02743	108.27610
20350.00000	108.30077	114.54856	108.30077
20400.00000	108.31882	112.15458	108.31882
20450.00000	108.35579	109.67366	108.35579
20500.00000	108.37331	107.06506	108.37331
20550.00000	108.37406	104.55237	108.37406
20600.00000	108.38688	101.91352	108.38688
20650.00000	108.42444	99.36481	108.42444
20700.00000	108.43131	97.03496	108.43131
20750.00000	108.40528	94.47962	108.40528
20800.00000	108.40151	91.87510	108.40151
20850.00000	108.38262	89.10920	108.38262
20900.00000	108.36698	86.64693	108.36698
20950.00000	108.34930	84.07367	108.34930
21000.00000	108.34853	81.25129	108.34853
21050.00000	108.32737	78.88715	108.32737
21100.00000	108.31596	76.23791	108.31596
21150.00000	108.26030	73.77523	108.26030
21200.00000	108.21103	71.47432	108.21103
21250.00000	108.13409	68.88624	108.13409
21300.00000	108.07198	66.13929	108.07198
21350.00000	108.00558	63.84862	108.00558
21400.00000	107.94747	60.99548	107.94747
21450.00000	107.92155	58.68902	107.92155
21500.00000	107.88536	56.54364	107.88536
21550.00000	107.82610	54.29240	107.82610
21600.00000	107.72700	51.88466	107.72700
21650.00000	107.66176	49.72392	107.66176
21700.00000	107.55523	47.29067	107.55523
21750.00000	107.47978	44.87187	107.47978
21800.00000	107.37037	42.49225	107.37037
21850.00000	107.31220	40.65201	107.31220
21900.00000	107.23290	38.52534	107.23290
21950.00000	107.15647	36.63033	107.15647
22000.00000	107.00990	34.70756	107.00990
22050.00000	106.90606	33.21255	106.90606
22100.00000	106.86168	31.63083	106.86168
22150.00000	106.77483	29.93991	106.77483
22200.00000	106.75648	28.08897	106.75648
22250.00000	106.72889	26.46656	106.72889
22300.00000	106.71477	24.62248	106.71477
22350.00000	106.68116	22.71980	106.68116
22400.00000	106.67960	20.84287	106.67960
22450.00000	106.68801	19.35379	106.68801
22500.00000	106.67456	17.49015	106.67456
22550.00000	106.65837	15.70775	106.65837
22600.00000	106.63688	14.13115	106.63688
22650.00000	106.64921	12.39888	106.64921
22700.00000	106.61819	10.83015	106.61819
22750.00000	106.69300	 8.60141	106.69300
22800.00000	106.68389	 6.84373	106.68389
22850.00000	106.71116	 4.93577	106.71116
22900.00000	106.76083	 3.19533	106.76083
22950.00000	106.79983	 1.38518	106.79983
23000.00000	106.79055	-0.35374	106.79055
23050.00000	106.80036	-2.45922	106.80036
23100.00000	106.83508	-4.55188	106.83508
23150.00000	106.80374	-6.59988	106.80374
23200.00000	106.82024	-9.09739	106.82024
23250.00000	106.92547	-11.13241	106.92547
23300.00000	107.01519	-13.64571	107.01519
23350.00000	106.96058	-15.23535	106.96058
23400.00000	107.00036	-17.07841	107.00036
23450.00000	106.99262	-19.21770	106.99262
23500.00000	107.05182	-21.01157	107.05182
23550.00000	107.04603	-23.12721	107.04603
23600.00000	107.08237	-25.36436	107.08237
23650.00000	107.00108	-27.22028	107.00108
23700.00000	107.10600	-29.22448	107.10600
23750.00000	107.14055	-31.57927	107.14055
23800.00000	107.13456	-33.64391	107.13456
23850.00000	107.18802	-35.83721	107.18802
23900.00000	107.18495	-37.99278	107.18495
23950.00000	107.18221	-39.78381	107.18221
24000.00000	107.26316	-42.06194	107.26316
24050.00000	107.22573	-44.36844	107.22573
24100.00000	107.24937	-46.76054	107.24937
24150.00000	107.26976	-48.61115	107.26976
24200.00000	107.30464	-51.57580	107.30464
24250.00000	107.33729	-53.43208	107.33729
24300.00000	107.38138	-56.00186	107.38138
24350.00000	107.40770	-57.74007	107.40770
24400.00000	107.47010	-60.32266	107.47010
24450.00000	107.43015	-62.03547	107.43015
24500.00000	107.42241	-65.24686	107.42241
24550.00000	107.40486	-67.78304	107.40486
24600.00000	107.46263	-70.09957	107.46263
24650.00000	107.45966	-72.65740	107.45966
24700.00000	107.48744	-74.91871	107.48744
24750.00000	107.51758	-77.56662	107.51758
24800.00000	107.47104	-79.57037	107.47104
24850.00000	107.50353	-82.07303	107.50353
24900.00000	107.41931	-84.34660	107.41931
24950.00000	107.49800	-86.80977	107.49800
25000.00000	107.44099	-89.74832	107.44099
25050.00000	107.45718	-91.80253	107.45718
25100.00000	107.46106	-93.88899	107.46106
25150.00000	107.36174	-96.32692	107.36174
25200.00000	107.37047	-98.89310	107.37047
25250.00000	107.28250	-101.87078	107.28250
25300.00000	107.19395	-104.29598	107.19395
25350.00000	107.22910	-107.08554	107.22910
25400.00000	107.17718	-109.59550	107.17718
25450.00000	107.18176	-112.76940	107.18176
25500.00000	107.08520	-114.71965	107.08520
25550.00000	106.99214	-117.38033	106.99214
25600.00000	106.90913	-119.55852	106.90913
25650.00000	106.79804	-122.71753	106.79804
25700.00000	106.73526	-124.76565	106.73526
25750.00000	106.66261	-127.70556	106.66261
25800.00000	106.54136	-129.55288	106.54136
25850.00000	106.42456	-132.03939	106.42456
25900.00000	106.26958	-134.52457	106.26958
25950.00000	106.16148	-136.58664	106.16148
26000.00000	106.02426	-138.66075	106.02426
26050.00000	105.96942	-141.13792	105.96942
26100.00000	105.82834	-143.13238	105.82834
26150.00000	105.65227	-145.61211	105.65227
26200.00000	105.49059	-147.20640	105.49059
26250.00000	105.39445	-149.31124	105.39445
26300.00000	105.18349	-151.46016	105.18349
26350.00000	105.10194	-153.28875	105.10194
26400.00000	105.02389	-155.38883	105.02389
26450.00000	104.83792	-157.65594	104.83792
26500.00000	104.71327	-159.03864	104.71327
26550.00000	104.57897	-160.14375	104.57897
26600.00000	104.46379	-161.87814	104.46379
26650.00000	104.35942	-163.93058	104.35942
26700.00000	104.23131	-165.28676	104.23131
26750.00000	104.08142	-166.72297	104.08142
26800.00000	103.96203	-168.26704	103.96203
26850.00000	103.83096	-169.31831	103.83096
26900.00000	103.72890	-171.09378	103.72890
26950.00000	103.58058	-172.45301	103.58058
27000.00000	103.46693	-173.72563	103.46693
27050.00000	103.42016	-174.80176	103.42016
27100.00000	103.31647	-176.13757	103.31647
27150.00000	103.20534	-177.35360	103.20534
27200.00000	103.20035	-179.02300	103.20035
27250.00000	103.06604	-179.96158	103.06604
27300.00000	103.05151	-181.25422	103.05151
27350.00000	102.94396	-182.49302	102.94396
27400.00000	102.90371	-183.18486	102.90371
27450.00000	102.95405	-184.82315	102.95405
27500.00000	102.84607	-185.82019	102.84607
27550.00000	102.81338	-186.80153	102.81338
27600.00000	102.81624	-187.95321	102.81624
27650.00000	102.75462	-189.06137	102.75462
27700.00000	102.74810	-190.40334	102.74810
27750.00000	102.71589	-191.21769	102.71589
27800.00000	102.71657	-192.67335	102.71657
27850.00000	102.75369	-193.72447	102.75369
27900.00000	102.77334	-194.95969	102.77334
27950.00000	102.76244	-195.60150	102.76244
28000.00000	102.79759	-196.88765	102.79759
28050.00000	102.80877	-198.15088	102.80877
28100.00000	102.80199	-199.15082	102.80199
28150.00000	102.83458	-200.73265	102.83458
28200.00000	102.90600	-201.83018	102.90600
28250.00000	102.91281	-203.15500	102.91281
28300.00000	102.93378	-205.00789	102.93378
28350.00000	103.02509	-205.92876	103.02509
28400.00000	103.02115	-207.55815	103.02115
28450.00000	103.04199	-208.77166	103.04199
28500.00000	103.11222	-210.52857	103.11222
28550.00000	103.15496	-211.86475	103.15496
28600.00000	103.26847	-213.37496	103.26847
28650.00000	103.24371	-214.52655	103.24371
28700.00000	103.25669	-216.19398	103.25669
28750.00000	103.31487	-217.36591	103.31487
28800.00000	103.26604	-219.50075	103.26604
28850.00000	103.32087	-220.93181	103.32087
28900.00000	103.35692	-222.43612	103.35692
28950.00000	103.36284	-223.73135	103.36284
29000.00000	103.46445	-225.11181	103.46445
29050.00000	103.49887	-226.76145	103.49887
29100.00000	103.47462	-227.90632	103.47462
29150.00000	103.48315	-230.23421	103.48315
29200.00000	103.60014	-231.17845	103.60014
29250.00000	103.54155	-232.38020	103.54155
29300.00000	103.58631	-234.12046	103.58631
29350.00000	103.59865	-235.31692	103.59865
29400.00000	103.62614	-236.71556	103.62614
29450.00000	103.70321	-238.20784	103.70321
29500.00000	103.74083	-239.85286	103.74083
29550.00000	103.82452	-240.75291	103.82452
29600.00000	103.82155	-242.24424	103.82155
29650.00000	103.87017	-243.55426	103.87017
29700.00000	103.93285	-244.73669	103.93285
29750.00000	103.96578	-246.19041	103.96578
29800.00000	103.99929	-247.48054	103.99929
29850.00000	104.10746	-248.62239	104.10746
29900.00000	104.15369	-250.06038	104.15369
29950.00000	104.19254	-251.13489	104.19254
30000.00000	104.27977	-252.69715	104.27977
30050.00000	104.34482	-253.69001	104.34482
30100.00000	104.43606	-255.17104	104.43606
30150.00000	104.50469	-256.27958	104.50469
30200.00000	104.60186	-257.68397	104.60186
30250.00000	104.68460	-258.93004	104.68460
30300.00000	104.75716	-260.53154	104.75716
30350.00000	104.91543	-261.69664	104.91543
30400.00000	104.98513	-262.98437	104.98513
30450.00000	105.09130	-264.26784	105.09130
30500.00000	105.25120	-265.64917	105.25120
30550.00000	105.32618	-266.99721	105.32618
30600.00000	105.47320	-268.41726	105.47320
30650.00000	105.59697	-269.68403	105.59697
30700.00000	105.73702	-271.12594	105.73702
30750.00000	105.84029	-272.61343	105.84029
30800.00000	105.95386	-273.97399	105.95386
30850.00000	106.09826	-275.45880	106.09826
30900.00000	106.24342	-277.04580	106.24342
30950.00000	106.36222	-278.58317	106.36222
31000.00000	106.52221	-279.93219	106.52221
31050.00000	106.67290	-281.46854	106.67290
31100.00000	106.83894	-282.99519	106.83894
31150.00000	106.97972	-284.61317	106.97972
31200.00000	107.11304	-286.34207	107.11304
31250.00000	107.30662	-287.83612	107.30662
31300.00000	107.47160	-289.56147	107.47160
31350.00000	107.63858	-291.07560	107.63858
31400.00000	107.80229	-292.77019	107.80229
31450.00000	107.98615	-294.41956	107.98615
31500.00000	108.13228	-296.21556	108.13228
31550.00000	108.32899	-298.14026	108.32899
31600.00000	108.52991	-300.13688	108.52991
31650.00000	108.71163	-302.02693	108.71163
31700.00000	108.86790	-303.88452	108.86790
31750.00000	109.06103	-305.87099	109.06103
31800.00000	109.22754	-307.96781	109.22754
31850.00000	109.40259	-309.75140	109.40259
31900.00000	109.56977	-311.96741	109.56977
31950.00000	109.77554	-314.13718	109.77554
32000.00000	109.93389	-316.25744	109.93389
32050.00000	110.10722	-318.51807	110.10722
32100.00000	110.30166	-320.62292	110.30166
32150.00000	110.45291	-322.90745	110.45291
32200.00000	110.62281	-325.20965	110.62281
32250.00000	110.81181	-327.38756	110.81181
32300.00000	110.95688	-329.66108	110.95688
32350.00000	111.12887	-332.06723	111.12887
32400.00000	111.28996	-334.46671	111.28996
32450.00000	111.46278	-336.92153	111.46278
32500.00000	111.59582	-339.38437	111.59582
32550.00000	111.74545	-341.77281	111.74545
32600.00000	111.91032	-344.28060	111.91032
32650.00000	112.06415	-346.89600	112.06415
32700.00000	112.18128	-349.33362	112.18128
32750.00000	112.31634	-351.96989	112.31634
32800.00000	112.44575	-354.56093	112.44575
32850.00000	112.59865	-357.22124	112.59865
32900.00000	112.69675	-359.76417	112.69675
32950.00000	112.82846	-362.42633	112.82846
33000.00000	112.94743	-365.14765	112.94743
33050.00000	113.03657	-367.75447	113.03657
33100.00000	113.14810	-370.58422	113.14810
33150.00000	113.23222	-373.12296	113.23222
33200.00000	113.31525	-375.80259	113.31525
33250.00000	113.36499	-378.46190	113.36499
33300.00000	113.44907	-381.03022	113.44907
33350.00000	113.53292	-383.80521	113.53292
33400.00000	113.58062	-386.45680	113.58062
33450.00000	113.63380	-389.10479	113.63380
33500.00000	113.68094	-391.58738	113.68094
33550.00000	113.72020	-394.16812	113.72020
33600.00000	113.76785	-396.60814	113.76785
33650.00000	113.78954	-399.21319	113.78954
33700.00000	113.80552	-401.64449	113.80552
33750.00000	113.82724	-404.02846	113.82724
33800.00000	113.85559	-406.39828	113.85559
33850.00000	113.89787	-408.52949	113.89787
33900.00000	113.90375	-410.88714	113.90375
33950.00000	113.95288	-412.98909	113.95288
34000.00000	113.98481	-415.03615	113.98481
34050.00000	114.00633	-416.99448	114.00633
34100.00000	114.04387	-419.16845	114.04387
34150.00000	114.08633	-421.17124	114.08633
34200.00000	114.13493	-423.07778	114.13493
34250.00000	114.19409	-425.05881	114.19409
34300.00000	114.26735	-427.03250	114.26735
34350.00000	114.33790	-428.93902	114.33790
34400.00000	114.42929	-430.95352	114.42929
34450.00000	114.49832	-432.87989	114.49832
34500.00000	114.56760	-434.83923	114.56760
34550.00000	114.67123	-436.77443	114.67123
34600.00000	114.76190	-438.80732	114.76190
34650.00000	114.86824	-440.81021	114.86824
34700.00000	114.96141	-442.73336	114.96141
34750.00000	115.07645	-444.89942	115.07645
34800.00000	115.16818	-447.12469	115.16818
34850.00000	115.27452	-449.32228	115.27452
34900.00000	115.33747	-451.43305	115.33747
34950.00000	115.38358	-453.40740	115.38358
35000.00000	115.44704	-455.02941	115.44704
35050.00000	115.55316	-456.72170	115.55316
35100.00000	115.68238	-458.41339	115.68238
35150.00000	115.82418	-460.12312	115.82418
35200.00000	115.98782	-461.90731	115.98782
35250.00000	116.13627	-463.71599	116.13627
35300.00000	116.29720	-465.61380	116.29720
35350.00000	116.46705	-467.52512	116.46705
35400.00000	116.65236	-469.59111	116.65236
35450.00000	116.82830	-471.55932	116.82830
35500.00000	117.01606	-473.52947	117.01606
35550.00000	117.19138	-475.62120	117.19138
35600.00000	117.39762	-477.77439	117.39762
35650.00000	117.60319	-479.89013	117.60319
35700.00000	117.80879	-482.08522	117.80879
35750.00000	118.00963	-484.18414	118.00963
35800.00000	118.24490	-486.48318	118.24490
35850.00000	118.45739	-488.78186	118.45739
35900.00000	118.68385	-491.05712	118.68385
35950.00000	118.92954	-493.43201	118.92954
36000.00000	119.16964	-495.84102	119.16964
36050.00000	119.41524	-498.36704	119.41524
36100.00000	119.66149	-500.91598	119.66149
36150.00000	119.91310	-503.57405	119.91310
36200.00000	120.17916	-506.34004	120.17916
36250.00000	120.42965	-509.13767	120.42965
36300.00000	120.68649	-511.95909	120.68649
36350.00000	120.95104	-514.91501	120.95104
36400.00000	121.20964	-517.96883	121.20964
36450.00000	121.46769	-521.11176	121.46769
36500.00000	121.73151	-524.33476	121.73151
36550.00000	121.99580	-527.61475	121.99580
36600.00000	122.24576	-530.99779	122.24576
36650.00000	122.48274	-534.42389	122.48274
36700.00000	122.72936	-537.97384	122.72936
36750.00000	122.95742	-541.57510	122.95742
36800.00000	123.19873	-545.29566	123.19873
36850.00000	123.41752	-549.00243	123.41752
36900.00000	123.62047	-552.84050	123.62047
36950.00000	123.82180	-556.70634	123.82180
37000.00000	124.01600	-560.59438	124.01600
37050.00000	124.20394	-564.53273	124.20394
37100.00000	124.37964	-568.56314	124.37964
37150.00000	124.54865	-572.57152	124.54865
37200.00000	124.70342	-576.60250	124.70342
37250.00000	124.86030	-580.72166	124.86030
37300.00000	125.00713	-584.83022	125.00713
37350.00000	125.15112	-588.98727	125.15112
37400.00000	125.29194	-593.26272	125.29194
37450.00000	125.41802	-597.49223	125.41802
37500.00000	125.54121	-601.80225	125.54121
37550.00000	125.67200	-606.24964	125.67200
37600.00000	125.78761	-610.71910	125.78761
37650.00000	125.89957	-615.29776	125.89957
37700.00000	125.98520	-619.87422	125.98520
37750.00000	126.06852	-624.66781	126.06852
37800.00000	126.12467	-629.54218	126.12467
37850.00000	126.17231	-634.44189	126.17231
37900.00000	126.18319	-639.47964	126.18319
37950.00000	126.15760	-644.52522	126.15760
38000.00000	126.11112	-649.53690	126.11112
38050.00000	126.02319	-654.68162	126.02319
38100.00000	125.90363	-659.61391	125.90363
38150.00000	125.75216	-664.46856	125.75216
38200.00000	125.57238	-669.16064	125.57238
38250.00000	125.36175	-673.64703	125.36175
38300.00000	125.15652	-677.99345	125.15652
38350.00000	124.94117	-682.12842	124.94117
38400.00000	124.72832	-686.05690	124.72832
38450.00000	124.51433	-689.82814	124.51433
38500.00000	124.31160	-693.42929	124.31160
38550.00000	124.11876	-697.06029	124.11876
38600.00000	123.93796	-700.54834	123.93796
38650.00000	123.77146	-704.02617	123.77146
38700.00000	123.60562	-707.42669	123.60562
38750.00000	123.44712	-710.82866	123.44712
38800.00000	123.28882	-714.28261	123.28882
38850.00000	123.14633	-717.79659	123.14633
38900.00000	122.99500	-721.30429	122.99500
38950.00000	122.84104	-724.77573	122.84104
39000.00000	122.68191	-728.34385	122.68191
39050.00000	122.52285	-731.94462	122.52285
39100.00000	122.34277	-735.60961	122.34277
39150.00000	122.15042	-739.17293	122.15042
39200.00000	121.94454	-742.72656	121.94454
39250.00000	121.72642	-746.13571	121.72642
39300.00000	121.49592	-749.52875	121.49592
39350.00000	121.27380	-752.83999	121.27380
39400.00000	121.05296	-756.16730	121.05296
39450.00000	120.83370	-759.28905	120.83370
39500.00000	120.59548	-762.44971	120.59548
39550.00000	120.36159	-765.52248	120.36159
39600.00000	120.12180	-768.70293	120.12180
39650.00000	119.88431	-771.73604	119.88431
39700.00000	119.63273	-774.72453	119.63273
39750.00000	119.36530	-777.53710	119.36530
39800.00000	119.08827	-780.23658	119.08827
39850.00000	118.83505	-782.93392	118.83505
39900.00000	118.57351	-785.46772	118.57351
39950.00000	118.32905	-787.86745	118.32905
40000.00000	118.09135	-790.24064	118.09135
40050.00000	117.86140	-792.54637	117.86140
40100.00000	117.63588	-794.85179	117.63588
40150.00000	117.43967	-797.08008	117.43967
40200.00000	117.24282	-799.31308	117.24282
40250.00000	117.06684	-801.48787	117.06684
40300.00000	116.87979	-803.71983	116.87979
40350.00000	116.71188	-805.95791	116.71188
40400.00000	116.54846	-808.27308	116.54846
40450.00000	116.38542	-810.66486	116.38542
40500.00000	116.22924	-812.91724	116.22924
40550.00000	116.05085	-815.36307	116.05085
40600.00000	115.87917	-817.74196	115.87917
40650.00000	115.72576	-820.11640	115.72576
40700.00000	115.53642	-822.65518	115.53642
40750.00000	115.34854	-825.02784	115.34854
40800.00000	115.14735	-827.49390	115.14735
40850.00000	114.96006	-830.04247	114.96006
40900.00000	114.75595	-832.40286	114.75595
40950.00000	114.53718	-834.82775	114.53718
41000.00000	114.31445	-837.22000	114.31445
41050.00000	114.05633	-839.50383	114.05633
41100.00000	113.80788	-841.79852	113.80788
41150.00000	113.57008	-843.95414	113.57008
41200.00000	113.28953	-845.97316	113.28953
41250.00000	113.03465	-847.83925	113.03465
41300.00000	112.75784	-849.76347	112.75784
41350.00000	112.45924	-851.53266	112.45924
41400.00000	112.19418	-853.08440	112.19418
41450.00000	111.93150	-854.33028	111.93150
41500.00000	111.61403	-855.37375	111.61403
41550.00000	111.35523	-856.44269	111.35523
41600.00000	111.09258	-857.47828	111.09258
41650.00000	110.86480	-858.10064	110.86480
41700.00000	110.66116	-858.58255	110.66116
41750.00000	110.46120	-858.82956	110.46120
41800.00000	110.28634	-859.30447	110.28634
41850.00000	110.17309	-859.56048	110.17309
41900.00000	110.11209	-859.78654	110.11209
41950.00000	110.04238	-859.79568	110.04238
42000.00000	110.02801	-860.02746	110.02801
42050.00000	110.02916	-860.33440	110.02916
42100.00000	110.12093	-860.46527	110.12093
42150.00000	110.23309	-861.07112	110.23309
42200.00000	110.34422	-861.46086	110.34422
42250.00000	110.46474	-862.36163	110.46474
42300.00000	110.62563	-863.42427	110.62563
42350.00000	110.81231	-864.61774	110.81231
42400.00000	111.02034	-865.88146	111.02034
42450.00000	111.15932	-867.45962	111.15932
42500.00000	111.32498	-869.28104	111.32498
42550.00000	111.48688	-871.22778	111.48688
42600.00000	111.61727	-873.58549	111.61727
42650.00000	111.80653	-875.52158	111.80653
42700.00000	111.92751	-877.80505	111.92751
42750.00000	112.06743	-880.38460	112.06743
42800.00000	112.15283	-882.98271	112.15283
42850.00000	112.27581	-885.79548	112.27581
42900.00000	112.35094	-888.17103	112.35094
42950.00000	112.39654	-891.01317	112.39654
43000.00000	112.46249	-893.74379	112.46249
43050.00000	112.49399	-896.40560	112.49399
43100.00000	112.53822	-899.45746	112.53822
43150.00000	112.53940	-901.84590	112.53940
43200.00000	112.53488	-904.89542	112.53488
43250.00000	112.52386	-907.40695	112.52386
43300.00000	112.54346	-909.99029	112.54346
43350.00000	112.52923	-912.43923	112.52923
43400.00000	112.48413	-915.08716	112.48413
43450.00000	112.44960	-917.69162	112.44960
43500.00000	112.40848	-920.19059	112.40848
43550.00000	112.39467	-922.40639	112.39467
43600.00000	112.31377	-924.90520	112.31377
43650.00000	112.29811	-927.18009	112.29811
43700.00000	112.23739	-929.75586	112.23739
43750.00000	112.22802	-932.48549	112.22802
43800.00000	112.21077	-934.93427	112.21077
43850.00000	112.13153	-937.10663	112.13153
43900.00000	112.14364	-939.45543	112.14364
43950.00000	112.07945	-942.02787	112.07945
44000.00000	112.05692	-944.36894	112.05692
44050.00000	112.06399	-946.65393	112.06399
44100.00000	112.02073	-949.10181	112.02073
44150.00000	112.03777	-951.58084	112.03777
44200.00000	112.00755	-954.18487	112.00755
44250.00000	111.98851	-956.63546	111.98851
44300.00000	111.95288	-959.26436	111.95288
44350.00000	111.92519	-961.41205	111.92519
44400.00000	111.91846	-964.07217	111.91846
44450.00000	111.92042	-966.63171	111.92042
44500.00000	111.89684	-969.05190	111.89684
44550.00000	111.80445	-971.57865	111.80445
44600.00000	111.76437	-974.29647	111.76437
44650.00000	111.66657	-977.14007	111.66657
44700.00000	111.61040	-979.55395	111.61040
44750.00000	111.53386	-982.35069	111.53386
44800.00000	111.44213	-985.04621	111.44213
44850.00000	111.34086	-988.02565	111.34086
44900.00000	111.26170	-990.65008	111.26170
44950.00000	111.15079	-993.22465	111.15079
45000.00000	110.98764	-995.94041	110.98764
45050.00000	110.80915	-998.60911	110.80915
45100.00000	110.69367	-1000.92985	110.69367
45150.00000	110.54104	-1003.26430	110.54104
45200.00000	110.38564	-1005.71566	110.38564
45250.00000	110.19231	-1008.33892	110.19231
45300.00000	110.10400	-1011.45295	110.10400
45350.00000	109.87259	-1012.18644	109.87259
45400.00000	109.77804	-1014.33591	109.77804
45450.00000	109.65286	-1015.98009	109.65286
45500.00000	109.47692	-1017.89950	109.47692
45550.00000	109.35749	-1020.02951	109.35749
45600.00000	109.24291	-1022.01553	109.24291
45650.00000	109.02185	-1024.21043	109.02185
45700.00000	108.73353	-1025.82147	108.73353
45750.00000	108.57187	-1027.16413	108.57187
45800.00000	108.38350	-1028.74314	108.38350
45850.00000	108.25284	-1029.20902	108.25284
45900.00000	108.17197	-1030.54823	108.17197
45950.00000	108.01793	-1032.03102	108.01793
46000.00000	108.02591	-1033.34035	108.02591
46050.00000	107.96568	-1034.71130	107.96568
46100.00000	107.79041	-1036.52723	107.79041
46150.00000	107.73261	-1037.75711	107.73261
46200.00000	107.62509	-1039.41877	107.62509
46250.00000	107.49900	-1040.99500	107.49900
46300.00000	107.38360	-1041.54284	107.38360
46350.00000	107.31287	-1042.74654	107.31287
46400.00000	107.21298	-1043.82030	107.21298
46450.00000	107.10947	-1044.43226	107.10947
46500.00000	107.06708	-1044.86515	107.06708
46550.00000	106.96525	-1045.55465	106.96525
46600.00000	107.03707	-1046.44148	107.03707
46650.00000	106.99266	-1046.67134	106.99266
46700.00000	107.05760	-1047.30686	107.05760
46750.00000	107.08385	-1048.37606	107.08385
46800.00000	107.18545	-1048.88736	107.18545
46850.00000	107.19537	-1049.80249	107.19537
46900.00000	107.40455	-1050.92062	107.40455
46950.00000	107.46760	-1050.87382	107.46760
47000.00000	107.55831	-1052.32538	107.55831
47050.00000	107.71999	-1054.15208	107.71999
47100.00000	107.89186	-1054.80980	107.89186
47150.00000	108.09754	-1055.51080	108.09754
47200.00000	108.21133	-1057.49361	108.21133
47250.00000	108.39854	-1058.45029	108.39854
47300.00000	108.61196	-1060.17039	108.61196
47350.00000	108.80953	-1061.57636	108.80953
47400.00000	108.84834	-1062.68582	108.84834
47450.00000	109.16869	-1064.80082	109.16869
47500.00000	109.33393	-1065.75909	109.33393
47550.00000	109.57594	-1067.62124	109.57594
47600.00000	109.73426	-1070.01059	109.73426
47650.00000	109.85307	-1071.83449	109.85307
47700.00000	110.12712	-1074.55705	110.12712
47750.00000	110.32990	-1076.33223	110.32990
47800.00000	110.52373	-1078.39119	110.52373
47850.00000	110.68624	-1080.77111	110.68624
47900.00000	110.86866	-1082.39111	110.86866
47950.00000	111.15074	-1085.19259	111.15074
48000.00000	111.36341	-1087.80304	111.36341
48050.00000	111.59066	-1089.92857	111.59066
48100.00000	111.67705	-1093.10963	111.67705
48150.00000	111.99780	-1095.57150	111.99780
48200.00000	112.14359	-1098.52410	112.14359
48250.00000	112.30079	-1100.93464	112.30079
48300.00000	112.59555	-1103.57358	112.59555
48350.00000	112.80597	-1106.51178	112.80597
48400.00000	112.90061	-1109.50621	112.90061
48450.00000	113.11053	-1112.49130	113.11053
48500.00000	113.25370	-1115.56066	113.25370
48550.00000	113.44676	-1118.72794	113.44676
48600.00000	113.60388	-1122.29304	113.60388
48650.00000	113.77901	-1125.14973	113.77901
48700.00000	113.88029	-1128.10793	113.88029
48750.00000	114.09726	-1132.06517	114.09726
48800.00000	114.18787	-1134.74813	114.18787
48850.00000	114.24447	-1139.14397	114.24447
48900.00000	114.52877	-1142.24039	114.52877
48950.00000	114.54827	-785.76368	114.54827
49000.00000	114.72666	-429.75478	114.72666
49050.00000	114.84154	-73.90497	114.84154
49100.00000	114.97606	282.90173	114.97606
49150.00000	115.05321	638.35166	115.05321
49200.00000	115.01593	995.55582	115.01593
49250.00000	115.16397	1351.87034	115.16397
49300.00000	115.22862	1708.15136	115.22862
49350.00000	115.21113	2064.24865	115.21113
49400.00000	115.08511	2419.28121	115.08511
49450.00000	115.17529	2776.03057	115.17529
49500.00000	115.12198	3132.79332	115.12198
49550.00000	115.09118	3488.48566	115.09118
49600.00000	115.07748	3845.06736	115.07748
49650.00000	115.05456	4200.06521	115.05456
49700.00000	114.83974	4556.75517	114.83974
49750.00000	114.79908	4913.66958	114.79908
49800.00000	114.66120	4910.76655	114.66120
49850.00000	114.62036	5625.57335	114.62036
49900.00000	114.59965	5622.86454	114.59965
49950.00000	114.36215	5979.90207	114.36215
50000.00000	114.36592	5976.67784	114.36592
50050.00000	114.15506	5973.45556	114.15506
50100.00000	114.00745	5970.06300	114.00745
50150.00000	114.02939	5966.84008	114.02939
50200.00000	113.88594	5963.75071	113.88594
50250.00000	113.66727	5960.99401	113.66727
50300.00000	113.63261	5957.91754	113.63261
50350.00000	113.50650	5955.73993	113.50650
50400.00000	113.49695	5952.72949	113.49695
50450.00000	113.25566	5949.84102	113.25566
50500.00000	113.16784	5948.03661	113.16784
50550.00000	113.04045	5944.80972	113.04045
50600.00000	113.01305	5941.84945	113.01305
50650.00000	112.98856	5939.68743	112.98856
50700.00000	112.76538	5936.27269	112.76538
50750.00000	112.75040	5933.85435	112.75040
50800.00000	112.70692	5930.95923	112.70692
50850.00000	112.62298	5928.49716	112.62298
50900.00000	112.44074	5925.18826	112.44074
50950.00000	112.53395	5922.32493	112.53395
51000.00000	112.59345	5919.32220	112.59345
51050.00000	112.49530	5917.15162	112.49530
51100.00000	112.39755	5913.56760	112.39755
51150.00000	112.31515	5910.26062	112.31515
51200.00000	112.23399	5907.22775	112.23399
51250.00000	112.18773	5904.69425	112.18773
51300.00000	112.20518	5900.50561	112.20518
51350.00000	112.11032	5899.07323	112.11032
51400.00000	111.99801	5894.28939	111.99801
51450.00000	111.75859	5891.89733	111.75859
51500.00000	111.75418	5888.55016	111.75418
51550.00000	111.63314	5885.36146	111.63314
51600.00000	111.45585	5881.68897	111.45585
51650.00000	111.12804	5878.59850	111.12804
51700.00000	111.09662	5875.08872	111.09662
51750.00000	110.85180	5872.74779	110.85180
51800.00000	110.64716	5869.27737	110.64716
51850.00000	110.43058	5865.59307	110.43058
51900.00000	110.22909	5862.97641	110.22909
51950.00000	109.78113	5860.42719	109.78113
52000.00000	109.48246	5858.15541	109.48246
52050.00000	109.40083	5855.47834	109.40083
52100.00000	109.06612	5853.79187	109.06612
52150.00000	108.80819	5852.46650	108.80819
52200.00000	108.49242	5850.24889	108.49242
52250.00000	108.28474	5847.59978	108.28474
52300.00000	107.90889	5848.21570	107.90889
52350.00000	107.88408	5846.20872	107.88408
52400.00000	107.63217	5844.15867	107.63217
52450.00000	107.59170	5842.70403	107.59170
52500.00000	107.45824	5841.28939	107.45824
52550.00000	107.31341	5841.24011	107.31341
52600.00000	107.06359	5839.22962	107.06359
52650.00000	107.12175	5837.62429	107.12175
52700.00000	107.13603	5836.53942	107.13603
52750.00000	107.05522	5835.58052	107.05522
52800.00000	107.13312	5833.68294	107.13312
52850.00000	107.00186	5831.98982	107.00186
52900.00000	107.08225	5829.80252	107.08225
52950.00000	107.05316	5829.00066	107.05316
53000.00000	106.98649	5826.29758	106.98649
53050.00000	107.08149	5824.20533	107.08149
53100.00000	107.12315	5822.37981	107.12315
53150.00000	107.12301	5821.15118	107.12301
53200.00000	106.98041	5818.84782	106.98041
53250.00000	107.17507	5816.77866	107.17507
53300.00000	107.14692	5813.64009	107.14692
53350.00000	107.06227	5812.16423	107.06227
53400.00000	107.23285	5810.22143	107.23285
53450.00000	107.20336	5807.30670	107.20336
53500.00000	107.26816	5805.38783	107.26816
53550.00000	107.33117	5802.26130	107.33117
53600.00000	107.28500	5799.31869	107.28500
53650.00000	107.44542	5796.66444	107.44542
53700.00000	107.42157	5794.09387	107.42157
53750.00000	107.42073	5790.74246	107.42073
53800.00000	107.42277	5788.77062	107.42277
53850.00000	107.42869	5785.70437	107.42869
53900.00000	107.41085	5783.64929	107.41085
53950.00000	107.40080	5779.71861	107.40080
54000.00000	107.37016	5776.17271	107.37016
54050.00000	107.39353	5773.60389	107.39353
54100.00000	107.39283	5769.94512	107.39283
54150.00000	107.37358	5766.23816	107.37358
54200.00000	107.23724	5763.45246	107.23724
54250.00000	107.13988	5759.15071	107.13988
54300.00000	107.06360	5755.34089	107.06360
54350.00000	106.96038	5752.10701	106.96038
54400.00000	106.98263	5749.51179	106.98263
54450.00000	106.73737	5744.83197	106.73737
54500.00000	106.50496	5741.68038	106.50496
54550.00000	106.35256	5738.63844	106.35256
54600.00000	106.12558	5736.10510	106.12558
54650.00000	105.98247	5731.07710	105.98247
54700.00000	105.74134	5728.26636	105.74134
54750.00000	105.62740	5725.26833	105.62740
54800.00000	105.28165	5721.84674	105.28165
54850.00000	104.90932	5719.35656	104.90932
54900.00000	104.81245	5715.35462	104.81245
54950.00000	104.44778	5713.54068	104.44778
55000.00000	104.31403	5710.67970	104.31403
55050.00000	103.90780	5707.66200	103.90780
55100.00000	103.72706	5705.24244	103.72706
55150.00000	103.49180	5702.83211	103.49180
55200.00000	103.07477	5699.55420	103.07477
55250.00000	102.82796	5697.13838	102.82796
55300.00000	102.66924	5695.18840	102.66924
55350.00000	102.28504	5693.47242	102.28504
55400.00000	101.88420	5690.01602	101.88420
55450.00000	101.77892	5688.44676	101.77892
55500.00000	101.60244	5686.97246	101.60244
55550.00000	101.34197	5684.07960	101.34197
55600.00000	100.96142	5682.19836	100.96142
55650.00000	100.85762	5680.02135	100.85762
55700.00000	100.55658	5677.89126	100.55658
55750.00000	100.38391	5675.95154	100.38391
55800.00000	100.04197	5673.71919	100.04197
55850.00000	99.89845	5671.97311	99.89845
55900.00000	99.60412	5669.91324	99.60412
55950.00000	99.36056	5667.60336	99.36056
56000.00000	99.19088	5665.26766	99.19088
56050.00000	98.87925	5663.64327	98.87925
56100.00000	98.53369	5660.91136	98.53369
56150.00000	98.44647	5658.77864	98.44647
56200.00000	98.06044	5658.13854	98.06044
56250.00000	97.82978	5655.41770	97.82978
56300.00000	97.58725	5652.68239	97.58725
56350.00000	97.22506	5651.34394	97.22506
56400.00000	96.80683	5650.35240	96.80683
56450.00000	96.53579	5648.09042	96.53579
56500.00000	96.17049	5645.71288	96.17049
56550.00000	95.81026	5645.00686	95.81026
56600.00000	95.37298	5643.42613	95.37298
56650.00000	94.96585	5642.64055	94.96585
56700.00000	94.45958	5641.80895	94.45958
56750.00000	94.36190	5642.42414	94.36190
56800.00000	94.05557	5642.18390	94.05557
56850.00000	93.64526	5642.17030	93.64526
56900.00000	93.52839	5642.65028	93.52839
56950.00000	93.31992	5643.86532	93.31992
57000.00000	92.84183	5643.31456	92.84183
57050.00000	93.06980	5642.62102	93.06980
57100.00000	92.80449	5645.23434	92.80449
57150.00000	92.90903	5646.20437	92.90903
57200.00000	92.78093	5645.73372	92.78093
57250.00000	92.86098	5644.09808	92.86098
57300.00000	93.05727	5645.11978	93.05727
57350.00000	92.92366	5643.79528	92.92366
57400.00000	93.01612	5643.10277	93.01612
57450.00000	93.06686	5641.52771	93.06686
57500.00000	92.97083	5643.09507	92.97083
57550.00000	92.98947	5639.72888	92.98947
57600.00000	93.27047	5640.21403	93.27047
57650.00000	93.12169	5638.47608	93.12169
57700.00000	93.06536	5637.81652	93.06536
57750.00000	93.09139	5636.95539	93.09139
57800.00000	93.21349	5636.10807	93.21349
57850.00000	93.06615	5634.45679	93.06615
57900.00000	93.08980	5633.09266	93.08980
57950.00000	93.04120	5632.52088	93.04120
58000.00000	93.06514	5632.25180	93.06514
58050.00000	93.06294	5631.43868	93.06294
58100.00000	93.14477	5629.24586	93.14477
58150.00000	93.21685	5629.00739	93.21685
58200.00000	93.07484	5627.97795	93.07484
58250.00000	93.18982	5627.09937	93.18982
58300.00000	93.27172	5625.83873	93.27172
58350.00000	93.30900	5625.49448	93.30900
58400.00000	93.14535	5624.24926	93.14535
58450.00000	93.31992	5624.13858	93.31992
58500.00000	93.49560	5621.94200	93.49560
58550.00000	93.27544	5621.61865	93.27544
58600.00000	93.50853	5619.84307	93.50853
58650.00000	93.48348	5619.62939	93.48348
58700.00000	93.60673	5619.94647	93.60673
58750.00000	93.56971	5617.37970	93.56971
58800.00000	93.79163	5617.53035	93.79163
58850.00000	93.86711	5616.67221	93.86711
58900.00000	93.89860	5615.91944	93.89860
58950.00000	93.98281	5615.45109	93.98281
59000.00000	94.21313	5614.88584	94.21313
59050.00000	94.36763	5613.91656	94.36763
59100.00000	94.44890	5613.49281	94.44890
59150.00000	94.77666	5612.20917	94.77666
59200.00000	94.94489	5612.00295	94.94489
59250.00000	95.02095	5611.10063	95.02095
59300.00000	95.36996	5610.14644	95.36996
59350.00000	95.61905	5608.94090	95.61905
59400.00000	95.81316	5608.75079	95.81316
59450.00000	96.10963	5607.21613	96.10963
59500.00000	96.50802	5605.86918	96.50802
59550.00000	96.81850	5605.09052	96.81850
59600.00000	97.18898	5603.66122	97.18898
59650.00000	97.60550	5601.74502	97.60550
59700.00000	98.07540	5600.29455	98.07540
59750.00000	98.54218	5597.65248	98.54218
59800.00000	99.00761	5594.65119	99.00761
59850.00000	99.48775	5592.43255	99.48775
59900.00000	99.86241	5588.80137	99.86241
59950.00000	100.33057	5585.06748	100.33057
60000.00000	100.75985	5581.20508	100.75985
60050.00000	101.08510	5576.64670	101.08510
60100.00000	101.34367	5571.72363	101.34367
60150.00000	101.61083	5567.18690	101.61083
60200.00000	101.77611	5562.27523	101.77611
60250.00000	101.91146	5557.32657	101.91146
60300.00000	101.93561	5552.24474	101.93561
60350.00000	101.99531	5547.70513	101.99531
60400.00000	102.00188	5543.15399	102.00188
60450.00000	101.96302	5538.82081	101.96302
60500.00000	101.94114	5534.51170	101.94114
60550.00000	101.81455	5530.08275	101.81455
60600.00000	101.73414	5526.05406	101.73414
60650.00000	101.66921	5522.21168	101.66921
60700.00000	101.51178	5518.05099	101.51178
60750.00000	101.40098	5514.01767	101.40098
60800.00000	101.29539	5510.47152	101.29539
60850.00000	101.08781	5506.86148	101.08781
60900.00000	100.95887	5503.28955	100.95887
60950.00000	100.77083	5499.50459	100.77083
61000.00000	100.55716	5496.39300	100.55716
61050.00000	100.36146	5493.18602	100.36146
61100.00000	100.11736	5490.11087	100.11736
61150.00000	99.90901	5487.39299	99.90901
61200.00000	99.68541	5484.14824	99.68541
61250.00000	99.49502	5481.04736	99.49502
61300.00000	99.24060	5478.87115	99.24060
61350.00000	98.97973	5476.31517	98.97973
61400.00000	98.71674	5473.61889	98.71674
61450.00000	98.50803	5471.54482	98.50803
61500.00000	98.25940	5469.65833	98.25940
61550.00000	98.02169	5467.89137	98.02169
61600.00000	97.80356	5465.70550	97.80356
61650.00000	97.67164	5464.10696	97.67164
61700.00000	97.36574	5462.80850	97.36574
61750.00000	97.25267	5461.17453	97.25267
61800.00000	97.12855	5460.45930	97.12855
61850.00000	96.95464	5458.97729	96.95464
61900.00000	96.86368	5457.48025	96.86368
61950.00000	96.77801	5456.88988	96.77801
62000.00000	96.71520	5455.35212	96.71520
62050.00000	96.66851	5454.03929	96.66851
62100.00000	96.81663	5453.26168	96.81663
62150.00000	96.73418	5452.05884	96.73418
62200.00000	96.80531	5450.51108	96.80531
62250.00000	96.89254	5448.74113	96.89254
62300.00000	96.83662	5447.58065	96.83662
62350.00000	96.87782	5445.05021	96.87782
62400.00000	96.95794	5443.31313	96.95794
62450.00000	97.00517	5441.73125	97.00517
62500.00000	96.96695	5439.74053	96.96695
62550.00000	97.03304	5437.12558	97.03304
62600.00000	97.17870	5436.01670	97.17870
62650.00000	97.08218	5433.55232	97.08218
62700.00000	97.26753	5430.94993	97.26753
62750.00000	97.25269	5429.43111	97.25269
62800.00000	97.31827	5426.97172	97.31827
62850.00000	97.38025	5424.68118	97.38025
62900.00000	97.48713	5423.04009	97.48713
62950.00000	97.41146	5420.73679	97.41146
63000.00000	97.35684	5418.14408	97.35684
63050.00000	97.55998	5416.40215	97.55998
63100.00000	97.46126	5413.58990	97.46126
63150.00000	97.44326	5411.80846	97.44326
63200.00000	97.54663	5409.13597	97.54663
63250.00000	97.56953	5407.54102	97.56953
63300.00000	97.49621	5404.91860	97.49621
63350.00000	97.71716	5402.61160	97.71716
63400.00000	97.74718	5400.79156	97.74718
63450.00000	97.72566	5398.94664	97.72566
63500.00000	97.70135	5396.64088	97.70135
63550.00000	97.89020	5394.61821	97.89020
63600.00000	97.92950	5392.27351	97.92950
63650.00000	98.05449	5388.96085	98.05449
63700.00000	98.13172	5387.17513	98.13172
63750.00000	98.26058	5384.92180	98.26058
63800.00000	98.43083	5381.80958	98.43083
63850.00000	98.52996	5379.58309	98.52996
63900.00000	98.60932	5376.34184	98.60932
63950.00000	98.72027	5372.42004	98.72027
64000.00000	98.82622	5369.14585	98.82622
64050.00000	98.83889	5365.52301	98.83889
64100.00000	98.74391	5361.59163	98.74391
64150.00000	98.63577	5358.07486	98.63577
64200.00000	98.48760	5355.68779	98.48760
64250.00000	98.24118	5352.13758	98.24118
64300.00000	98.19580	5349.81890	98.19580
64350.00000	98.04535	5349.09216	98.04535
64400.00000	97.78715	5346.76483	97.78715
64450.00000	97.95479	5344.66831	97.95479
64500.00000	97.95284	5343.42984	97.95284
64550.00000	97.85138	5341.44804	97.85138
64600.00000	98.00456	5339.88413	98.00456
64650.00000	98.10807	5337.47349	98.10807
64700.00000	98.14364	5334.68984	98.14364
64750.00000	98.36961	5332.32217	98.36961
64800.00000	98.42242	5330.63293	98.42242
64850.00000	98.41858	5327.41588	98.41858
64900.00000	98.65238	5324.59597	98.65238
64950.00000	98.80671	5321.87605	98.80671
65000.00000	98.76448	5318.99269	98.76448
65050.00000	98.91866	5315.90676	98.91866
65100.00000	99.11374	5312.22535	99.11374
65150.00000	99.01196	5309.33395	99.01196
65200.00000	99.16441	5305.18791	99.16441
65250.00000	99.35656	5302.18316	99.35656
65300.00000	99.12765	5298.62316	99.12765
65350.00000	99.25911	5294.00435	99.25911
65400.00000	99.28543	5290.11701	99.28543
65450.00000	99.12150	5286.79454	99.12150
65500.00000	98.97538	5282.86140	98.97538
65550.00000	99.02553	5279.25413	99.02553
65600.00000	98.80132	5276.14093	98.80132
65650.00000	98.71618	5271.37797	98.71618
65700.00000	98.57720	5268.41261	98.57720
65750.00000	98.41947	5265.70273	98.41947
65800.00000	98.13887	5261.38654	98.13887
65850.00000	98.11342	5258.83144	98.11342
65900.00000	97.78523	5255.76129	97.78523
65950.00000	97.61395	5252.35159	97.61395
66000.00000	97.65586	5249.22683	97.65586
66050.00000	97.28980	5246.69191	97.28980
66100.00000	97.13939	5243.51325	97.13939
66150.00000	97.02357	5241.07457	97.02357
66200.00000	96.73747	5238.48535	96.73747
66250.00000	96.40759	5235.83655	96.40759
66300.00000	96.35168	5232.89372	96.35168
66350.00000	96.16398	5231.51330	96.16398
66400.00000	95.92780	5227.98906	95.92780
66450.00000	95.78844	5226.51784	95.78844
66500.00000	95.53475	5224.64674	95.53475
66550.00000	95.23871	5222.19828	95.23871
66600.00000	95.08258	5219.87607	95.08258
66650.00000	95.00375	5219.21857	95.00375
66700.00000	94.76440	5216.43184	94.76440
66750.00000	94.78149	5214.32152	94.78149
66800.00000	94.53532	5213.35594	94.53532
66850.00000	94.44504	5210.78800	94.44504
66900.00000	94.40389	5209.19433	94.40389
66950.00000	94.28229	5208.49296	94.28229
67000.00000	94.15552	5205.29043	94.15552
67050.00000	94.09806	5203.32226	94.09806
67100.00000	93.92492	5201.71734	93.92492
67150.00000	93.74975	5200.03835	93.74975
67200.00000	93.95029	5198.41500	93.95029
67250.00000	93.72917	5196.23356	93.72917
67300.00000	93.64935	5194.04847	93.64935
67350.00000	93.70362	5192.48680	93.70362
67400.00000	93.61788	5191.43297	93.61788
67450.00000	93.50614	5188.64484	93.50614
67500.00000	93.63506	5187.19808	93.63506
67550.00000	93.42354	5185.67862	93.42354
67600.00000	93.44119	5183.57831	93.44119
67650.00000	93.60481	5181.94539	93.60481
67700.00000	93.50618	5180.76379	93.50618
67750.00000	93.44694	5177.48220	93.44694
67800.00000	93.53991	5175.89851	93.53991
67850.00000	93.45868	5173.48280	93.45868
67900.00000	93.44920	5170.89937	93.44920
67950.00000	93.49299	5168.99025	93.49299
68000.00000	93.48567	5166.66202	93.48567
68050.00000	93.43326	5164.43325	93.43326
68100.00000	93.54246	5162.24303	93.54246
68150.00000	93.45744	5160.66933	93.45744
68200.00000	93.43395	5157.35212	93.43395
68250.00000	93.52338	5155.87252	93.52338
68300.00000	93.50449	5153.89619	93.50449
68350.00000	93.40826	5150.85776	93.40826
68400.00000	93.45341	5149.03742	93.45341
68450.00000	93.41978	5147.22790	93.41978
68500.00000	93.49448	5144.10201	93.49448
68550.00000	93.47718	5142.69245	93.47718
68600.00000	93.48379	5140.98795	93.48379
68650.00000	93.44976	5137.94117	93.44976
68700.00000	93.46334	5136.20674	93.46334
68750.00000	93.50159	5134.48499	93.50159
68800.00000	93.63954	5131.82228	93.63954
68850.00000	93.70390	5130.57624	93.70390
68900.00000	93.74717	5128.19479	93.74717
68950.00000	93.93173	5125.98653	93.93173
69000.00000	94.16541	5124.17057	94.16541
69050.00000	94.21008	5121.70330	94.21008
69100.00000	94.52284	5119.19676	94.52284
69150.00000	94.67867	5116.71361	94.67867
69200.00000	94.88377	5113.50578	94.88377
69250.00000	95.16751	5110.39653	95.16751
69300.00000	95.36363	5107.07661	95.36363
69350.00000	95.59864	5102.73055	95.59864
69400.00000	95.83515	5098.68593	95.83515
69450.00000	96.05235	5094.30622	96.05235
69500.00000	96.15384	5089.69414	96.15384
69550.00000	96.27559	5084.94565	96.27559
69600.00000	96.27722	5080.01918	96.27722
69650.00000	96.45678	5075.22033	96.45678
69700.00000	96.41396	5070.20993	96.41396
69750.00000	96.36719	5064.59258	96.36719
69800.00000	96.27254	5059.04516	96.27254
69850.00000	96.18370	5054.13116	96.18370
69900.00000	95.97610	5048.67789	95.97610
69950.00000	95.87439	5043.47063	95.87439
70000.00000	95.61251	5039.05738	95.61251
70050.00000	95.41578	5034.01976	95.41578
70100.00000	95.08035	5028.68788	95.08035
70150.00000	94.65584	5024.08071	94.65584
70200.00000	94.48514	5018.79134	94.48514
70250.00000	94.01259	5014.72914	94.01259
70300.00000	93.50857	5010.25070	93.50857
70350.00000	93.09073	5005.94168	93.09073
70400.00000	92.55739	5001.83009	92.55739
70450.00000	91.94297	4997.84359	91.94297
70500.00000	91.49988	4993.61163	91.49988
70550.00000	90.62353	4991.74396	90.62353
70600.00000	89.81376	4988.65327	89.81376
70650.00000	89.16819	4988.99292	89.16819
70700.00000	88.27674	4989.60116	88.27674
70750.00000	87.86268	4990.09858	87.86268
70800.00000	87.43415	4994.09458	87.43415
70850.00000	87.33182	4997.40977	87.33182
70900.00000	88.01131	4997.80508	88.01131
70950.00000	88.76187	4997.43989	88.76187
71000.00000	89.10152	4995.05185	89.10152
71050.00000	89.67874	4989.31400	89.67874
71100.00000	89.54278	4984.98452	89.54278
71150.00000	89.36250	4979.21167	89.36250
71200.00000	89.48656	4974.52175	89.48656
71250.00000	89.07843	4971.32091	89.07843
71300.00000	88.87460	4964.65873	88.87460
71350.00000	88.77547	4962.51006	88.77547
71400.00000	88.32168	4959.68831	88.32168
71450.00000	88.24408	4953.83227	88.24408
71500.00000	87.91172	4951.09004	87.91172
71550.00000	87.24926	4946.59376	87.24926
71600.00000	87.11520	4941.09297	87.11520
71650.00000	86.28344	4939.70524	86.28344
71700.00000	85.55891	4932.14948	85.55891
71750.00000	85.47273	4929.83950	85.47273
71800.00000	84.11098	4933.47599	84.11098
71850.00000	83.28285	4926.49387	83.28285
71900.00000	83.36326	4929.54154	83.36326
71950.00000	81.88330	4930.63937	81.88330
72000.00000	81.91766	4928.92295	81.91766
72050.00000	81.91011	4933.48882	81.91011
72100.00000	80.97869	4935.87042	80.97869
72150.00000	81.58064	4932.83927	81.58064
72200.00000	81.76085	4939.83418	81.76085
72250.00000	80.97387	4935.93168	80.97387
72300.00000	82.21109	4934.28794	82.21109
72350.00000	81.78502	4937.92543	81.78502
72400.00000	81.56402	4930.59155	81.56402
72450.00000	82.56292	4931.31848	82.56292
72500.00000	81.98131	4933.22483	81.98131
72550.00000	82.48825	4925.11423	82.48825
72600.00000	82.93044	4927.63307	82.93044
72650.00000	82.62434	4925.28920	82.62434
72700.00000	82.92085	4916.54356	82.92085
72750.00000	83.93657	4919.01792	83.93657
72800.00000	82.87518	4913.26670	82.87518
72850.00000	84.16070	4906.33033	84.16070
72900.00000	83.99518	4907.26700	83.99518
72950.00000	83.13493	4896.82461	83.13493
73000.00000	84.63577	4891.34831	84.63577
73050.00000	83.31340	4891.82800	83.31340
73100.00000	83.60153	4877.29047	83.60153
73150.00000	84.25933	4877.02573	84.25933
73200.00000	82.25487	4869.80350	82.25487
73250.00000	83.18613	4858.58766	83.18613
73300.00000	82.81216	4861.18222	82.81216
73350.00000	81.15194	4847.00521	81.15194
73400.00000	82.77247	4842.36335	82.77247
73450.00000	79.88304	4848.95164	79.88304
73500.00000	79.22181	4826.53613	79.22181
73550.00000	80.94625	4837.26997	80.94625
73600.00000	77.05907	4838.30333	77.05907
73650.00000	78.46509	4818.52348	78.46509
73700.00000	79.20133	4834.42333	79.20133
73750.00000	75.05124	4819.50179	75.05124
73800.00000	79.34195	4809.01794	79.34195
73850.00000	77.11452	4830.32596	77.11452
73900.00000	75.38616	4786.81430	75.38616
73950.00000	79.50134	4799.14559	79.50134
74000.00000	74.70419	4806.71129	74.70419
74050.00000	78.07121	4763.56667	78.07121
74100.00000	79.31901	4789.12013	79.31901
74150.00000	72.73422	4754.63698	72.73422
74200.00000	79.62988	4739.77777	79.62988
74250.00000	75.83552	4759.40730	75.83552
74300.00000	76.83491	4680.31922	76.83491
74350.00000	79.55546	4708.47722	79.55546
74400.00000	68.14196	4654.59658	68.14196
74450.00000	74.07251	4449.96418	74.07251
74500.00000	76.55400	4422.51076	76.55400
74550.00000	73.05840	4332.19581	73.05840
74600.00000	79.05970	4345.49625	79.05970
74650.00000	72.37374	4368.73826	72.37374
74700.00000	78.14207	4295.73999	78.14207
74750.00000	79.87859	4334.20774	79.87859
74800.00000	72.58007	4292.81256	72.58007
74850.00000	80.85938	4287.68055	80.85938
74900.00000	78.35368	4316.93670	78.35368
74950.00000	78.38612	4253.33078	78.38612
75000.00000	82.86999	4278.30421	82.86999
75050.00000	75.12428	4273.22264	75.12428
75100.00000	82.89425	4242.20763	82.89425
75150.00000	81.74705	4270.32482	81.74705
75200.00000	78.67809	4225.90890	78.67809
75250.00000	84.65763	4231.43569	84.65763
75300.00000	80.00799	4246.36606	80.00799
75350.00000	83.00581	4201.89356	83.00581
75400.00000	84.50168	4227.26132	84.50168
75450.00000	79.29758	4204.95496	79.29758
75500.00000	85.50215	4194.86804	85.50215
75550.00000	83.13185	4214.33557	83.13185
75600.00000	82.49699	4171.55328	82.49699
75650.00000	85.60257	4186.65462	85.60257
75700.00000	80.45926	4184.80129	80.45926
75750.00000	84.91253	4152.59495	84.91253
75800.00000	84.64995	4177.59897	84.64995
75850.00000	80.52365	4141.23967	80.52365
75900.00000	85.56339	4150.11454	85.56339
75950.00000	80.87751	4169.41101	80.87751
76000.00000	82.28954	4121.89242	82.28954
76050.00000	84.68439	4148.69604	84.68439
76100.00000	77.78945	4140.87637	77.78945
76150.00000	84.19888	4114.75030	84.19888
76200.00000	82.42952	4151.48889	82.42952
76250.00000	78.30815	4096.97035	78.30815
76300.00000	84.32104	4122.29799	84.32104
76350.00000	78.79156	4148.47107	78.79156
76400.00000	81.97741	4091.71143	81.97741
76450.00000	83.52304	4128.23627	83.52304
76500.00000	74.68488	4112.08462	74.68488
76550.00000	83.65006	4092.59090	83.65006
76600.00000	81.68122	4138.66145	81.68122
76650.00000	76.98128	4079.17539	76.98128
76700.00000	83.62208	4103.55145	83.62208
76750.00000	78.10070	4139.34855	78.10070
76800.00000	82.23699	4076.91186	82.23699
76850.00000	83.66223	4113.49956	83.66223
76900.00000	74.51127	4089.13685	74.51127
76950.00000	83.82651	4076.62581	83.82651
77000.00000	81.74030	4112.92879	81.74030
77050.00000	79.04353	4056.85872	79.04353
77100.00000	84.54811	4081.44976	84.54811
77150.00000	78.94247	4100.37247	78.94247
77200.00000	83.19033	4052.76356	83.19033
77250.00000	83.55323	4087.82611	83.55323
77300.00000	76.71071	4056.46417	76.71071
77350.00000	84.17650	4052.10270	84.17650
77400.00000	80.53667	4081.31611	80.53667
77450.00000	81.01773	4025.72010	81.01773
77500.00000	84.02144	4054.27404	84.02144
77550.00000	75.56455	4046.04753	75.56455
77600.00000	82.93072	4023.79030	82.93072
77650.00000	81.38844	4057.33818	81.38844
77700.00000	78.40937	4015.31196	78.40937
77750.00000	82.56335	4027.29390	82.56335
77800.00000	76.76759	4040.07330	76.76759
77850.00000	79.85909	3999.33820	79.85909
77900.00000	81.25859	4035.99903	81.25859
77950.00000	74.80823	4003.05283	74.80823
78000.00000	80.04570	4001.73192	80.04570
78050.00000	77.10935	4037.03236	77.10935
78100.00000	75.84067	3977.46130	75.84067
78150.00000	79.23475	4014.44420	79.23475
78200.00000	70.99214	4016.17090	70.99214
78250.00000	77.28114	3985.42552	77.28114
78300.00000	77.35486	4031.26547	77.35486
78350.00000	69.50808	3987.31672	69.50808
78400.00000	77.30426	4005.22067	77.30426
78450.00000	72.64211	4032.42750	72.64211
78500.00000	73.06592	3982.21781	73.06592
78550.00000	76.80376	4017.61626	76.80376
78600.00000	68.14924	4016.95020	68.14924
78650.00000	74.73148	3994.24302	74.73148
78700.00000	74.27041	4035.06578	74.27041
78750.00000	69.50409	4002.15553	69.50409
78800.00000	75.64863	4014.25819	75.64863
78850.00000	72.32478	4036.18974	72.32478
78900.00000	74.05838	4006.94957	74.05838
78950.00000	75.95038	4030.86743	75.95038
79000.00000	72.40604	4017.46616	72.40604
79050.00000	76.74607	4015.98868	76.74607
79100.00000	76.00454	4028.34763	76.00454
79150.00000	76.26474	4009.66576	76.26474
79200.00000	78.50255	4013.40406	78.50255
79250.00000	76.34177	4010.78131	76.34177
79300.00000	79.06410	4001.53116	79.06410
79350.00000	78.21654	4007.63335	78.21654
79400.00000	78.30264	3993.04037	78.30264
79450.00000	79.10215	3993.10490	79.10215
79500.00000	78.29026	3991.61841	78.29026
79550.00000	79.26896	3983.28584	79.26896
79600.00000	79.07977	3986.56053	79.07977
79650.00000	78.56478	3973.64985	78.56478
79700.00000	79.52886	3972.70269	79.52886
79750.00000	78.58919	3969.54312	78.58919
79800.00000	79.24756	3962.26447	79.24756
79850.00000	78.26148	3963.39559	78.26148
79900.00000	78.40434	3953.75710	78.40434
79950.00000	79.15304	3952.66387	79.15304
80000.00000	78.16298	3950.83438	78.16298
80050.00000	78.40917	3946.31664	78.40917
80100.00000	77.39759	3943.35724	77.39759
80150.00000	77.05280	3935.75804	77.05280
80200.00000	77.31364	3937.38268	77.31364
80250.00000	76.44570	3931.71021	76.44570
80300.00000	76.50148	3930.57937	76.50148
80350.00000	75.92080	3931.86504	75.92080
80400.00000	75.62247	3924.78613	75.62247
80450.00000	76.07800	3928.66021	76.07800
80500.00000	75.51675	3921.39398	75.51675
80550.00000	75.60562	3919.47760	75.60562
80600.00000	75.35683	3922.87231	75.35683
80650.00000	74.90544	3921.84022	74.90544
80700.00000	75.48904	3920.93700	75.48904
80750.00000	74.75920	3917.14132	74.75920
80800.00000	74.58598	3917.06214	74.58598
80850.00000	74.30522	3919.58971	74.30522
80900.00000	74.46487	3914.22531	74.46487
80950.00000	74.64140	3919.46589	74.64140
81000.00000	74.20111	3913.90828	74.20111
81050.00000	74.97235	3913.34322	74.97235
81100.00000	74.70037	3912.71999	74.70037
81150.00000	75.20517	3910.91054	75.20517
81200.00000	75.32417	3910.74437	75.32417
81250.00000	75.31397	3906.60334	75.31397
81300.00000	76.04864	3905.09481	76.04864
81350.00000	76.28287	3902.71229	76.28287
81400.00000	76.79662	3895.22255	76.79662
81450.00000	76.98329	3893.30799	76.98329
81500.00000	77.07843	3888.66616	77.07843
81550.00000	77.50465	3882.27300	77.50465
81600.00000	77.61519	3874.13098	77.61519
81650.00000	78.00423	3867.48081	78.00423
81700.00000	78.15070	3859.32755	78.15070
81750.00000	78.18849	3852.39532	78.18849
81800.00000	78.27710	3842.37880	78.27710
81850.00000	78.15468	3831.40308	78.15468
81900.00000	78.54746	3817.84127	78.54746
81950.00000	78.43443	3801.10153	78.43443
82000.00000	78.41988	3786.60884	78.41988
82050.00000	78.19492	3765.99328	78.19492
82100.00000	78.34520	3747.83150	78.34520
82150.00000	77.78306	3727.77386	77.78306
82200.00000	78.47711	3705.20689	78.47711
82250.00000	78.51557	3687.48060	78.51557
82300.00000	78.92537	3667.75754	78.92537
82350.00000	79.59552	3652.52971	79.59552
82400.00000	79.88020	3635.97412	79.88020
82450.00000	80.37107	3624.41634	80.37107
82500.00000	80.59334	3609.22779	80.59334
82550.00000	81.21765	3599.00445	81.21765
82600.00000	81.54314	3590.52099	81.54314
82650.00000	81.90512	3579.93799	81.90512
82700.00000	82.16591	3572.48800	82.16591
82750.00000	82.38875	3561.60996	82.38875
82800.00000	82.72061	3555.22589	82.72061
82850.00000	82.86393	3548.41455	82.86393
82900.00000	82.93649	3540.97175	82.93649
82950.00000	83.19246	3534.37423	83.19246
83000.00000	83.65321	3528.09672	83.65321
83050.00000	83.82442	3522.69394	83.82442
83100.00000	84.07612	3516.02338	84.07612
83150.00000	84.43730	3512.14713	84.43730
83200.00000	84.69838	3507.65159	84.69838
83250.00000	85.01989	3502.20646	85.01989
83300.00000	85.21427	3498.01957	85.21427
83350.00000	85.41806	3494.70699	85.41806
83400.00000	85.65260	3488.81928	85.65260
83450.00000	85.73185	3483.93351	85.73185
83500.00000	85.97661	3480.16193	85.97661
83550.00000	86.04718	3475.38314	86.04718
83600.00000	86.40735	3471.33768	86.40735
83650.00000	86.43149	3466.41310	86.43149
83700.00000	86.67675	3462.02327	86.67675
83750.00000	86.84099	3458.05974	86.84099
83800.00000	86.80430	3452.46144	86.80430
83850.00000	86.91740	3449.77543	86.91740
83900.00000	87.00015	3444.59086	87.00015
83950.00000	87.28055	3439.94352	87.28055
84000.00000	87.45786	3435.35529	87.45786
84050.00000	87.38301	3430.92635	87.38301
84100.00000	87.71536	3426.00545	87.71536
84150.00000	87.75993	3421.53195	87.75993
84200.00000	88.03421	3416.50089	88.03421
84250.00000	88.14075	3412.19597	88.14075
84300.00000	88.11083	3406.20371	88.11083
84350.00000	88.37988	3401.09383	88.37988
84400.00000	88.43738	3395.43595	88.43738
84450.00000	88.41187	3389.62705	88.41187
84500.00000	88.48474	3383.40770	88.48474
84550.00000	88.48911	3378.56251	88.48911
84600.00000	88.47209	3373.03358	88.47209
84650.00000	88.52745	3368.57422	88.52745
84700.00000	88.42627	3362.96753	88.42627
84750.00000	88.47444	3357.31994	88.47444
84800.00000	88.47961	3351.30883	88.47961
84850.00000	88.44081	3346.32942	88.44081
84900.00000	88.36392	3340.03479	88.36392
84950.00000	88.17936	3335.04411	88.17936
85000.00000	88.14736	3329.36074	88.14736
85050.00000	88.04634	3323.10515	88.04634
85100.00000	88.06073	3317.24499	88.06073
85150.00000	87.86338	3311.43999	87.86338
85200.00000	87.58683	3304.36044	87.58683
85250.00000	88.02779	3298.36939	88.02779
85300.00000	87.40237	3291.46084	87.40237
85350.00000	87.16398	3285.91792	87.16398
85400.00000	86.78691	3280.32014	86.78691
85450.00000	86.56188	3273.16025	86.56188
85500.00000	86.36616	3266.87835	86.36616
85550.00000	86.03260	3261.13492	86.03260
85600.00000	85.46281	3254.81404	85.46281
85650.00000	85.12495	3246.84825	85.12495
85700.00000	84.60795	3240.83293	84.60795
85750.00000	84.19721	3235.77510	84.19721
85800.00000	83.70584	3230.74749	83.70584
85850.00000	82.94666	3223.15272	82.94666
85900.00000	82.44235	3217.41678	82.44235
85950.00000	81.90264	3211.08737	81.90264
86000.00000	81.23303	3206.53029	81.23303
86050.00000	80.63322	3200.53032	80.63322
86100.00000	80.27457	3196.72933	80.27457
86150.00000	79.49329	3189.83704	79.49329
86200.00000	79.00577	3185.24120	79.00577
86250.00000	77.77471	3180.10252	77.77471
86300.00000	77.39056	3173.83036	77.39056
86350.00000	76.50026	3169.02333	76.50026
86400.00000	75.35372	3158.45139	75.35372
86450.00000	74.25133	3159.27402	74.25133
86500.00000	73.76079	3155.58480	73.76079
86550.00000	72.78675	3147.66324	72.78675
86600.00000	71.47097	3147.89670	71.47097
86650.00000	70.85316	3146.35317	70.85316
86700.00000	70.88907	3140.59538	70.88907
86750.00000	70.14734	3143.67218	70.14734
86800.00000	68.88387	3138.08843	68.88387
86850.00000	68.04131	3129.89492	68.04131
86900.00000	67.67972	3129.96774	67.67972
86950.00000	65.94513	3122.37855	65.94513
87000.00000	65.68627	3122.37499	65.68627
87050.00000	65.04015	3115.50065	65.04015
87100.00000	63.50726	3116.22096	63.50726
87150.00000	64.34273	3119.42770	64.34273
87200.00000	61.13144	3114.93688	61.13144
87250.00000	60.82125	3096.74402	60.82125
87300.00000	55.47390	3073.31455	55.47390
87350.00000	53.65491	3075.64195	53.65491
87400.00000	54.83493	3080.23517	54.83493
87450.00000	51.22446	3056.62421	51.22446
87500.00000	48.11708	3060.90239	48.11708
87550.00000	49.72925	2966.73733	49.72925
87600.00000	54.34739	2983.26341	54.34739
87650.00000	52.20674	2926.20688	52.20674
87700.00000	54.87071	2934.17657	54.87071
87750.00000	58.36429	2936.09660	58.36429
87800.00000	59.19126	2904.41732	59.19126
87850.00000	58.96951	2922.90716	58.96951
87900.00000	61.11753	2890.75565	61.11753
87950.00000	61.41558	2895.74103	61.41558
88000.00000	62.82461	2893.81917	62.82461
88050.00000	63.21763	2897.77297	63.21763
88100.00000	63.11341	2890.10837	63.11341
88150.00000	64.99797	2880.56968	64.99797
88200.00000	66.62791	2878.85225	66.62791
88250.00000	66.60995	2881.17251	66.60995
88300.00000	67.24789	2871.33794	67.24789
88350.00000	67.56186	2868.96333	67.56186
88400.00000	68.40861	2863.62320	68.40861
88450.00000	68.82534	2849.37795	68.82534
88500.00000	69.56376	2849.79969	69.56376
88550.00000	70.10457	2848.24876	70.10457
88600.00000	69.89884	2841.13096	69.89884
88650.00000	70.61678	2844.12188	70.61678
88700.00000	71.24921	2830.32568	71.24921
88750.00000	72.25080	2830.26340	72.25080
88800.00000	72.54226	2823.24432	72.54226
88850.00000	72.79832	2817.14793	72.79832
88900.00000	73.03373	2813.55071	73.03373
88950.00000	73.41863	2804.65090	73.41863
89000.00000	73.64079	2802.21639	73.64079
89050.00000	73.82807	2795.72057	73.82807
89100.00000	74.60214	2792.40114	74.60214
89150.00000	73.79217	2784.27308	73.79217
89200.00000	73.85443	2777.72665	73.85443
89250.00000	73.81780	2776.01859	73.81780
89300.00000	73.95818	2771.87944	73.95818
89350.00000	73.73368	2763.08074	73.73368
89400.00000	73.99373	2760.37590	73.99373
89450.00000	74.20862	2756.92665	74.20862
89500.00000	74.00573	2750.95544	74.00573
89550.00000	73.52368	2746.57005	73.52368
89600.00000	73.46801	2741.67911	73.46801
89650.00000	73.63382	2739.16839	73.63382
89700.00000	73.23772	2737.93498	73.23772
89750.00000	73.05282	2733.35203	73.05282
89800.00000	72.61260	2733.69052	72.61260
89850.00000	71.92144	2728.87149	71.92144
89900.00000	72.24603	2726.05378	72.24603
89950.00000	73.07598	2730.12830	73.07598
90000.00000	72.44117	2732.21316	72.44117
90050.00000	72.94458	2740.26368	72.94458
90100.00000	74.70717	2734.16514	74.70717
90150.00000	76.21247	2734.69242	76.21247
90200.00000	78.92646	2725.97291	78.92646
90250.00000	79.96638	2702.63920	79.96638
90300.00000	79.81712	2681.69781	79.81712
90350.00000	77.86254	2669.72338	77.86254
90400.00000	76.88855	2669.16901	76.88855
90450.00000	76.18985	2663.45592	76.18985
90500.00000	75.68112	2659.79895	75.68112
90550.00000	74.67612	2654.94374	74.67612
90600.00000	75.17656	2651.73487	75.17656
90650.00000	74.89586	2651.14113	74.89586
90700.00000	74.31003	2645.79387	74.31003
90750.00000	74.19219	2643.69228	74.19219
90800.00000	73.93441	2640.96193	73.93441
90850.00000	74.04559	2638.34045	74.04559
90900.00000	74.53237	2638.23152	74.53237
90950.00000	73.96881	2635.79145	73.96881
91000.00000	74.03090	2630.38307	74.03090
91050.00000	74.53442	2629.87808	74.53442
91100.00000	74.47220	2619.64977	74.47220
91150.00000	74.54094	2625.45291	74.54094
91200.00000	74.10968	2620.69869	74.10968
91250.00000	74.98947	2615.42389	74.98947
91300.00000	75.33053	2613.18103	75.33053
91350.00000	74.93471	2605.82835	74.93471
91400.00000	75.11459	2604.36909	75.11459
91450.00000	75.64188	2601.24469	75.64188
91500.00000	75.79996	2597.85525	75.79996
91550.00000	76.05375	2592.41809	76.05375
91600.00000	76.70170	2588.42128	76.70170
91650.00000	76.32340	2582.41768	76.32340
91700.00000	76.94938	2578.94782	76.94938
91750.00000	76.90898	2576.74999	76.90898
91800.00000	77.55704	2571.42158	77.55704
91850.00000	77.65100	2567.38307	77.65100
91900.00000	78.25802	2562.49575	78.25802
91950.00000	78.04309	2558.71812	78.04309
92000.00000	78.41146	2552.61614	78.41146
92050.00000	78.14193	2546.47174	78.14193
92100.00000	78.65238	2541.74823	78.65238
92150.00000	78.93262	2534.84414	78.93262
92200.00000	78.80130	2531.05878	78.80130
92250.00000	78.86230	2529.18299	78.86230
92300.00000	79.28750	2522.79387	79.28750
92350.00000	79.24172	2517.30173	79.24172
92400.00000	79.41293	2513.55340	79.41293
92450.00000	79.25775	2509.19870	79.25775
92500.00000	79.38854	2504.34092	79.38854
92550.00000	79.66138	2499.50100	79.66138
92600.00000	79.47197	2495.81069	79.47197
92650.00000	79.34955	2491.75559	79.34955
92700.00000	79.78318	2488.07313	79.78318
92750.00000	79.72777	2481.58178	79.72777
92800.00000	79.52234	2478.76252	79.52234
92850.00000	79.83722	2474.52101	79.83722
92900.00000	79.54542	2466.91469	79.54542
92950.00000	79.23853	2465.76143	79.23853
93000.00000	79.27918	2458.90284	79.27918
93050.00000	79.00281	2455.98305	79.00281
93100.00000	79.42302	2450.65749	79.42302
93150.00000	79.19536	2448.04787	79.19536
93200.00000	78.84490	2444.50861	78.84490
93250.00000	79.00580	2442.07627	79.00580
93300.00000	78.86279	2437.46954	78.86279
93350.00000	78.74137	2434.38315	78.74137
93400.00000	78.28583	2429.73076	78.28583
93450.00000	78.40255	2426.83559	78.40255
93500.00000	78.37828	2422.83904	78.37828
93550.00000	77.72904	2418.97160	77.72904
93600.00000	77.80575	2416.65808	77.80575
93650.00000	78.02903	2415.16176	78.02903
93700.00000	77.79517	2409.02486	77.79517
93750.00000	77.41755	2406.02597	77.41755
93800.00000	77.53828	2403.28812	77.53828
93850.00000	77.37375	2400.79334	77.37375
93900.00000	76.86058	2395.28974	76.86058
93950.00000	76.68985	2395.21995	76.68985
94000.00000	75.76064	2392.50814	75.76064
94050.00000	76.18891	2386.19556	76.18891
94100.00000	76.17508	2387.83293	76.17508
94150.00000	75.90310	2379.54491	75.90310
94200.00000	76.02817	2379.93752	76.02817
94250.00000	76.04455	2375.93147	76.04455
94300.00000	75.41245	2372.50100	75.41245
94350.00000	75.98219	2371.79449	75.98219
94400.00000	75.69579	2371.94956	75.69579
94450.00000	75.72420	2365.84629	75.72420
94500.00000	75.02340	2362.67738	75.02340
94550.00000	75.48199	2356.31956	75.48199
94600.00000	75.16418	2354.53054	75.16418
94650.00000	75.50895	2351.99998	75.50895
94700.00000	75.09688	2343.55774	75.09688
94750.00000	74.92385	2344.13400	74.92385
94800.00000	74.38402	2343.17574	74.38402
94850.00000	75.20939	2335.43132	75.20939
94900.00000	74.62207	2333.65050	74.62207
94950.00000	74.86080	2329.75900	74.86080
95000.00000	73.96673	2323.61971	73.96673
95050.00000	74.22328	2322.66522	74.22328
95100.00000	74.82409	2316.29967	74.82409
95150.00000	74.23495	2314.01555	74.23495
95200.00000	74.11773	2311.31475	74.11773
95250.00000	74.82657	2304.36230	74.82657
95300.00000	73.45826	2299.64994	73.45826
95350.00000	73.36163	2301.44283	73.36163
95400.00000	72.92996	2292.61017	72.92996
95450.00000	73.48687	2291.68593	73.48687
95500.00000	73.19291	2286.23036	73.19291
95550.00000	72.91782	2286.23072	72.91782
95600.00000	72.70430	2277.48249	72.70430
95650.00000	72.75792	2279.27657	72.75792
95700.00000	71.93916	2277.95818	71.93916
95750.00000	72.15455	2273.81764	72.15455
95800.00000	72.51740	2267.00555	72.51740
95850.00000	71.81576	2266.37028	71.81576
95900.00000	73.15422	2269.54920	73.15422
95950.00000	73.08544	2273.34788	73.08544
96000.00000	72.90563	2263.22224	72.90563
96050.00000	72.54324	2252.96059	72.54324
96100.00000	73.59853	2260.16181	73.59853
96150.00000	73.54841	2251.61871	73.54841
96200.00000	75.09762	2241.87250	75.09762
96250.00000	73.48318	2235.49918	73.48318
96300.00000	75.26080	2236.28073	75.26080
96350.00000	75.87130	2225.37146	75.87130
96400.00000	73.40930	2236.06723	73.40930
96450.00000	74.93475	2227.09356	74.93475
96500.00000	74.53140	2220.06224	74.53140
96550.00000	74.46301	2233.30126	74.46301
96600.00000	74.90839	2219.25991	74.90839
96650.00000	75.35345	2208.79621	75.35345
96700.00000	74.13305	2207.73884	74.13305
96750.00000	76.03927	2202.12073	76.03927
96800.00000	75.37998	2200.71009	75.37998
96850.00000	75.47875	2189.60592	75.47875
96900.00000	78.17269	2193.76061	78.17269
96950.00000	78.38801	2194.21857	78.38801
97000.00000	77.53839	2191.79837	77.53839
97050.00000	77.65807	2199.08950	77.65807
97100.00000	79.64752	2182.81261	79.64752
97150.00000	81.17114	2178.01842	81.17114
97200.00000	80.23386	2166.31387	80.23386
97250.00000	79.98939	2151.09295	79.98939
97300.00000	79.79567	2131.03460	79.79567
97350.00000	78.17245	2114.02843	78.17245
97400.00000	76.42971	2099.59615	76.42971
97450.00000	74.16727	2101.19226	74.16727
97500.00000	71.79318	2118.09450	71.79318
97550.00000	70.73265	2113.92421	70.73265
97600.00000	69.95699	2114.56675	69.95699
97650.00000	70.41632	2114.65140	70.41632
97700.00000	71.55170	2116.14680	71.55170
97750.00000	68.41973	2101.81019	68.41973
97800.00000	69.02853	2106.17477	69.02853
97850.00000	68.13716	2097.19901	68.13716
97900.00000	68.36096	2103.17476	68.36096
97950.00000	67.69699	2115.21161	67.69699
98000.00000	67.30541	2090.92075	67.30541
98050.00000	68.23942	2104.98066	68.23942
98100.00000	66.98217	2102.99595	66.98217
98150.00000	66.25076	2098.24711	66.25076
98200.00000	63.29997	2104.39392	63.29997
98250.00000	65.15063	2098.44135	65.15063
98300.00000	63.12655	2102.18041	63.12655
98350.00000	64.18390	2101.47125	64.18390
98400.00000	60.68770	2128.73160	60.68770
98450.00000	62.86822	2110.14510	62.86822
98500.00000	60.94089	2084.49422	60.94089
98550.00000	60.32029	2074.42744	60.32029
98600.00000	63.54407	2097.89714	63.54407
98650.00000	59.40007	2067.03273	59.40007
98700.00000	58.75557	2092.20751	58.75557
98750.00000	56.96015	2105.60766	56.96015
98800.00000	53.72661	2081.20130	53.72661
98850.00000	58.57054	2062.24761	58.57054
98900.00000	45.18387	2081.52898	45.18387
98950.00000	56.81960	2065.17596	56.81960
99000.00000	57.22934	2068.60717	57.22934
99050.00000	55.34871	2058.86116	55.34871
99100.00000	53.89508	2087.40454	53.89508
99150.00000	51.14279	2121.93617	51.14279
99200.00000	52.77374	2088.11324	52.77374
99250.00000	43.71136	2119.48817	43.71136
99300.00000	52.78017	2104.11146	52.78017
99350.00000	53.32057	2227.83486	53.32057
99400.00000	45.01144	2050.64492	45.01144
99450.00000	48.39411	1940.24435	48.39411
99500.00000	47.74896	2105.90292	47.74896
99550.00000	52.98922	2047.82339	52.98922
99600.00000	39.55406	2001.63437	39.55406
99650.00000	50.34010	2013.47783	50.34010
99700.00000	38.69132	1845.09743	38.69132
99750.00000	54.49153	1693.73382	54.49153
99800.00000	53.09663	1574.20211	53.09663
99850.00000	47.48965	1571.42443	47.48965
99900.00000	48.74369	1401.17159	48.74369
99950.00000	47.41251	1288.38351	47.41251
