---ACOUSTIC CALIBRATION---
Filename: C:\Data\AZH DATA\AZH42\RightSecondary.calib
Date: 8/27/2019 2:46:03 PM
Format: 4
Probe Tube Correction File: C:\Data\Probe Tube Calibrations\50_ProbeTube.calib
Experiment VIs: 850
EPL_CFTS.exe V12.0.1 (2012)
DAQmx V9.6

Attenuation (dB): 40.000000
Min Freq (Hz): 50.000000
Max Freq (Hz): 49950.000000
Freq Step (Hz): 50.000000
Sample Rate (Hz): 100000.000000
[Smoothing]
Method=None
MA.Iterations=0
MA.Length=0
Loess.Length=0
Loess.Type=Linear
Loess.Robust=FALSE


Freq(Hz)	Mag(dB)	Phase(deg)	Unsmoothed(dB)

50.00000	107.57414	476.49445	107.57414
100.00000	75.74732	598.39673	75.74732
150.00000	76.69949	452.32329	76.69949
200.00000	79.12988	421.04362	79.12988
250.00000	85.18169	428.09609	85.18169
300.00000	83.84772	338.91963	83.84772
350.00000	83.57041	321.33537	83.57041
400.00000	83.30138	303.43075	83.30138
450.00000	84.37208	296.48580	84.37208
500.00000	85.31354	327.30657	85.31354
550.00000	88.81074	317.59272	88.81074
600.00000	90.67384	310.46671	90.67384
650.00000	92.80946	319.09736	92.80946
700.00000	94.97392	308.79382	94.97392
750.00000	96.97902	311.37416	96.97902
800.00000	99.63121	300.26008	99.63121
850.00000	101.93118	289.68174	101.93118
900.00000	103.53504	272.07942	103.53504
950.00000	104.84555	255.19496	104.84555
1000.00000	104.70857	237.11890	104.70857
1050.00000	104.21155	228.43892	104.21155
1100.00000	104.46294	216.49227	104.46294
1150.00000	103.55706	206.22348	103.55706
1200.00000	103.33561	203.71504	103.33561
1250.00000	103.37364	192.54706	103.37364
1300.00000	102.39451	186.56695	102.39451
1350.00000	101.60068	181.62422	101.60068
1400.00000	100.74867	182.66753	100.74867
1450.00000	101.01291	182.21533	101.01291
1500.00000	101.04781	181.14876	101.04781
1550.00000	101.17160	179.70952	101.17160
1600.00000	101.71362	175.59832	101.71362
1650.00000	102.60501	167.48327	102.60501
1700.00000	101.31681	163.35833	101.31681
1750.00000	101.24032	161.74442	101.24032
1800.00000	100.94127	158.80725	100.94127
1850.00000	100.77903	160.95988	100.77903
1900.00000	101.70151	162.14527	101.70151
1950.00000	102.54199	154.37013	102.54199
2000.00000	102.25855	145.01483	102.25855
2050.00000	101.44632	141.64135	101.44632
2100.00000	101.44564	139.49391	101.44564
2150.00000	101.02713	136.32531	101.02713
2200.00000	100.64001	132.72153	100.64001
2250.00000	99.74702	131.78793	99.74702
2300.00000	99.68927	132.45217	99.68927
2350.00000	99.31853	132.73216	99.31853
2400.00000	99.43593	134.04468	99.43593
2450.00000	99.34738	131.25661	99.34738
2500.00000	98.89554	133.21207	98.89554
2550.00000	98.60618	134.21254	98.60618
2600.00000	98.46280	141.03274	98.46280
2650.00000	99.59464	147.54361	99.59464
2700.00000	101.42028	148.91227	101.42028
2750.00000	102.86985	140.49010	102.86985
2800.00000	103.33943	130.71308	103.33943
2850.00000	103.22188	122.16939	103.22188
2900.00000	102.82355	115.97792	102.82355
2950.00000	102.43096	112.45433	102.43096
3000.00000	102.07367	109.07866	102.07367
3050.00000	101.60780	105.95502	101.60780
3100.00000	101.44664	103.64758	101.44664
3150.00000	100.98386	99.77943	100.98386
3200.00000	100.41799	97.94438	100.41799
3250.00000	99.70465	96.47828	99.70465
3300.00000	98.68407	94.39047	98.68407
3350.00000	97.36296	97.60344	97.36296
3400.00000	96.55293	106.40735	96.55293
3450.00000	96.48262	115.98707	96.48262
3500.00000	97.01743	123.81621	97.01743
3550.00000	97.71206	126.27293	97.71206
3600.00000	98.09720	128.12119	98.09720
3650.00000	98.09071	130.29809	98.09071
3700.00000	97.79406	137.87463	97.79406
3750.00000	98.46291	149.10272	98.46291
3800.00000	100.21186	158.90947	100.21186
3850.00000	102.17505	162.91093	102.17505
3900.00000	104.10392	163.26204	104.10392
3950.00000	105.88084	160.14977	105.88084
4000.00000	107.26645	155.60631	107.26645
4050.00000	108.39158	151.54663	108.39158
4100.00000	109.31042	147.19148	109.31042
4150.00000	110.34555	143.57335	110.34555
4200.00000	111.06725	140.01442	111.06725
4250.00000	111.91644	136.96042	111.91644
4300.00000	112.81543	134.53549	112.81543
4350.00000	113.78990	131.75010	113.78990
4400.00000	114.89781	129.17426	114.89781
4450.00000	116.12915	125.81229	116.12915
4500.00000	117.47326	121.36957	117.47326
4550.00000	118.87209	115.44381	118.87209
4600.00000	120.25674	108.18194	120.25674
4650.00000	121.67036	99.57590	121.67036
4700.00000	122.98734	88.83550	122.98734
4750.00000	124.12575	76.13450	124.12575
4800.00000	124.96373	61.49939	124.96373
4850.00000	125.34741	45.84027	125.34741
4900.00000	125.23625	30.12320	125.23625
4950.00000	124.64310	15.59872	124.64310
5000.00000	123.60587	 3.55320	123.60587
5050.00000	122.50799	-4.78959	122.50799
5100.00000	121.26703	-14.10815	121.26703
5150.00000	118.79624	-16.39849	118.79624
5200.00000	117.71222	 1.91941	117.71222
5250.00000	120.81541	 7.49219	120.81541
5300.00000	122.53250	-5.89110	122.53250
5350.00000	122.84012	-19.41950	122.84012
5400.00000	122.58240	-30.45098	122.58240
5450.00000	122.14991	-39.24121	122.14991
5500.00000	121.67865	-46.78647	121.67865
5550.00000	121.21732	-53.20601	121.21732
5600.00000	120.75706	-59.18621	120.75706
5650.00000	120.31674	-64.63370	120.31674
5700.00000	119.86916	-69.84222	119.86916
5750.00000	119.44328	-74.54878	119.44328
5800.00000	119.01973	-79.04721	119.01973
5850.00000	118.62761	-83.36506	118.62761
5900.00000	118.24858	-87.48402	118.24858
5950.00000	117.90283	-91.42990	117.90283
6000.00000	117.54970	-95.25929	117.54970
6050.00000	117.18410	-99.07904	117.18410
6100.00000	116.83175	-102.76214	116.83175
6150.00000	116.48739	-106.33647	116.48739
6200.00000	116.14802	-109.73226	116.14802
6250.00000	115.82571	-113.03578	115.82571
6300.00000	115.51720	-116.38156	115.51720
6350.00000	115.19316	-119.64484	115.19316
6400.00000	114.88288	-122.72497	114.88288
6450.00000	114.58555	-125.89211	114.58555
6500.00000	114.25956	-129.01947	114.25956
6550.00000	113.94002	-131.89672	113.94002
6600.00000	113.60989	-134.60697	113.60989
6650.00000	113.30521	-137.23114	113.30521
6700.00000	112.99534	-140.02176	112.99534
6750.00000	112.66868	-142.51301	112.66868
6800.00000	112.36788	-144.79280	112.36788
6850.00000	112.07864	-147.00187	112.07864
6900.00000	111.80308	-149.09847	111.80308
6950.00000	111.52775	-151.09234	111.52775
7000.00000	111.32173	-152.92370	111.32173
7050.00000	111.07637	-155.05340	111.07637
7100.00000	110.87448	-157.16334	110.87448
7150.00000	110.66197	-158.78452	110.66197
7200.00000	110.43588	-160.66351	110.43588
7250.00000	110.26044	-162.37308	110.26044
7300.00000	110.09712	-163.89675	110.09712
7350.00000	109.93544	-165.22308	109.93544
7400.00000	109.85279	-166.70775	109.85279
7450.00000	109.77497	-168.20335	109.77497
7500.00000	109.75147	-169.78103	109.75147
7550.00000	109.75132	-171.61246	109.75132
7600.00000	109.74302	-173.66381	109.74302
7650.00000	109.75132	-175.78784	109.75132
7700.00000	109.81514	-178.18262	109.81514
7750.00000	109.80403	-180.79930	109.80403
7800.00000	109.81590	-183.71152	109.81590
7850.00000	109.81189	-186.40372	109.81189
7900.00000	109.79790	-189.59318	109.79790
7950.00000	109.73196	-193.03647	109.73196
8000.00000	109.63753	-196.43563	109.63753
8050.00000	109.52001	-199.96739	109.52001
8100.00000	109.38190	-202.77606	109.38190
8150.00000	109.14622	-206.05403	109.14622
8200.00000	108.96522	-208.85135	108.96522
8250.00000	108.72922	-211.93176	108.72922
8300.00000	108.54467	-214.64126	108.54467
8350.00000	108.30634	-217.07192	108.30634
8400.00000	108.03651	-219.95625	108.03651
8450.00000	107.76271	-222.05319	107.76271
8500.00000	107.51910	-224.33670	107.51910
8550.00000	107.34308	-226.25912	107.34308
8600.00000	107.10805	-228.42430	107.10805
8650.00000	106.88730	-230.51870	106.88730
8700.00000	106.70548	-233.01002	106.70548
8750.00000	106.45120	-234.31055	106.45120
8800.00000	106.28403	-236.86468	106.28403
8850.00000	106.06220	-238.98451	106.06220
8900.00000	105.89508	-240.83444	105.89508
8950.00000	105.77843	-242.87375	105.77843
9000.00000	105.59715	-244.85052	105.59715
9050.00000	105.53853	-247.27249	105.53853
9100.00000	105.43389	-249.10843	105.43389
9150.00000	105.35848	-251.31262	105.35848
9200.00000	105.31338	-253.25711	105.31338
9250.00000	105.18519	-255.18789	105.18519
9300.00000	105.10382	-257.15346	105.10382
9350.00000	105.04535	-258.95193	105.04535
9400.00000	104.84985	-260.45737	104.84985
9450.00000	104.81296	-262.53437	104.81296
9500.00000	104.75854	-264.47406	104.75854
9550.00000	104.65990	-266.41669	104.65990
9600.00000	104.65178	-268.93880	104.65178
9650.00000	104.60172	-271.40800	104.60172
9700.00000	104.58559	-273.16249	104.58559
9750.00000	104.62333	-276.01984	104.62333
9800.00000	104.52973	-277.56472	104.52973
9850.00000	104.48105	-279.03838	104.48105
9900.00000	104.25284	-281.06809	104.25284
9950.00000	104.11309	-282.54186	104.11309
10000.00000	103.96830	-285.00945	103.96830
10050.00000	103.73589	-287.15455	103.73589
10100.00000	103.52347	-289.44403	103.52347
10150.00000	103.26326	-292.62179	103.26326
10200.00000	103.13541	-295.19800	103.13541
10250.00000	103.01468	-298.15038	103.01468
10300.00000	103.04962	-300.81432	103.04962
10350.00000	102.96759	-302.99032	102.96759
10400.00000	102.84865	-305.31533	102.84865
10450.00000	102.85159	-307.58177	102.85159
10500.00000	102.79853	-309.71096	102.79853
10550.00000	102.68180	-311.91897	102.68180
10600.00000	102.52043	-314.08703	102.52043
10650.00000	102.33524	-316.28098	102.33524
10700.00000	102.22245	-319.80894	102.22245
10750.00000	102.15678	-322.77787	102.15678
10800.00000	102.02484	-325.41721	102.02484
10850.00000	101.92833	-328.92053	101.92833
10900.00000	101.83696	-331.16609	101.83696
10950.00000	101.70247	-333.23603	101.70247
11000.00000	101.51752	-335.39423	101.51752
11050.00000	101.13214	-337.57274	101.13214
11100.00000	100.83627	-340.55314	100.83627
11150.00000	100.43454	-342.92910	100.43454
11200.00000	100.20407	-345.44260	100.20407
11250.00000	99.86350	-348.46433	99.86350
11300.00000	99.56865	-350.93808	99.56865
11350.00000	99.34585	-352.72846	99.34585
11400.00000	99.00421	-354.42913	99.00421
11450.00000	98.76095	-356.32940	98.76095
11500.00000	98.56068	-357.01070	98.56068
11550.00000	98.15811	-358.14584	98.15811
11600.00000	97.97499	-360.28118	97.97499
11650.00000	97.67016	-360.96568	97.67016
11700.00000	97.51048	-362.62279	97.51048
11750.00000	97.41416	-364.47313	97.41416
11800.00000	97.31442	-366.29902	97.31442
11850.00000	97.27923	-366.51322	97.27923
11900.00000	97.00776	-368.28621	97.00776
11950.00000	96.88945	-368.95679	96.88945
12000.00000	96.61451	-369.65423	96.61451
12050.00000	96.31976	-370.84561	96.31976
12100.00000	96.14500	-373.44830	96.14500
12150.00000	95.93439	-375.61259	95.93439
12200.00000	95.88557	-377.96780	95.88557
12250.00000	95.69494	-379.73894	95.69494
12300.00000	96.72037	-381.99478	96.72037
12350.00000	95.46719	-383.83596	95.46719
12400.00000	95.27664	-384.65526	95.27664
12450.00000	95.00625	-385.93617	95.00625
12500.00000	94.71505	-387.93961	94.71505
12550.00000	94.45200	-390.13365	94.45200
12600.00000	94.14766	-392.05117	94.14766
12650.00000	94.04322	-393.59302	94.04322
12700.00000	93.70256	-395.22702	93.70256
12750.00000	93.46191	-397.03450	93.46191
12800.00000	93.11764	-397.80031	93.11764
12850.00000	92.58038	-398.67853	92.58038
12900.00000	92.23091	-400.32883	92.23091
12950.00000	92.02737	-401.65310	92.02737
13000.00000	91.67624	-403.32189	91.67624
13050.00000	91.49142	-402.58164	91.49142
13100.00000	91.20805	-403.57807	91.20805
13150.00000	90.94334	-404.86973	90.94334
13200.00000	90.59094	-403.52012	90.59094
13250.00000	90.24734	-403.88776	90.24734
13300.00000	89.91823	-403.09526	89.91823
13350.00000	89.61755	-404.83067	89.61755
13400.00000	89.65167	-405.83533	89.65167
13450.00000	89.37144	-404.86346	89.37144
13500.00000	89.26479	-403.86141	89.26479
13550.00000	88.91676	-404.02930	88.91676
13600.00000	88.67490	-402.44099	88.67490
13650.00000	88.34062	-402.04463	88.34062
13700.00000	87.88384	-402.14147	87.88384
13750.00000	87.68015	-401.69930	87.68015
13800.00000	87.37924	-402.67681	87.37924
13850.00000	87.30875	-403.58717	87.30875
13900.00000	87.03229	-402.56548	87.03229
13950.00000	87.06466	-401.36486	87.06466
14000.00000	87.22638	-399.47522	87.22638
14050.00000	87.30242	-398.68091	87.30242
14100.00000	86.98813	-396.03454	86.98813
14150.00000	87.14688	-395.47609	87.14688
14200.00000	87.20516	-394.82655	87.20516
14250.00000	87.43429	-391.40834	87.43429
14300.00000	87.26176	-390.61894	87.26176
14350.00000	87.41377	-389.20049	87.41377
14400.00000	86.98964	-389.05633	86.98964
14450.00000	87.10485	-387.18739	87.10485
14500.00000	87.21109	-389.32210	87.21109
14550.00000	87.55162	-388.05665	87.55162
14600.00000	87.77696	-387.65010	87.77696
14650.00000	88.14875	-384.68442	88.14875
14700.00000	88.27600	-386.43971	88.27600
14750.00000	88.27380	-384.65840	88.27380
14800.00000	88.15580	-383.84612	88.15580
14850.00000	88.40008	-384.32661	88.40008
14900.00000	88.77301	-384.25014	88.77301
14950.00000	89.07092	-385.41040	89.07092
15000.00000	89.35530	-385.51641	89.35530
15050.00000	89.55232	-384.09074	89.55232
15100.00000	89.59264	-383.37136	89.59264
15150.00000	90.00749	-383.57129	90.00749
15200.00000	90.33525	-381.83268	90.33525
15250.00000	90.48142	-383.21106	90.48142
15300.00000	90.86337	-382.34893	90.86337
15350.00000	91.05523	-382.59733	91.05523
15400.00000	91.11286	-381.31980	91.11286
15450.00000	91.23657	-383.04756	91.23657
15500.00000	91.56900	-383.85118	91.56900
15550.00000	91.95607	-385.62452	91.95607
15600.00000	92.39869	-385.93397	92.39869
15650.00000	93.00408	-383.74506	93.00408
15700.00000	93.16068	-384.78109	93.16068
15750.00000	93.48711	-384.48320	93.48711
15800.00000	93.80558	-384.42673	93.80558
15850.00000	94.19663	-385.21542	94.19663
15900.00000	94.45733	-386.53948	94.45733
15950.00000	95.00669	-386.82283	95.00669
16000.00000	95.36828	-387.51101	95.36828
16050.00000	95.66084	-389.00577	95.66084
16100.00000	96.01637	-390.49484	96.01637
16150.00000	96.41789	-392.32040	96.41789
16200.00000	96.96810	-394.42033	96.96810
16250.00000	97.32239	-395.41522	97.32239
16300.00000	97.84167	-396.88949	97.84167
16350.00000	98.15279	-399.00872	98.15279
16400.00000	98.54612	-400.81881	98.54612
16450.00000	98.95515	-402.14358	98.95515
16500.00000	99.25105	-404.57556	99.25105
16550.00000	99.62254	-407.72872	99.62254
16600.00000	100.01145	-410.13549	100.01145
16650.00000	100.35831	-412.58207	100.35831
16700.00000	100.75515	-414.21149	100.75515
16750.00000	100.92008	-416.75089	100.92008
16800.00000	101.22416	-419.82904	101.22416
16850.00000	101.61974	-422.99848	101.61974
16900.00000	102.00069	-425.86418	102.00069
16950.00000	102.27414	-428.01412	102.27414
17000.00000	102.39957	-430.62011	102.39957
17050.00000	102.65089	-432.69396	102.65089
17100.00000	102.80974	-435.17738	102.80974
17150.00000	103.21733	-438.89301	103.21733
17200.00000	103.47011	-441.25029	103.47011
17250.00000	103.64617	-444.11760	103.64617
17300.00000	103.86929	-446.77989	103.86929
17350.00000	103.94841	-449.13355	103.94841
17400.00000	104.24254	-451.87222	104.24254
17450.00000	104.41688	-454.98141	104.41688
17500.00000	104.64341	-457.63390	104.64341
17550.00000	104.83924	-460.41324	104.83924
17600.00000	105.12416	-462.90106	105.12416
17650.00000	105.29079	-466.49362	105.29079
17700.00000	105.47070	-469.36680	105.47070
17750.00000	105.78527	-471.65341	105.78527
17800.00000	105.84593	-475.32464	105.84593
17850.00000	106.06451	-477.59147	106.06451
17900.00000	106.20155	-480.29049	106.20155
17950.00000	106.46313	-483.71569	106.46313
18000.00000	106.59949	-487.36654	106.59949
18050.00000	106.89591	-489.87876	106.89591
18100.00000	106.99202	-493.48659	106.99202
18150.00000	107.14238	-495.94933	107.14238
18200.00000	107.24423	-499.46417	107.24423
18250.00000	107.42937	-502.06143	107.42937
18300.00000	107.65199	-505.05183	107.65199
18350.00000	107.79665	-508.05539	107.79665
18400.00000	107.87514	-511.41107	107.87514
18450.00000	107.98006	-515.82897	107.98006
18500.00000	108.14136	-518.83453	108.14136
18550.00000	108.26512	-521.66005	108.26512
18600.00000	108.48523	-525.41654	108.48523
18650.00000	108.47873	-528.34736	108.47873
18700.00000	108.59115	-532.37640	108.59115
18750.00000	108.75166	-535.59030	108.75166
18800.00000	108.97760	-538.54812	108.97760
18850.00000	108.96683	-542.36505	108.96683
18900.00000	109.03373	-545.70866	109.03373
18950.00000	109.14068	-549.88847	109.14068
19000.00000	109.06074	-553.14518	109.06074
19050.00000	109.26718	-557.00111	109.26718
19100.00000	109.25488	-560.49403	109.25488
19150.00000	109.44357	-564.11686	109.44357
19200.00000	109.42764	-567.49789	109.42764
19250.00000	109.41267	-572.24592	109.41267
19300.00000	109.33636	-575.36889	109.33636
19350.00000	109.36463	-579.18846	109.36463
19400.00000	109.28840	-582.71674	109.28840
19450.00000	109.35388	-585.83406	109.35388
19500.00000	109.20740	-590.32802	109.20740
19550.00000	109.18122	-593.80652	109.18122
19600.00000	109.18181	-597.94612	109.18181
19650.00000	109.04477	-601.02102	109.04477
19700.00000	108.85608	-604.70000	108.85608
19750.00000	108.72871	-607.81932	108.72871
19800.00000	108.72112	-611.91415	108.72112
19850.00000	108.61843	-614.95843	108.61843
19900.00000	108.44191	-619.01903	108.44191
19950.00000	108.28400	-622.21600	108.28400
20000.00000	108.14688	-625.45039	108.14688
20050.00000	108.01235	-628.56395	108.01235
20100.00000	107.75522	-631.84239	107.75522
20150.00000	107.64065	-633.99355	107.64065
20200.00000	107.41796	-637.68614	107.41796
20250.00000	107.17088	-640.50035	107.17088
20300.00000	106.90882	-643.28466	106.90882
20350.00000	106.74443	-646.40417	106.74443
20400.00000	106.49756	-647.82013	106.49756
20450.00000	106.19048	-650.37677	106.19048
20500.00000	106.03475	-652.92536	106.03475
20550.00000	105.58648	-654.23052	105.58648
20600.00000	105.44510	-655.92159	105.44510
20650.00000	105.22112	-657.54523	105.22112
20700.00000	104.94227	-658.93265	104.94227
20750.00000	104.79724	-660.12361	104.79724
20800.00000	104.57855	-660.91784	104.57855
20850.00000	104.48676	-661.88461	104.48676
20900.00000	104.29733	-662.54797	104.29733
20950.00000	104.17639	-662.59778	104.17639
21000.00000	104.13000	-663.03247	104.13000
21050.00000	104.24261	-663.11774	104.24261
21100.00000	104.26422	-663.26661	104.26422
21150.00000	104.41418	-663.99630	104.41418
21200.00000	104.58656	-664.41319	104.58656
21250.00000	104.74797	-666.47954	104.74797
21300.00000	104.99356	-667.16475	104.99356
21350.00000	105.18265	-668.50419	105.18265
21400.00000	105.34889	-670.68067	105.34889
21450.00000	105.55686	-672.82208	105.55686
21500.00000	105.75562	-675.48645	105.75562
21550.00000	105.80748	-677.64472	105.80748
21600.00000	106.02412	-680.26945	106.02412
21650.00000	106.08767	-683.18663	106.08767
21700.00000	106.16590	-685.60146	106.16590
21750.00000	106.24928	-688.37148	106.24928
21800.00000	106.30036	-691.01936	106.30036
21850.00000	106.25072	-693.52203	106.25072
21900.00000	106.30650	-696.37297	106.30650
21950.00000	106.31002	-698.73009	106.31002
22000.00000	106.37511	-701.25110	106.37511
22050.00000	106.32208	-703.24833	106.32208
22100.00000	106.30394	-705.90335	106.30394
22150.00000	106.27091	-708.28843	106.27091
22200.00000	106.31430	-710.74836	106.31430
22250.00000	106.25728	-712.46236	106.25728
22300.00000	106.10739	-714.88185	106.10739
22350.00000	106.19274	-717.15817	106.19274
22400.00000	106.15036	-719.55407	106.15036
22450.00000	106.12037	-721.25962	106.12037
22500.00000	105.99845	-722.46336	105.99845
22550.00000	105.95436	-724.87025	105.95436
22600.00000	105.91556	-727.74244	105.91556
22650.00000	105.89353	-729.23619	105.89353
22700.00000	105.85642	-730.82205	105.85642
22750.00000	105.85546	-731.09738	105.85546
22800.00000	105.82648	-734.66617	105.82648
22850.00000	105.84615	-737.19686	105.84615
22900.00000	105.89172	-737.56233	105.89172
22950.00000	105.88062	-739.10170	105.88062
23000.00000	105.83348	-740.25482	105.83348
23050.00000	105.75522	-743.18687	105.75522
23100.00000	105.92690	-743.57520	105.92690
23150.00000	105.73465	-744.12672	105.73465
23200.00000	105.95047	-747.27743	105.95047
23250.00000	105.78378	-749.63948	105.78378
23300.00000	106.08716	-751.69307	106.08716
23350.00000	105.86181	-752.98813	105.86181
23400.00000	105.89083	-755.10183	105.89083
23450.00000	106.03169	-756.97335	106.03169
23500.00000	105.86758	-758.02234	105.86758
23550.00000	105.91442	-758.41720	105.91442
23600.00000	105.89301	-762.14807	105.89301
23650.00000	105.94508	-763.11734	105.94508
23700.00000	106.14492	-767.02303	106.14492
23750.00000	106.09904	-767.66982	106.09904
23800.00000	105.88035	-768.16135	105.88035
23850.00000	106.09054	-769.72011	106.09054
23900.00000	106.46209	-772.07639	106.46209
23950.00000	106.20996	-774.95483	106.20996
24000.00000	106.04818	-777.71918	106.04818
24050.00000	106.26107	-777.34518	106.26107
24100.00000	106.56980	-781.23375	106.56980
24150.00000	106.51524	-782.84681	106.51524
24200.00000	106.57060	-786.60634	106.57060
24250.00000	106.24023	-786.88994	106.24023
24300.00000	106.73172	-789.37143	106.73172
24350.00000	106.59893	-791.91022	106.59893
24400.00000	106.52647	-794.88833	106.52647
24450.00000	106.28004	-796.46781	106.28004
24500.00000	106.82322	-797.97455	106.82322
24550.00000	106.66017	-803.19278	106.66017
24600.00000	107.12158	-803.66249	107.12158
24650.00000	106.79303	-448.03648	106.79303
24700.00000	106.72481	-88.23848	106.72481
24750.00000	106.77114	266.97902	106.77114
24800.00000	106.76575	624.51315	106.76575
24850.00000	106.46936	983.36392	106.46936
24900.00000	106.47884	1341.47494	106.47884
24950.00000	106.72637	1697.47891	106.72637
25000.00000	106.74362	1689.74646	106.74362
25050.00000	106.60514	1689.13518	106.60514
25100.00000	106.28986	1686.60454	106.28986
25150.00000	106.58998	1686.35240	106.58998
25200.00000	106.34367	1681.19963	106.34367
25250.00000	106.48083	1680.43277	106.48083
25300.00000	106.40920	1678.31763	106.40920
25350.00000	106.41935	1671.39043	106.41935
25400.00000	106.27337	1667.93844	106.27337
25450.00000	106.25288	1665.89852	106.25288
25500.00000	106.06722	1663.43152	106.06722
25550.00000	105.90554	1659.32270	105.90554
25600.00000	105.93449	1657.19959	105.93449
25650.00000	105.67970	1654.78605	105.67970
25700.00000	105.67548	1651.58196	105.67548
25750.00000	105.38875	1648.46228	105.38875
25800.00000	105.23277	1644.40236	105.23277
25850.00000	105.09831	1641.73732	105.09831
25900.00000	104.89624	1637.64595	104.89624
25950.00000	104.66517	1638.85792	104.66517
26000.00000	104.58534	1633.77470	104.58534
26050.00000	104.42769	1630.98036	104.42769
26100.00000	104.22249	1628.42644	104.22249
26150.00000	104.01828	1625.91683	104.01828
26200.00000	103.95156	1623.32157	103.95156
26250.00000	103.65724	1620.64272	103.65724
26300.00000	103.61309	1617.28971	103.61309
26350.00000	103.04518	1616.36494	103.04518
26400.00000	102.95305	1614.04045	102.95305
26450.00000	103.07973	1610.48718	103.07973
26500.00000	102.69464	1608.24097	102.69464
26550.00000	102.43330	1603.05195	102.43330
26600.00000	102.19301	1601.13538	102.19301
26650.00000	102.18521	1601.61050	102.18521
26700.00000	101.94474	1599.03995	101.94474
26750.00000	101.55477	1596.89745	101.55477
26800.00000	101.33651	1592.15451	101.33651
26850.00000	101.47483	1592.06034	101.47483
26900.00000	101.30463	1591.41989	101.30463
26950.00000	101.29721	1588.29078	101.29721
27000.00000	100.72446	1587.18990	100.72446
27050.00000	100.90038	1585.21863	100.90038
27100.00000	100.53283	1584.44304	100.53283
27150.00000	100.46852	1581.46434	100.46852
27200.00000	100.56500	1580.66538	100.56500
27250.00000	100.06077	1580.12279	100.06077
27300.00000	99.82319	1577.28521	99.82319
27350.00000	99.97743	1578.12169	99.97743
27400.00000	99.65984	1575.43398	99.65984
27450.00000	99.43784	1574.55066	99.43784
27500.00000	99.57244	1573.44380	99.57244
27550.00000	99.57030	1571.67380	99.57030
27600.00000	99.90840	1570.10471	99.90840
27650.00000	99.31996	1570.52796	99.31996
27700.00000	99.51295	1566.20168	99.51295
27750.00000	99.46861	1563.75792	99.46861
27800.00000	99.67934	1561.18147	99.67934
27850.00000	99.94350	1564.20678	99.94350
27900.00000	99.47214	1562.17728	99.47214
27950.00000	99.05977	1559.66809	99.05977
28000.00000	99.36739	1559.24191	99.36739
28050.00000	100.00335	1556.45636	100.00335
28100.00000	99.43069	1555.19166	99.43069
28150.00000	99.59964	1554.33189	99.59964
28200.00000	99.83527	1550.13128	99.83527
28250.00000	99.67755	1547.80366	99.67755
28300.00000	99.52076	1548.08024	99.52076
28350.00000	99.86314	1546.77992	99.86314
28400.00000	99.86531	1546.79279	99.86531
28450.00000	100.52355	1542.50981	100.52355
28500.00000	100.15715	1542.33821	100.15715
28550.00000	100.14047	1542.43975	100.14047
28600.00000	100.35838	1540.32433	100.35838
28650.00000	100.66830	1535.65395	100.66830
28700.00000	100.70357	1536.00988	100.70357
28750.00000	101.37404	1535.17589	101.37404
28800.00000	101.30321	1532.73595	101.30321
28850.00000	100.70637	1527.89295	100.70637
28900.00000	101.01429	1527.21532	101.01429
28950.00000	101.04335	1526.29464	101.04335
29000.00000	101.27608	1522.82905	101.27608
29050.00000	101.14482	1523.24720	101.14482
29100.00000	101.26421	1521.63098	101.26421
29150.00000	101.25740	1519.71803	101.25740
29200.00000	101.24887	1516.11244	101.24887
29250.00000	101.60959	1515.01216	101.60959
29300.00000	101.41995	1512.17307	101.41995
29350.00000	101.86062	1509.41219	101.86062
29400.00000	101.72864	1507.95911	101.72864
29450.00000	101.69590	1506.35553	101.69590
29500.00000	102.06526	1505.23050	102.06526
29550.00000	101.89557	1499.86684	101.89557
29600.00000	101.68787	1499.96252	101.68787
29650.00000	101.88523	1496.64580	101.88523
29700.00000	101.71427	1497.63602	101.71427
29750.00000	101.69884	1496.33496	101.69884
29800.00000	101.52685	1493.32271	101.52685
29850.00000	101.60378	1490.79892	101.60378
29900.00000	101.73660	1491.04371	101.73660
29950.00000	100.96724	1489.72153	100.96724
30000.00000	101.43961	1490.31357	101.43961
30050.00000	101.51018	1487.72669	101.51018
30100.00000	101.07887	1488.50845	101.07887
30150.00000	101.27084	1485.09519	101.27084
30200.00000	101.23184	1484.04885	101.23184
30250.00000	100.94889	1484.59086	100.94889
30300.00000	100.70126	1485.28227	100.70126
30350.00000	100.84502	1486.65201	100.84502
30400.00000	100.79708	1484.57414	100.79708
30450.00000	100.45525	1485.26158	100.45525
30500.00000	100.46225	1484.93884	100.46225
30550.00000	100.49306	1486.72191	100.49306
30600.00000	100.46955	1487.97085	100.46955
30650.00000	100.52368	1488.88321	100.52368
30700.00000	100.62601	1488.74490	100.62601
30750.00000	100.46750	1491.06328	100.46750
30800.00000	100.72403	1491.56216	100.72403
30850.00000	100.95137	1494.25661	100.95137
30900.00000	100.90644	1496.59411	100.90644
30950.00000	101.44070	1496.19826	101.44070
31000.00000	101.71847	1496.53575	101.71847
31050.00000	102.14685	1498.43630	102.14685
31100.00000	102.66838	1499.69006	102.66838
31150.00000	102.70982	1499.79254	102.70982
31200.00000	103.54186	1499.30297	103.54186
31250.00000	103.90239	1499.06229	103.90239
31300.00000	104.41286	1498.15650	104.41286
31350.00000	104.99201	1497.30999	104.99201
31400.00000	105.27236	1495.07993	105.27236
31450.00000	105.76601	1493.85350	105.76601
31500.00000	106.17045	1490.45516	106.17045
31550.00000	106.60204	1488.33017	106.60204
31600.00000	107.14817	1484.90249	107.14817
31650.00000	107.39631	1482.30076	107.39631
31700.00000	107.72922	1479.89950	107.72922
31750.00000	108.10095	1477.75727	108.10095
31800.00000	108.29456	1473.15261	108.29456
31850.00000	108.51632	1469.29023	108.51632
31900.00000	108.50802	1466.15936	108.50802
31950.00000	108.78961	1462.73286	108.78961
32000.00000	108.90357	1458.75076	108.90357
32050.00000	108.98122	1455.54514	108.98122
32100.00000	109.06349	1451.65119	109.06349
32150.00000	109.14768	1448.91198	109.14768
32200.00000	109.17548	1445.10874	109.17548
32250.00000	109.10418	1441.15455	109.10418
32300.00000	109.11646	1438.19196	109.11646
32350.00000	109.01686	1435.41789	109.01686
32400.00000	109.10750	1431.88265	109.10750
32450.00000	108.88339	1428.74871	108.88339
32500.00000	108.89519	1426.79888	108.89519
32550.00000	108.82955	1422.75915	108.82955
32600.00000	108.69008	1420.70630	108.69008
32650.00000	108.75759	1417.92458	108.75759
32700.00000	108.51948	1415.07107	108.51948
32750.00000	108.47452	1412.15157	108.47452
32800.00000	108.48508	1410.23622	108.48508
32850.00000	108.52410	1407.84799	108.52410
32900.00000	108.36092	1404.32247	108.36092
32950.00000	108.14313	1401.65404	108.14313
33000.00000	108.11548	1401.49352	108.11548
33050.00000	107.99820	1397.92120	107.99820
33100.00000	108.10724	1396.41381	108.10724
33150.00000	108.09260	1394.94709	108.09260
33200.00000	108.21277	1393.96263	108.21277
33250.00000	108.13054	1391.96144	108.13054
33300.00000	108.11427	1389.54351	108.11427
33350.00000	108.09844	1387.46387	108.09844
33400.00000	108.29017	1386.64463	108.29017
33450.00000	108.41654	1383.46832	108.41654
33500.00000	108.70317	1383.48968	108.70317
33550.00000	108.51615	1379.27351	108.51615
33600.00000	108.89362	1377.98946	108.89362
33650.00000	109.05385	1375.72477	109.05385
33700.00000	109.23205	1374.09146	109.23205
33750.00000	109.31984	1371.20768	109.31984
33800.00000	109.67968	1368.76025	109.67968
33850.00000	109.60052	1366.71649	109.60052
33900.00000	110.00758	1362.95114	110.00758
33950.00000	110.17250	1361.03868	110.17250
34000.00000	110.46372	1357.55769	110.46372
34050.00000	110.57788	1354.29738	110.57788
34100.00000	110.63740	1352.60902	110.63740
34150.00000	111.04090	1348.12709	111.04090
34200.00000	111.14601	1346.75574	111.14601
34250.00000	111.38659	1341.81644	111.38659
34300.00000	111.55727	1338.84374	111.55727
34350.00000	111.77125	1334.34321	111.77125
34400.00000	111.67076	1333.45177	111.67076
34450.00000	111.88590	1326.98488	111.88590
34500.00000	111.89510	1324.86571	111.89510
34550.00000	112.21613	1321.93685	112.21613
34600.00000	112.00116	1318.10865	112.00116
34650.00000	112.46084	1316.81760	112.46084
34700.00000	112.17743	1314.05693	112.17743
34750.00000	112.52227	1306.48370	112.52227
34800.00000	112.72742	1306.76332	112.72742
34850.00000	112.85516	1305.08134	112.85516
34900.00000	113.11354	1299.69096	113.11354
34950.00000	112.99651	1297.74952	112.99651
35000.00000	113.08566	1294.17873	113.08566
35050.00000	113.31792	1291.86400	113.31792
35100.00000	113.44791	1288.44791	113.44791
35150.00000	113.29645	1286.83080	113.29645
35200.00000	113.47045	1282.34916	113.47045
35250.00000	113.58974	1279.53785	113.58974
35300.00000	113.73737	1276.50799	113.73737
35350.00000	113.96984	1273.33296	113.96984
35400.00000	114.04769	1270.38245	114.04769
35450.00000	114.24955	1268.34603	114.24955
35500.00000	114.00979	1265.72342	114.00979
35550.00000	114.31492	1263.91232	114.31492
35600.00000	114.36265	1260.33280	114.36265
35650.00000	114.58502	1257.89154	114.58502
35700.00000	114.71913	1255.44136	114.71913
35750.00000	114.70801	1253.95038	114.70801
35800.00000	114.91134	1252.45563	114.91134
35850.00000	115.18356	1248.11434	115.18356
35900.00000	115.42533	1246.54547	115.42533
35950.00000	115.66436	1243.44540	115.66436
36000.00000	115.71197	1241.38443	115.71197
36050.00000	115.99394	1239.06247	115.99394
36100.00000	116.25944	1236.02141	116.25944
36150.00000	116.35774	1233.57371	116.35774
36200.00000	116.48649	1231.52340	116.48649
36250.00000	116.65741	1228.14136	116.65741
36300.00000	116.74572	1226.02237	116.74572
36350.00000	117.15013	1223.70139	117.15013
36400.00000	117.35032	1221.45096	117.35032
36450.00000	117.40287	1217.94088	117.40287
36500.00000	117.85290	1215.96071	117.85290
36550.00000	117.80184	1211.77748	117.80184
36600.00000	118.02316	1209.56763	118.02316
36650.00000	118.25451	1206.71155	118.25451
36700.00000	118.50782	1202.95895	118.50782
36750.00000	118.64589	1199.96444	118.64589
36800.00000	118.68087	1197.50767	118.68087
36850.00000	118.70002	1194.09069	118.70002
36900.00000	119.01670	1190.88146	119.01670
36950.00000	118.91517	1187.39118	118.91517
37000.00000	118.74040	1185.06686	118.74040
37050.00000	118.85155	1182.83839	118.85155
37100.00000	119.06895	1178.42604	119.06895
37150.00000	119.07337	1175.29190	119.07337
37200.00000	119.32748	1173.50153	119.32748
37250.00000	118.93315	1170.20872	118.93315
37300.00000	118.99901	1167.55234	118.99901
37350.00000	119.20225	1165.22576	119.20225
37400.00000	118.93034	1163.34675	118.93034
37450.00000	118.85257	1161.07134	118.85257
37500.00000	119.20105	1157.79347	119.20105
37550.00000	118.86309	1156.52326	118.86309
37600.00000	118.98889	1153.95198	118.98889
37650.00000	118.90356	1152.34132	118.90356
37700.00000	118.98157	1149.07356	118.98157
37750.00000	118.95768	1147.60694	118.95768
37800.00000	118.81098	1144.48655	118.81098
37850.00000	118.85779	1141.25677	118.85779
37900.00000	118.81278	1139.92760	118.81278
37950.00000	118.88648	1138.55191	118.88648
38000.00000	118.72773	1136.81526	118.72773
38050.00000	118.89264	1134.01618	118.89264
38100.00000	118.93060	1131.56293	118.93060
38150.00000	118.86189	1128.57093	118.86189
38200.00000	119.02200	1125.53609	119.02200
38250.00000	118.97959	1123.61309	118.97959
38300.00000	119.07636	1120.23639	119.07636
38350.00000	119.03935	1118.22796	119.03935
38400.00000	119.11486	1115.40405	119.11486
38450.00000	119.14167	1111.67401	119.14167
38500.00000	119.27251	1108.58065	119.27251
38550.00000	119.37913	1106.05154	119.37913
38600.00000	119.45151	1102.65890	119.45151
38650.00000	119.51517	1098.92685	119.51517
38700.00000	119.52190	1095.40110	119.52190
38750.00000	119.64354	1091.97107	119.64354
38800.00000	119.74686	1088.24946	119.74686
38850.00000	119.79274	1084.01831	119.79274
38900.00000	119.87275	1080.23251	119.87275
38950.00000	119.86764	1075.51489	119.86764
39000.00000	119.90969	1071.19407	119.90969
39050.00000	120.00425	1066.70526	120.00425
39100.00000	119.87957	1061.92619	119.87957
39150.00000	119.81179	1057.15955	119.81179
39200.00000	119.78732	1052.66931	119.78732
39250.00000	119.74399	1047.44539	119.74399
39300.00000	119.61354	1042.47964	119.61354
39350.00000	119.42134	1038.30412	119.42134
39400.00000	119.27783	1033.18064	119.27783
39450.00000	119.02833	1028.70287	119.02833
39500.00000	118.89417	1024.10161	118.89417
39550.00000	118.61966	1019.27834	118.61966
39600.00000	118.30771	1015.02016	118.30771
39650.00000	118.10997	1011.26794	118.10997
39700.00000	117.80144	1007.07200	117.80144
39750.00000	117.53476	1002.90056	117.53476
39800.00000	117.29215	998.86546	117.29215
39850.00000	116.97199	995.24652	116.97199
39900.00000	116.70785	991.69661	116.70785
39950.00000	116.40281	988.60889	116.40281
40000.00000	115.95248	986.73762	115.95248
40050.00000	115.77483	982.11607	115.77483
40100.00000	115.54130	978.94543	115.54130
40150.00000	115.22329	976.19280	115.22329
40200.00000	115.00097	973.03623	115.00097
40250.00000	114.72205	970.89641	114.72205
40300.00000	114.53490	968.38684	114.53490
40350.00000	114.14140	966.39414	114.14140
40400.00000	113.89688	964.13111	113.89688
40450.00000	113.67731	962.27919	113.67731
40500.00000	113.59161	960.66729	113.59161
40550.00000	113.36563	958.26721	113.36563
40600.00000	113.16552	956.68892	113.16552
40650.00000	113.00768	955.81326	113.00768
40700.00000	112.70481	954.87549	112.70481
40750.00000	112.80975	953.28820	112.80975
40800.00000	112.64073	951.55440	112.64073
40850.00000	112.52276	951.28825	112.52276
40900.00000	112.47801	949.77412	112.47801
40950.00000	112.25565	949.59111	112.25565
41000.00000	112.24418	949.42985	112.24418
41050.00000	112.32010	948.25351	112.32010
41100.00000	112.49399	946.61682	112.49399
41150.00000	112.65747	947.23190	112.65747
41200.00000	112.83311	946.64589	112.83311
41250.00000	112.83876	943.27807	112.83876
41300.00000	112.82737	944.10946	112.82737
41350.00000	113.08527	944.46908	113.08527
41400.00000	113.29018	938.96168	113.29018
41450.00000	113.52817	940.60312	113.52817
41500.00000	113.59984	939.38578	113.59984
41550.00000	113.78511	941.68199	113.78511
41600.00000	113.66745	938.91845	113.66745
41650.00000	114.25049	935.71516	114.25049
41700.00000	114.55031	935.21423	114.55031
41750.00000	114.53207	938.04746	114.53207
41800.00000	113.92457	931.06200	113.92457
41850.00000	114.18205	931.11214	114.18205
41900.00000	114.13406	930.56472	114.13406
41950.00000	115.58084	933.53458	115.58084
42000.00000	114.62295	926.71566	114.62295
42050.00000	113.81210	925.14004	113.81210
42100.00000	114.30901	923.56188	114.30901
42150.00000	113.93312	917.53659	113.93312
42200.00000	113.82192	923.22921	113.82192
42250.00000	114.03354	920.79329	114.03354
42300.00000	112.96577	916.71153	112.96577
42350.00000	113.56454	916.21270	113.56454
42400.00000	113.41299	917.12029	113.41299
42450.00000	113.76512	910.97757	113.76512
42500.00000	112.97165	911.49706	112.97165
42550.00000	112.88173	920.83806	112.88173
42600.00000	112.38847	912.38857	112.38847
42650.00000	112.16795	913.79889	112.16795
42700.00000	111.72590	911.29740	111.72590
42750.00000	112.47276	910.54750	112.47276
42800.00000	111.68475	901.09203	111.68475
42850.00000	111.09713	902.15949	111.09713
42900.00000	112.00411	908.17715	112.00411
42950.00000	110.87719	903.09351	110.87719
43000.00000	111.43048	894.32381	111.43048
43050.00000	110.72303	894.01285	110.72303
43100.00000	110.59395	897.66803	110.59395
43150.00000	109.73328	895.65217	109.73328
43200.00000	109.88341	892.77024	109.88341
43250.00000	109.88406	891.49657	109.88406
43300.00000	109.78874	888.68946	109.78874
43350.00000	110.27119	886.50349	110.27119
43400.00000	109.63488	883.41777	109.63488
43450.00000	110.19395	884.53870	110.19395
43500.00000	108.92225	876.30184	108.92225
43550.00000	109.21304	875.20545	109.21304
43600.00000	109.06524	872.08552	109.06524
43650.00000	109.05307	861.53170	109.05307
43700.00000	108.88465	862.08049	108.88465
43750.00000	108.13824	861.72006	108.13824
43800.00000	108.42894	855.27272	108.42894
43850.00000	108.49220	850.42320	108.49220
43900.00000	108.37342	848.00194	108.37342
43950.00000	108.31379	841.94356	108.31379
44000.00000	107.46760	841.29796	107.46760
44050.00000	107.64431	835.39110	107.64431
44100.00000	107.54482	823.04489	107.54482
44150.00000	107.15768	826.39066	107.15768
44200.00000	106.94894	825.13986	106.94894
44250.00000	107.08563	817.59761	107.08563
44300.00000	107.11518	810.05570	107.11518
44350.00000	105.84355	805.39683	105.84355
44400.00000	106.46653	804.72334	106.46653
44450.00000	106.49099	800.56999	106.49099
44500.00000	105.72763	796.86169	105.72763
44550.00000	106.70244	787.06949	106.70244
44600.00000	105.63828	790.05429	105.63828
44650.00000	105.50603	778.64906	105.50603
44700.00000	105.06509	773.89584	105.06509
44750.00000	104.91378	773.62284	104.91378
44800.00000	105.92867	767.22807	105.92867
44850.00000	104.76076	760.15691	104.76076
44900.00000	104.60988	760.22264	104.60988
44950.00000	104.32216	753.02626	104.32216
45000.00000	104.20250	742.87142	104.20250
45050.00000	102.64999	746.77366	102.64999
45100.00000	103.12917	738.57742	103.12917
45150.00000	102.93762	727.37596	102.93762
45200.00000	102.60575	727.29637	102.60575
45250.00000	102.45623	724.06770	102.45623
45300.00000	102.56015	716.08523	102.56015
45350.00000	101.56570	707.57461	101.56570
45400.00000	102.07636	705.43936	102.07636
45450.00000	101.51099	697.02555	101.51099
45500.00000	99.54089	694.97826	99.54089
45550.00000	99.63556	689.93411	99.63556
45600.00000	100.47523	682.53932	100.47523
45650.00000	98.35103	672.56201	98.35103
45700.00000	98.22160	668.49159	98.22160
45750.00000	99.25308	670.55897	99.25308
45800.00000	97.15574	661.08765	97.15574
45850.00000	97.66730	661.77626	97.66730
45900.00000	96.11949	654.09219	96.11949
45950.00000	95.39369	657.72133	95.39369
46000.00000	94.31600	638.73031	94.31600
46050.00000	94.01266	637.23957	94.01266
46100.00000	92.16327	632.91691	92.16327
46150.00000	92.75382	638.23733	92.75382
46200.00000	90.81482	626.82626	90.81482
46250.00000	91.55681	621.75236	91.55681
46300.00000	89.80585	624.36915	89.80585
46350.00000	90.61168	610.90597	90.61168
46400.00000	88.05302	613.55157	88.05302
46450.00000	86.17780	610.47126	86.17780
46500.00000	87.98265	613.58364	87.98265
46550.00000	85.73516	613.38531	85.73516
46600.00000	87.36873	611.00666	87.36873
46650.00000	83.56256	616.26318	83.56256
46700.00000	82.02754	623.93845	82.02754
46750.00000	85.66736	620.32441	85.66736
46800.00000	81.97964	621.03391	81.97964
46850.00000	82.05318	274.64849	82.05318
46900.00000	81.31853	320.46674	81.31853
46950.00000	83.32041	264.34200	83.32041
47000.00000	82.59478	271.81490	82.59478
47050.00000	83.95390	253.29669	83.95390
47100.00000	83.10045	253.24978	83.10045
47150.00000	85.15238	259.04566	85.15238
47200.00000	82.61394	257.84239	82.61394
47250.00000	84.11266	260.08017	84.11266
47300.00000	84.12151	257.11465	84.12151
47350.00000	83.91925	-99.70547	83.91925
47400.00000	82.05784	-101.24429	82.05784
47450.00000	83.20466	-114.48817	83.20466
47500.00000	79.54217	-128.63517	79.54217
47550.00000	81.88303	-470.48764	81.88303
47600.00000	81.06044	-470.88549	81.06044
47650.00000	84.22704	-469.75993	84.22704
47700.00000	84.34233	-470.22243	84.34233
47750.00000	81.65057	-464.32185	81.65057
47800.00000	80.40276	-495.79546	80.40276
47850.00000	83.45504	-836.20204	83.45504
47900.00000	83.96110	-1171.13008	83.96110
47950.00000	84.12640	-1197.03230	84.12640
48000.00000	82.66583	-1179.11965	82.66583
48050.00000	84.63006	-1199.94697	84.63006
48100.00000	82.18535	-1209.51285	82.18535
48150.00000	83.59666	-1552.19328	83.59666
48200.00000	83.77629	-1561.76083	83.77629
48250.00000	84.03915	-1576.57449	84.03915
48300.00000	84.58112	-1573.31992	84.58112
48350.00000	83.43927	-1578.13660	83.43927
48400.00000	85.22316	-1930.53013	85.22316
48450.00000	86.16913	-1933.37929	86.16913
48500.00000	84.56660	-1941.26717	84.56660
48550.00000	83.50013	-1948.79665	83.50013
48600.00000	85.00071	-2300.17001	85.00071
48650.00000	84.10102	-2319.70021	84.10102
48700.00000	85.99842	-2332.31536	85.99842
48750.00000	83.89791	-2663.75599	83.89791
48800.00000	85.29412	-2679.07399	85.29412
48850.00000	84.70957	-2688.58504	84.70957
48900.00000	84.63767	-3037.74181	84.63767
48950.00000	83.09580	-3053.14186	83.09580
49000.00000	86.38658	-3056.02969	86.38658
49050.00000	85.13722	-3060.45490	85.13722
49100.00000	85.69645	-3425.75188	85.69645
49150.00000	86.05920	-3779.82835	86.05920
49200.00000	84.13997	-3794.71934	84.13997
49250.00000	85.30128	-4164.27433	85.30128
49300.00000	85.44594	-3821.41713	85.44594
49350.00000	84.43454	-3799.90043	84.43454
49400.00000	85.60697	-3455.90579	85.60697
49450.00000	83.94289	-3096.40307	83.94289
49500.00000	87.09072	-2750.87353	87.09072
49550.00000	87.31496	-2400.38045	87.31496
49600.00000	88.71304	-2392.56393	88.71304
49650.00000	86.60249	-2399.97745	86.60249
49700.00000	87.15519	-2074.45513	87.15519
49750.00000	89.23859	-2065.25341	89.23859
49800.00000	86.49868	-2063.59293	86.49868
49850.00000	88.05175	-2049.53576	88.05175
49900.00000	87.78419	-1710.66075	87.78419
49950.00000	89.64082	-1372.37093	89.64082
