---ACOUSTIC CALIBRATION---
Filename: C:\Data\AZH DATA\AZH31\RightSecondary.calib
Date: 8/27/2019 12:50:02 PM
Format: 4
Probe Tube Correction File: C:\Data\Probe Tube Calibrations\50_ProbeTube.calib
Experiment VIs: 850
EPL_CFTS.exe V12.0.1 (2012)
DAQmx V9.6

Attenuation (dB): 40.000000
Min Freq (Hz): 50.000000
Max Freq (Hz): 49950.000000
Freq Step (Hz): 50.000000
Sample Rate (Hz): 100000.000000
[Smoothing]
Method=None
MA.Iterations=0
MA.Length=0
Loess.Length=0
Loess.Type=Linear
Loess.Robust=FALSE


Freq(Hz)	Mag(dB)	Phase(deg)	Unsmoothed(dB)

50.00000	100.34082	498.37323	100.34082
100.00000	80.04876	443.11828	80.04876
150.00000	78.41983	425.02263	78.41983
200.00000	79.63816	461.58114	79.63816
250.00000	88.14861	409.46936	88.14861
300.00000	84.90686	316.17617	84.90686
350.00000	84.96336	339.74110	84.96336
400.00000	87.71997	330.45409	87.71997
450.00000	86.12737	321.13781	86.12737
500.00000	88.11585	299.17492	88.11585
550.00000	87.68320	332.62151	87.68320
600.00000	91.63343	334.84793	91.63343
650.00000	92.99796	330.35782	92.99796
700.00000	95.21862	319.51292	95.21862
750.00000	97.44637	317.10834	97.44637
800.00000	100.33560	307.35869	100.33560
850.00000	102.41593	295.30602	102.41593
900.00000	103.94831	279.05944	103.94831
950.00000	105.25851	261.53589	105.25851
1000.00000	105.06917	244.02057	105.06917
1050.00000	104.61603	235.72926	104.61603
1100.00000	104.73853	224.06530	104.73853
1150.00000	104.12782	213.82409	104.12782
1200.00000	104.09762	210.46321	104.09762
1250.00000	103.84615	199.45978	103.84615
1300.00000	102.90763	194.34006	102.90763
1350.00000	102.14672	191.14875	102.14672
1400.00000	101.65868	191.14256	101.65868
1450.00000	101.73816	190.62053	101.73816
1500.00000	102.16691	188.83235	102.16691
1550.00000	102.06249	189.04928	102.06249
1600.00000	102.94653	185.69909	102.94653
1650.00000	103.65336	176.73210	103.65336
1700.00000	102.54287	171.39289	102.54287
1750.00000	102.23679	171.11871	102.23679
1800.00000	101.99362	167.49052	101.99362
1850.00000	101.58384	170.16994	101.58384
1900.00000	103.22661	171.40555	103.22661
1950.00000	103.69315	161.37199	103.69315
2000.00000	103.26173	153.51157	103.26173
2050.00000	102.45327	151.26964	102.45327
2100.00000	102.27109	149.60044	102.27109
2150.00000	102.29378	144.28132	102.29378
2200.00000	101.77848	142.53234	101.77848
2250.00000	100.90033	141.43436	100.90033
2300.00000	100.75911	142.50959	100.75911
2350.00000	100.59059	143.14420	100.59059
2400.00000	100.57158	143.16788	100.57158
2450.00000	100.39565	143.65842	100.39565
2500.00000	100.06234	145.48119	100.06234
2550.00000	99.96793	148.88428	99.96793
2600.00000	100.74036	155.31593	100.74036
2650.00000	102.29818	158.15196	102.29818
2700.00000	103.96463	152.73239	103.96463
2750.00000	104.67335	143.16543	104.67335
2800.00000	104.76400	133.69442	104.76400
2850.00000	104.38313	127.60739	104.38313
2900.00000	103.92073	122.98343	103.92073
2950.00000	103.56481	119.47256	103.56481
3000.00000	103.16291	116.42585	103.16291
3050.00000	102.70646	114.44430	102.70646
3100.00000	102.31157	112.67195	102.31157
3150.00000	102.01157	110.55051	102.01157
3200.00000	101.46360	109.05385	101.46360
3250.00000	100.60777	109.06021	100.60777
3300.00000	99.65628	109.15278	99.65628
3350.00000	98.44847	114.36568	98.44847
3400.00000	97.99657	124.01009	97.99657
3450.00000	98.37684	132.92626	98.37684
3500.00000	99.24425	139.28895	99.24425
3550.00000	99.74578	140.51568	99.74578
3600.00000	99.92098	142.85634	99.92098
3650.00000	99.84346	148.25579	99.84346
3700.00000	100.23081	159.47257	100.23081
3750.00000	101.79799	170.03283	101.79799
3800.00000	103.95240	174.43146	103.95240
3850.00000	105.88394	174.03432	105.88394
3900.00000	107.63578	171.35646	107.63578
3950.00000	109.21136	167.47471	109.21136
4000.00000	110.38936	162.47622	110.38936
4050.00000	111.43993	157.07309	111.43993
4100.00000	112.22358	152.76854	112.22358
4150.00000	113.08310	149.34266	113.08310
4200.00000	113.77945	146.20459	113.77945
4250.00000	114.64901	144.00639	114.64901
4300.00000	115.66026	141.55293	115.66026
4350.00000	116.77011	138.50651	116.77011
4400.00000	118.01691	134.96186	118.01691
4450.00000	119.37566	130.48368	119.37566
4500.00000	120.74639	124.64159	120.74639
4550.00000	122.13246	117.23564	122.13246
4600.00000	123.46634	108.39031	123.46634
4650.00000	124.75980	97.97304	124.75980
4700.00000	125.87163	85.59776	125.87163
4750.00000	126.68913	71.44806	126.68913
4800.00000	127.12611	56.21513	127.12611
4850.00000	127.08403	41.05360	127.08403
4900.00000	126.63228	26.91012	126.63228
4950.00000	125.84352	14.41826	125.84352
5000.00000	124.74000	 4.39951	124.74000
5050.00000	123.72173	-2.45191	123.72173
5100.00000	122.39784	-10.20445	122.39784
5150.00000	120.08445	-8.55897	120.08445
5200.00000	120.38709	10.09660	120.38709
5250.00000	123.33388	 6.01514	123.33388
5300.00000	124.23154	-8.51555	124.23154
5350.00000	124.12368	-20.48389	124.12368
5400.00000	123.72046	-29.89706	123.72046
5450.00000	123.21569	-37.37938	123.21569
5500.00000	122.73227	-43.99882	122.73227
5550.00000	122.28101	-49.78240	122.28101
5600.00000	121.80578	-55.07456	121.80578
5650.00000	121.38588	-59.97085	121.38588
5700.00000	120.93578	-64.91075	120.93578
5750.00000	120.52133	-69.20800	120.52133
5800.00000	120.11235	-73.28974	120.11235
5850.00000	119.71625	-77.49315	119.71625
5900.00000	119.34043	-81.30570	119.34043
5950.00000	118.98108	-84.84855	118.98108
6000.00000	118.66121	-88.28914	118.66121
6050.00000	118.27672	-92.03799	118.27672
6100.00000	117.91963	-95.53627	117.91963
6150.00000	117.62686	-98.74566	117.62686
6200.00000	117.29254	-102.15719	117.29254
6250.00000	116.93805	-105.35386	116.93805
6300.00000	116.63201	-108.23145	116.63201
6350.00000	116.30233	-111.47055	116.30233
6400.00000	115.97517	-114.52181	115.97517
6450.00000	115.66817	-117.47840	115.66817
6500.00000	115.32739	-120.05061	115.32739
6550.00000	114.97184	-122.54418	114.97184
6600.00000	114.64510	-125.08417	114.64510
6650.00000	114.30925	-127.40575	114.30925
6700.00000	114.01258	-129.86096	114.01258
6750.00000	113.71351	-131.72500	113.71351
6800.00000	113.39867	-133.79445	113.39867
6850.00000	113.16278	-135.81100	113.16278
6900.00000	112.89426	-137.66515	112.89426
6950.00000	112.63588	-139.48509	112.63588
7000.00000	112.40358	-141.51381	112.40358
7050.00000	112.12416	-143.12709	112.12416
7100.00000	111.92285	-144.87795	111.92285
7150.00000	111.67993	-146.28725	111.67993
7200.00000	111.43353	-147.67925	111.43353
7250.00000	111.23397	-148.82074	111.23397
7300.00000	111.09739	-149.90110	111.09739
7350.00000	110.91683	-150.55910	110.91683
7400.00000	110.78633	-151.92349	110.78633
7450.00000	110.82166	-152.75751	110.82166
7500.00000	110.73564	-153.58006	110.73564
7550.00000	110.72056	-154.76785	110.72056
7600.00000	110.75358	-155.89459	110.75358
7650.00000	110.79381	-157.29196	110.79381
7700.00000	110.93230	-158.98285	110.93230
7750.00000	110.99234	-160.86681	110.99234
7800.00000	111.05844	-163.10678	111.05844
7850.00000	111.10722	-165.11979	111.10722
7900.00000	111.20724	-167.44923	111.20724
7950.00000	111.22438	-169.72904	111.22438
8000.00000	111.30427	-172.56644	111.30427
8050.00000	111.37269	-175.66081	111.37269
8100.00000	111.39388	-178.03822	111.39388
8150.00000	111.35011	-180.91639	111.35011
8200.00000	111.34013	-183.44158	111.34013
8250.00000	111.31717	-186.63756	111.31717
8300.00000	111.30345	-189.46686	111.30345
8350.00000	111.23392	-192.27299	111.23392
8400.00000	111.11808	-195.59838	111.11808
8450.00000	110.95479	-198.38160	110.95479
8500.00000	110.87429	-201.34180	110.87429
8550.00000	110.78501	-203.95645	110.78501
8600.00000	110.63213	-206.72480	110.63213
8650.00000	110.46254	-209.42911	110.46254
8700.00000	110.35450	-212.41884	110.35450
8750.00000	110.17360	-214.21239	110.17360
8800.00000	110.05731	-217.32579	110.05731
8850.00000	109.87687	-219.89802	109.87687
8900.00000	109.76092	-222.35825	109.76092
8950.00000	109.64431	-225.14999	109.64431
9000.00000	109.44211	-227.32317	109.44211
9050.00000	109.41101	-230.03455	109.41101
9100.00000	109.34386	-232.37158	109.34386
9150.00000	109.27533	-234.94889	109.27533
9200.00000	109.26580	-237.39605	109.26580
9250.00000	109.14066	-239.35460	109.14066
9300.00000	109.11156	-241.90358	109.11156
9350.00000	109.10422	-244.23905	109.10422
9400.00000	108.96326	-246.50072	108.96326
9450.00000	108.96091	-248.81063	108.96091
9500.00000	108.85018	-251.14073	108.85018
9550.00000	108.77517	-253.56646	108.77517
9600.00000	108.79309	-256.40299	108.79309
9650.00000	108.77098	-259.54826	108.77098
9700.00000	108.70529	-261.83620	108.70529
9750.00000	108.66380	-265.31523	108.66380
9800.00000	108.53504	-267.45320	108.53504
9850.00000	108.41022	-269.51623	108.41022
9900.00000	108.16068	-271.83771	108.16068
9950.00000	108.00694	-273.72769	108.00694
10000.00000	107.82586	-276.59444	107.82586
10050.00000	107.59058	-278.89328	107.59058
10100.00000	107.36938	-281.51258	107.36938
10150.00000	107.08056	-284.69658	107.08056
10200.00000	106.94171	-287.57805	106.94171
10250.00000	106.75969	-290.65211	106.75969
10300.00000	106.72132	-293.43267	106.72132
10350.00000	106.60168	-295.74980	106.60168
10400.00000	106.42888	-298.35508	106.42888
10450.00000	106.38339	-300.97152	106.38339
10500.00000	106.26789	-303.13769	106.26789
10550.00000	106.11207	-305.73587	106.11207
10600.00000	105.89728	-307.93832	105.89728
10650.00000	105.69665	-310.18359	105.69665
10700.00000	105.55847	-313.74138	105.55847
10750.00000	105.41680	-316.93518	105.41680
10800.00000	105.21673	-319.61024	105.21673
10850.00000	105.02886	-323.11285	105.02886
10900.00000	104.87684	-325.55714	104.87684
10950.00000	104.69190	-327.35021	104.69190
11000.00000	104.48956	-329.74358	104.48956
11050.00000	104.06656	-332.17825	104.06656
11100.00000	103.75279	-334.97727	103.75279
11150.00000	103.29798	-337.43231	103.29798
11200.00000	102.97377	-340.00814	102.97377
11250.00000	102.55346	-342.56530	102.55346
11300.00000	102.15358	-344.85865	102.15358
11350.00000	101.83934	-346.43862	101.83934
11400.00000	101.44485	-348.17223	101.44485
11450.00000	101.11411	-349.81733	101.11411
11500.00000	100.84848	-350.40639	100.84848
11550.00000	100.39771	-351.21808	100.39771
11600.00000	100.16636	-353.06511	100.16636
11650.00000	99.81762	-353.32990	99.81762
11700.00000	99.56394	-354.42560	99.56394
11750.00000	99.37422	-355.51628	99.37422
11800.00000	99.17340	-356.92879	99.17340
11850.00000	99.06690	-356.83238	99.06690
11900.00000	98.74880	-358.13601	98.74880
11950.00000	98.53501	-358.70432	98.53501
12000.00000	98.28423	-359.13836	98.28423
12050.00000	98.02115	-359.72174	98.02115
12100.00000	97.83969	-361.96261	97.83969
12150.00000	97.61384	-363.31684	97.61384
12200.00000	97.47899	-364.99958	97.47899
12250.00000	97.27393	-365.74014	97.27393
12300.00000	98.22346	-367.26608	98.22346
12350.00000	96.90811	-368.31665	96.90811
12400.00000	96.65178	-368.09190	96.65178
12450.00000	96.38935	-368.53492	96.38935
12500.00000	96.05069	-369.63921	96.05069
12550.00000	95.73752	-370.61720	95.73752
12600.00000	95.31361	-371.91863	95.31361
12650.00000	95.29474	-372.20546	95.29474
12700.00000	94.91670	-373.00319	94.91670
12750.00000	94.75580	-373.43714	94.75580
12800.00000	94.41521	-373.07810	94.41521
12850.00000	93.93249	-372.92892	93.93249
12900.00000	93.71399	-373.44284	93.71399
12950.00000	93.47534	-373.99778	93.47534
13000.00000	93.41528	-374.96646	93.41528
13050.00000	93.34277	-373.37207	93.34277
13100.00000	93.09339	-372.91338	93.09339
13150.00000	93.15074	-372.59744	93.15074
13200.00000	92.86344	-371.28539	92.86344
13250.00000	92.59686	-371.40984	92.59686
13300.00000	92.32530	-368.22346	92.32530
13350.00000	92.12217	-369.16542	92.12217
13400.00000	92.12759	-368.92141	92.12759
13450.00000	91.90038	-367.85303	91.90038
13500.00000	91.99492	-366.15979	91.99492
13550.00000	91.69643	-365.23914	91.69643
13600.00000	91.92935	-363.51301	91.92935
13650.00000	91.91997	-362.19176	91.91997
13700.00000	91.69588	-360.43394	91.69588
13750.00000	91.62532	-360.15275	91.62532
13800.00000	91.55327	-359.69277	91.55327
13850.00000	91.46389	-360.10548	91.46389
13900.00000	91.59334	-358.81381	91.59334
13950.00000	91.75601	-358.27212	91.75601
14000.00000	92.25540	-355.21333	92.25540
14050.00000	92.43314	-355.14961	92.43314
14100.00000	92.57321	-352.90139	92.57321
14150.00000	92.75797	-351.90987	92.75797
14200.00000	93.17585	-350.30886	93.17585
14250.00000	93.60008	-347.98818	93.60008
14300.00000	93.84171	-347.77872	93.84171
14350.00000	93.97997	-345.82327	93.97997
14400.00000	93.93534	-346.62722	93.93534
14450.00000	94.24481	-345.27918	94.24481
14500.00000	94.55031	-345.44780	94.55031
14550.00000	95.09946	-344.96050	95.09946
14600.00000	95.40609	-345.79849	95.40609
14650.00000	96.14369	-343.81647	96.14369
14700.00000	96.55643	-348.03090	96.55643
14750.00000	96.94005	-347.71154	96.94005
14800.00000	97.28651	-347.36420	97.28651
14850.00000	97.81840	-347.42840	97.81840
14900.00000	98.33343	-348.68918	98.33343
14950.00000	98.75613	-349.54411	98.75613
15000.00000	99.23513	-351.29383	99.23513
15050.00000	99.41310	-351.97503	99.41310
15100.00000	99.90293	-353.37412	99.90293
15150.00000	100.50249	-355.82509	100.50249
15200.00000	100.87960	-355.54574	100.87960
15250.00000	101.13782	-357.95889	101.13782
15300.00000	101.71408	-359.74580	101.71408
15350.00000	102.03243	-362.64249	102.03243
15400.00000	102.29251	-363.53601	102.29251
15450.00000	102.66002	-366.41890	102.66002
15500.00000	103.13625	-368.80283	103.13625
15550.00000	103.52563	-371.70647	103.52563
15600.00000	103.85175	-374.63374	103.85175
15650.00000	104.34556	-375.50654	104.34556
15700.00000	104.48381	-379.23624	104.48381
15750.00000	104.87668	-381.32576	104.87668
15800.00000	105.17351	-383.35320	105.17351
15850.00000	105.42893	-385.77968	105.42893
15900.00000	105.61490	-389.10542	105.61490
15950.00000	105.90846	-391.48165	105.90846
16000.00000	106.13457	-393.79863	106.13457
16050.00000	106.44218	-396.35098	106.44218
16100.00000	106.52420	-399.68173	106.52420
16150.00000	106.75979	-402.40276	106.75979
16200.00000	107.06420	-405.43586	107.06420
16250.00000	107.32949	-407.79498	107.32949
16300.00000	107.66235	-410.36200	107.66235
16350.00000	107.78544	-413.13500	107.78544
16400.00000	107.99518	-415.67053	107.99518
16450.00000	108.17965	-418.27777	108.17965
16500.00000	108.35590	-421.04578	108.35590
16550.00000	108.61628	-424.37845	108.61628
16600.00000	108.80832	-426.89695	108.80832
16650.00000	108.95385	-429.72625	108.95385
16700.00000	109.17624	-432.00942	109.17624
16750.00000	109.23902	-435.08261	109.23902
16800.00000	109.44557	-438.12261	109.44557
16850.00000	109.70313	-440.75083	109.70313
16900.00000	109.88850	-443.55261	109.88850
16950.00000	110.05296	-446.14554	110.05296
17000.00000	110.08580	-449.02290	110.08580
17050.00000	110.31172	-451.22568	110.31172
17100.00000	110.40923	-453.14204	110.40923
17150.00000	110.73317	-456.61635	110.73317
17200.00000	110.90446	-459.07630	110.90446
17250.00000	111.01406	-462.31301	111.01406
17300.00000	111.26277	-465.13075	111.26277
17350.00000	111.31604	-467.76209	111.31604
17400.00000	111.56799	-470.79540	111.56799
17450.00000	111.66611	-474.12463	111.66611
17500.00000	111.87725	-476.99280	111.87725
17550.00000	112.02621	-480.06049	112.02621
17600.00000	112.25749	-482.78550	112.25749
17650.00000	112.38489	-486.72882	112.38489
17700.00000	112.51150	-490.01451	112.51150
17750.00000	112.76280	-492.63049	112.76280
17800.00000	112.78512	-496.51116	112.78512
17850.00000	112.91720	-499.39877	112.91720
17900.00000	113.00270	-502.88276	113.00270
17950.00000	113.17796	-506.56370	113.17796
18000.00000	113.26868	-510.49073	113.26868
18050.00000	113.48307	-513.42402	113.48307
18100.00000	113.47838	-517.37966	113.47838
18150.00000	113.52717	-520.23940	113.52717
18200.00000	113.53527	-524.35378	113.53527
18250.00000	113.66911	-527.13738	113.66911
18300.00000	113.76779	-530.54305	113.76779
18350.00000	113.79186	-533.90013	113.79186
18400.00000	113.75412	-537.60618	113.75412
18450.00000	113.74798	-542.21451	113.74798
18500.00000	113.79755	-545.47571	113.79755
18550.00000	113.79500	-548.32005	113.79500
18600.00000	113.89129	-552.19012	113.89129
18650.00000	113.75531	-555.18409	113.75531
18700.00000	113.73834	-559.06957	113.73834
18750.00000	113.79622	-562.34102	113.79622
18800.00000	113.89039	-565.09883	113.89039
18850.00000	113.76291	-568.83201	113.76291
18900.00000	113.72340	-572.08108	113.72340
18950.00000	113.71737	-575.97166	113.71737
19000.00000	113.55069	-578.98594	113.55069
19050.00000	113.65511	-582.44943	113.65511
19100.00000	113.55415	-585.63329	113.55415
19150.00000	113.63712	-588.82309	113.63712
19200.00000	113.53386	-591.94610	113.53386
19250.00000	113.46535	-596.44054	113.46535
19300.00000	113.32774	-599.06272	113.32774
19350.00000	113.27315	-602.49153	113.27315
19400.00000	113.14768	-605.59755	113.14768
19450.00000	113.14688	-608.41735	113.14688
19500.00000	112.97166	-612.44829	112.97166
19550.00000	112.89203	-615.53912	112.89203
19600.00000	112.86862	-619.33462	112.86862
19650.00000	112.68585	-621.99210	112.68585
19700.00000	112.46255	-625.32408	112.46255
19750.00000	112.33286	-627.85756	112.33286
19800.00000	112.29220	-631.87644	112.29220
19850.00000	112.17727	-634.55217	112.17727
19900.00000	111.97589	-638.26796	111.97589
19950.00000	111.79568	-641.21986	111.79568
20000.00000	111.64716	-644.25720	111.64716
20050.00000	111.49978	-647.16450	111.49978
20100.00000	111.24277	-650.12152	111.24277
20150.00000	111.13146	-652.12149	111.13146
20200.00000	110.90046	-655.65323	110.90046
20250.00000	110.66900	-658.28982	110.66900
20300.00000	110.39222	-660.99816	110.39222
20350.00000	110.26516	-663.70626	110.26516
20400.00000	109.98274	-665.41141	109.98274
20450.00000	109.66911	-667.91711	109.66911
20500.00000	109.51560	-670.48886	109.51560
20550.00000	109.05785	-671.88024	109.05785
20600.00000	108.91448	-673.59823	108.91448
20650.00000	108.66871	-675.37589	108.66871
20700.00000	108.37500	-676.96755	108.37500
20750.00000	108.20613	-678.27460	108.20613
20800.00000	107.95104	-679.14523	107.95104
20850.00000	107.81350	-680.32271	107.81350
20900.00000	107.55314	-681.22926	107.55314
20950.00000	107.38290	-681.55021	107.38290
21000.00000	107.23769	-682.09982	107.23769
21050.00000	107.28858	-682.26185	107.28858
21100.00000	107.19363	-682.34928	107.19363
21150.00000	107.23615	-683.15605	107.23615
21200.00000	107.29164	-683.30067	107.29164
21250.00000	107.33770	-685.17275	107.33770
21300.00000	107.47213	-685.34746	107.47213
21350.00000	107.52290	-686.18401	107.52290
21400.00000	107.60009	-687.76661	107.60009
21450.00000	107.72012	-689.11536	107.72012
21500.00000	107.86224	-690.94635	107.86224
21550.00000	107.85675	-692.10432	107.85675
21600.00000	108.01729	-694.00321	108.01729
21650.00000	108.06482	-696.01150	108.06482
21700.00000	108.14869	-697.45937	108.14869
21750.00000	108.25137	-699.37232	108.25137
21800.00000	108.32172	-701.32565	108.32172
21850.00000	108.29736	-703.16210	108.29736
21900.00000	108.40098	-705.18035	108.40098
21950.00000	108.45096	-706.99361	108.45096
22000.00000	108.55555	-708.86926	108.55555
22050.00000	108.55059	-710.36405	108.55059
22100.00000	108.56982	-712.58392	108.56982
22150.00000	108.60715	-714.38993	108.60715
22200.00000	108.72745	-716.40111	108.72745
22250.00000	108.69450	-717.72314	108.69450
22300.00000	108.59930	-719.70330	108.59930
22350.00000	108.74003	-721.79008	108.74003
22400.00000	108.80836	-723.84630	108.80836
22450.00000	108.77668	-725.34484	108.77668
22500.00000	108.74229	-726.17470	108.74229
22550.00000	108.76254	-728.11471	108.76254
22600.00000	108.78501	-730.76734	108.78501
22650.00000	108.85674	-732.40037	108.85674
22700.00000	108.87779	-733.56051	108.87779
22750.00000	108.87653	-733.42722	108.87653
22800.00000	108.93031	-737.16321	108.93031
22850.00000	109.08621	-739.42536	109.08621
22900.00000	109.10079	-739.46973	109.10079
22950.00000	109.19428	-741.05793	109.19428
23000.00000	109.19270	-741.94814	109.19270
23050.00000	109.24673	-744.53055	109.24673
23100.00000	109.43281	-745.14623	109.43281
23150.00000	109.40022	-745.90789	109.40022
23200.00000	109.60756	-748.79939	109.60756
23250.00000	109.52936	-751.36971	109.52936
23300.00000	109.90864	-752.98081	109.90864
23350.00000	109.73603	-754.86383	109.73603
23400.00000	109.87093	-756.30737	109.87093
23450.00000	110.06569	-758.55109	110.06569
23500.00000	110.05037	-759.60483	110.05037
23550.00000	110.15561	-760.21316	110.15561
23600.00000	110.20566	-763.63454	110.20566
23650.00000	110.37136	-765.13519	110.37136
23700.00000	110.63345	-769.23817	110.63345
23750.00000	110.69617	-770.30120	110.69617
23800.00000	110.53616	-770.95821	110.53616
23850.00000	110.80878	-772.65383	110.80878
23900.00000	111.26116	-775.23920	111.26116
23950.00000	111.07651	-778.50004	111.07651
24000.00000	111.03004	-781.60351	111.03004
24050.00000	111.31126	-782.04876	111.31126
24100.00000	111.68004	-786.19543	111.68004
24150.00000	111.73513	-788.63908	111.73513
24200.00000	111.85090	-792.66266	111.85090
24250.00000	111.58734	-793.29768	111.58734
24300.00000	112.02927	-796.90823	112.02927
24350.00000	112.02627	-799.71878	112.02627
24400.00000	111.98534	-803.61806	111.98534
24450.00000	111.84266	-805.77926	111.84266
24500.00000	112.32553	-807.91243	112.32553
24550.00000	112.24205	-453.52868	112.24205
24600.00000	112.75341	-95.41695	112.75341
24650.00000	112.44579	259.80944	112.44579
24700.00000	112.35728	618.85572	112.35728
24750.00000	112.46014	973.03603	112.46014
24800.00000	112.41872	1329.84039	112.41872
24850.00000	112.08385	1688.06574	112.08385
24900.00000	112.14679	2045.68065	112.14679
24950.00000	112.29015	2400.17074	112.29015
25000.00000	112.21338	2391.83760	112.21338
25050.00000	112.22548	2391.67479	112.22548
25100.00000	111.69137	2387.47594	111.69137
25150.00000	111.97887	2385.85211	111.97887
25200.00000	111.63630	2381.11849	111.63630
25250.00000	111.67655	2379.39345	111.67655
25300.00000	111.57201	2376.86975	111.57201
25350.00000	111.38444	2369.45639	111.38444
25400.00000	111.30135	2365.91631	111.30135
25450.00000	111.15417	2363.40443	111.15417
25500.00000	110.87083	2360.94611	110.87083
25550.00000	110.71460	2356.26681	110.71460
25600.00000	110.69360	2353.48912	110.69360
25650.00000	110.40700	2351.29151	110.40700
25700.00000	110.24969	2347.73588	110.24969
25750.00000	109.95580	2344.29138	109.95580
25800.00000	109.71300	2340.61900	109.71300
25850.00000	109.60556	2337.62833	109.60556
25900.00000	109.35867	2333.45688	109.35867
25950.00000	109.02017	2334.31117	109.02017
26000.00000	108.88259	2329.07407	108.88259
26050.00000	108.72898	2326.22014	108.72898
26100.00000	108.47477	2323.19617	108.47477
26150.00000	108.28129	2320.61433	108.28129
26200.00000	108.21552	2317.49279	108.21552
26250.00000	107.85824	2314.48333	107.85824
26300.00000	107.81020	2311.23963	107.81020
26350.00000	107.23885	2309.90307	107.23885
26400.00000	107.06009	2307.07277	107.06009
26450.00000	107.14902	2303.00699	107.14902
26500.00000	106.77300	2300.59538	106.77300
26550.00000	106.49719	2295.05434	106.49719
26600.00000	106.19161	2292.77095	106.19161
26650.00000	106.04687	2292.88494	106.04687
26700.00000	105.85683	2289.44615	105.85683
26750.00000	105.42104	2287.01485	105.42104
26800.00000	105.15845	2281.55152	105.15845
26850.00000	105.14101	2281.16307	105.14101
26900.00000	104.86507	2279.86920	104.86507
26950.00000	104.75541	2276.01064	104.75541
27000.00000	104.13776	2275.04889	104.13776
27050.00000	104.17344	2272.34381	104.17344
27100.00000	103.67369	2272.01318	103.67369
27150.00000	103.47058	2267.82621	103.47058
27200.00000	103.38043	2267.21922	103.38043
27250.00000	102.68135	2266.57519	102.68135
27300.00000	102.36952	2264.47151	102.36952
27350.00000	102.43758	2264.58368	102.43758
27400.00000	101.91971	2262.72983	101.91971
27450.00000	101.72054	2261.66423	101.72054
27500.00000	101.63844	2260.68300	101.63844
27550.00000	101.53216	2258.96328	101.53216
27600.00000	101.68795	2257.49250	101.68795
27650.00000	101.10650	2259.02306	101.10650
27700.00000	101.19470	2253.92552	101.19470
27750.00000	101.10613	2253.32346	101.10613
27800.00000	101.15943	2250.66605	101.15943
27850.00000	101.34674	2253.96678	101.34674
27900.00000	100.98395	2253.39980	100.98395
27950.00000	100.38495	2250.93365	100.38495
28000.00000	100.61164	2250.95277	100.61164
28050.00000	101.32122	2248.84594	101.32122
28100.00000	100.67576	2248.30780	100.67576
28150.00000	100.84142	2247.52078	100.84142
28200.00000	101.19150	2242.78256	101.19150
28250.00000	100.84793	2240.83871	100.84793
28300.00000	100.74727	2241.73514	100.74727
28350.00000	101.01575	2241.00302	101.01575
28400.00000	101.02172	2241.46550	101.02172
28450.00000	101.64583	2237.91156	101.64583
28500.00000	101.24743	2236.74327	101.24743
28550.00000	101.36058	2238.31341	101.36058
28600.00000	101.37852	2235.69386	101.37852
28650.00000	101.81379	2231.08623	101.81379
28700.00000	101.80155	2231.41645	101.80155
28750.00000	102.45830	2230.51562	102.45830
28800.00000	102.23891	2228.11932	102.23891
28850.00000	101.72540	2223.31636	101.72540
28900.00000	102.06170	2222.30073	102.06170
28950.00000	101.94876	2221.91067	101.94876
29000.00000	102.38285	2219.44289	102.38285
29050.00000	102.09843	2219.39547	102.09843
29100.00000	102.16239	2217.58715	102.16239
29150.00000	102.10232	2216.23810	102.10232
29200.00000	102.06765	2212.10974	102.06765
29250.00000	102.41533	2211.06084	102.41533
29300.00000	102.14481	2208.42240	102.14481
29350.00000	102.54189	2205.92711	102.54189
29400.00000	102.29167	2205.64137	102.29167
29450.00000	102.33957	2202.90617	102.33957
29500.00000	102.72530	2202.44441	102.72530
29550.00000	102.36196	2197.73642	102.36196
29600.00000	102.32846	2197.97502	102.32846
29650.00000	102.30902	2194.81661	102.30902
29700.00000	102.16012	2195.87226	102.16012
29750.00000	102.21387	2194.94395	102.21387
29800.00000	101.90603	2192.15565	101.90603
29850.00000	101.99803	2190.41533	101.99803
29900.00000	102.27556	2190.49485	102.27556
29950.00000	101.47591	2190.33589	101.47591
30000.00000	101.92892	2190.78110	101.92892
30050.00000	101.89764	2188.39408	101.89764
30100.00000	101.55744	2189.24224	101.55744
30150.00000	101.71036	2186.12498	101.71036
30200.00000	101.71049	2185.48517	101.71049
30250.00000	101.48938	2185.91587	101.48938
30300.00000	101.17241	2186.38968	101.17241
30350.00000	101.33814	2188.31652	101.33814
30400.00000	101.33314	2186.55753	101.33314
30450.00000	100.95707	2187.25633	100.95707
30500.00000	101.07263	2186.96722	101.07263
30550.00000	101.06419	2188.79468	101.06419
30600.00000	101.06662	2189.80593	101.06662
30650.00000	101.17759	2190.65094	101.17759
30700.00000	101.27870	2190.73820	101.27870
30750.00000	101.19701	2192.79296	101.19701
30800.00000	101.39194	2193.97440	101.39194
30850.00000	101.60988	2195.74678	101.60988
30900.00000	101.66627	2197.88777	101.66627
30950.00000	102.10140	2197.74264	102.10140
31000.00000	102.42915	2198.13252	102.42915
31050.00000	102.79896	2199.45482	102.79896
31100.00000	103.35369	2200.56785	103.35369
31150.00000	103.43024	2200.21144	103.43024
31200.00000	104.23351	2199.91089	104.23351
31250.00000	104.54990	2199.46701	104.54990
31300.00000	104.99060	2198.51760	104.99060
31350.00000	105.51179	2197.62176	105.51179
31400.00000	105.80283	2195.24483	105.80283
31450.00000	106.30392	2193.77342	106.30392
31500.00000	106.60302	2190.78276	106.60302
31550.00000	107.03504	2188.94973	107.03504
31600.00000	107.47306	2185.26660	107.47306
31650.00000	107.76218	2182.57706	107.76218
31700.00000	108.01828	2179.95945	108.01828
31750.00000	108.35536	2178.07159	108.35536
31800.00000	108.52070	2173.93655	108.52070
31850.00000	108.81453	2170.48884	108.81453
31900.00000	108.75750	2167.25470	108.75750
31950.00000	109.01507	2163.69577	109.01507
32000.00000	109.19513	2160.29906	109.19513
32050.00000	109.34927	2157.05617	109.34927
32100.00000	109.33066	2153.19775	109.33066
32150.00000	109.33593	2150.68729	109.33593
32200.00000	109.47182	2146.14960	109.47182
32250.00000	109.39301	2142.42028	109.39301
32300.00000	109.44868	2139.31783	109.44868
32350.00000	109.32813	2136.26792	109.32813
32400.00000	109.44592	2133.53230	109.44592
32450.00000	109.31263	2129.42550	109.31263
32500.00000	109.31096	2127.23043	109.31096
32550.00000	109.30181	2123.12082	109.30181
32600.00000	109.18240	2120.18789	109.18240
32650.00000	109.13157	2117.10560	109.13157
32700.00000	108.93821	2113.94330	108.93821
32750.00000	108.87804	2110.17500	108.87804
32800.00000	108.89170	2108.28392	108.89170
32850.00000	108.84201	2105.48245	108.84201
32900.00000	108.62481	2101.67737	108.62481
32950.00000	108.38554	2098.39488	108.38554
33000.00000	108.34853	2097.84588	108.34853
33050.00000	108.22164	2093.55528	108.22164
33100.00000	108.12846	2091.60060	108.12846
33150.00000	108.08536	2090.09371	108.08536
33200.00000	108.16393	2089.01699	108.16393
33250.00000	107.93009	2086.48046	107.93009
33300.00000	107.90516	2083.36759	107.90516
33350.00000	107.90933	2081.39854	107.90933
33400.00000	107.84388	2079.94615	107.84388
33450.00000	107.96796	2076.71010	107.96796
33500.00000	108.01048	2076.80275	108.01048
33550.00000	107.73909	2072.65874	107.73909
33600.00000	108.14841	2071.62658	108.14841
33650.00000	108.16753	2067.86965	108.16753
33700.00000	108.19558	2066.19898	108.19558
33750.00000	108.15055	2063.96150	108.15055
33800.00000	108.33044	2060.77933	108.33044
33850.00000	108.13755	2058.62513	108.13755
33900.00000	108.46000	2055.65229	108.46000
33950.00000	108.56850	2053.64562	108.56850
34000.00000	108.70601	2049.50651	108.70601
34050.00000	108.67386	2046.93622	108.67386
34100.00000	108.68985	2045.55560	108.68985
34150.00000	108.76233	2040.67241	108.76233
34200.00000	108.91839	2040.03258	108.91839
34250.00000	108.86960	2035.36094	108.86960
34300.00000	108.93150	2032.62799	108.93150
34350.00000	109.11222	2030.14126	109.11222
34400.00000	108.77536	2028.66587	108.77536
34450.00000	109.12885	2023.09091	109.12885
34500.00000	109.18837	2020.81380	109.18837
34550.00000	109.08656	2017.53416	109.08656
34600.00000	108.77685	2013.95243	108.77685
34650.00000	109.01378	2013.70137	109.01378
34700.00000	108.64428	2012.36809	108.64428
34750.00000	108.81842	2006.28363	108.81842
34800.00000	109.06118	2007.06500	109.06118
34850.00000	109.11398	2005.73197	109.11398
34900.00000	109.31036	2001.29656	109.31036
34950.00000	109.08624	2000.27827	109.08624
35000.00000	109.25633	1997.83331	109.25633
35050.00000	109.34514	1996.32529	109.34514
35100.00000	109.51320	1992.65246	109.51320
35150.00000	109.35663	1992.17430	109.35663
35200.00000	109.50560	1988.38403	109.50560
35250.00000	109.61204	1986.62718	109.61204
35300.00000	109.82761	1983.89964	109.82761
35350.00000	110.05882	1981.95095	110.05882
35400.00000	110.05130	1979.22723	110.05130
35450.00000	110.13125	1977.83505	110.13125
35500.00000	109.94126	1975.41137	109.94126
35550.00000	110.45536	1974.24266	110.45536
35600.00000	110.47844	1971.22524	110.47844
35650.00000	110.66433	1969.11813	110.66433
35700.00000	110.74182	1966.92225	110.74182
35750.00000	110.73537	1965.20539	110.73537
35800.00000	111.04537	1964.69099	111.04537
35850.00000	111.26159	1961.18741	111.26159
35900.00000	111.43574	1958.43462	111.43574
35950.00000	111.71379	1956.15355	111.71379
36000.00000	111.75444	1954.20263	111.75444
36050.00000	112.07597	1951.48748	112.07597
36100.00000	112.28756	1948.72930	112.28756
36150.00000	112.19308	1946.20553	112.19308
36200.00000	112.41045	1944.22841	112.41045
36250.00000	112.52411	1941.12365	112.52411
36300.00000	112.57414	1939.18475	112.57414
36350.00000	112.79100	1936.68665	112.79100
36400.00000	112.96112	1934.19560	112.96112
36450.00000	112.76573	1930.89268	112.76573
36500.00000	113.13891	1929.68969	113.13891
36550.00000	113.03441	1926.10004	113.03441
36600.00000	113.19348	1924.43275	113.19348
36650.00000	113.29854	1922.31587	113.29854
36700.00000	113.31373	1919.02921	113.31373
36750.00000	113.43354	1916.63931	113.43354
36800.00000	113.32869	1915.39335	113.32869
36850.00000	113.28282	1913.12681	113.28282
36900.00000	113.50184	1910.84146	113.50184
36950.00000	113.29368	1908.95867	113.29368
37000.00000	113.09609	1906.83758	113.09609
37050.00000	113.12131	1906.62417	113.12131
37100.00000	113.24120	1903.55860	113.24120
37150.00000	113.28404	1901.58288	113.28404
37200.00000	113.65086	1901.28786	113.65086
37250.00000	113.04699	1898.49053	113.04699
37300.00000	113.16794	1896.93038	113.16794
37350.00000	113.46823	1896.21603	113.46823
37400.00000	113.15721	1895.62382	113.15721
37450.00000	113.22960	1894.61872	113.22960
37500.00000	113.61106	1892.88545	113.61106
37550.00000	113.32823	1892.38846	113.32823
37600.00000	113.51518	1890.94074	113.51518
37650.00000	113.37133	1889.44410	113.37133
37700.00000	113.71277	1887.84264	113.71277
37750.00000	113.76779	1887.15850	113.76779
37800.00000	113.71224	1884.66768	113.71224
37850.00000	113.86056	1882.46304	113.86056
37900.00000	113.79917	1882.03622	113.79917
37950.00000	113.96911	1881.68205	113.96911
38000.00000	114.08400	1879.76299	114.08400
38050.00000	114.25428	1877.70645	114.25428
38100.00000	114.41770	1876.04946	114.41770
38150.00000	114.45232	1873.53495	114.45232
38200.00000	114.67962	1871.28631	114.67962
38250.00000	114.85029	1869.14058	114.85029
38300.00000	115.04245	1866.10280	115.04245
38350.00000	115.11268	1864.17882	115.11268
38400.00000	115.31278	1861.39182	115.31278
38450.00000	115.43922	1858.16936	115.43922
38500.00000	115.59868	1854.61586	115.59868
38550.00000	115.75364	1852.00359	115.75364
38600.00000	115.87810	1848.79797	115.87810
38650.00000	116.06507	1844.71787	116.06507
38700.00000	116.07640	1840.94416	116.07640
38750.00000	116.15913	1837.19129	116.15913
38800.00000	116.29640	1833.83222	116.29640
38850.00000	116.24342	1829.26278	116.24342
38900.00000	116.33589	1825.30405	116.33589
38950.00000	116.21836	1821.41048	116.21836
39000.00000	116.17020	1817.06136	116.17020
39050.00000	116.25644	1813.22551	116.25644
39100.00000	116.03788	1809.38355	116.03788
39150.00000	115.91185	1805.27316	115.91185
39200.00000	115.83699	1801.88818	115.83699
39250.00000	115.74436	1797.85201	115.74436
39300.00000	115.71060	1794.32532	115.71060
39350.00000	115.54909	1791.55009	115.54909
39400.00000	115.49790	1787.49852	115.49790
39450.00000	115.37521	1784.39770	115.37521
39500.00000	115.27495	1780.85367	115.27495
39550.00000	115.15442	1777.05829	115.15442
39600.00000	115.03456	1773.69793	115.03456
39650.00000	115.05687	1770.64773	115.05687
39700.00000	114.93269	1767.16853	114.93269
39750.00000	114.84217	1763.29545	114.84217
39800.00000	114.77512	1760.05849	114.77512
39850.00000	114.65444	1756.97987	114.65444
39900.00000	114.56883	1753.77311	114.56883
39950.00000	114.48370	1750.48757	114.48370
40000.00000	114.20714	1748.23708	114.20714
40050.00000	114.24645	1743.61963	114.24645
40100.00000	114.13336	1740.33283	114.13336
40150.00000	114.02975	1736.99895	114.02975
40200.00000	113.97303	1733.83258	113.97303
40250.00000	113.77674	1730.96677	113.77674
40300.00000	113.83746	1728.09308	113.83746
40350.00000	113.48601	1725.16434	113.48601
40400.00000	113.36916	1722.10245	113.36916
40450.00000	113.25903	1719.44262	113.25903
40500.00000	113.22795	1716.54995	113.22795
40550.00000	113.08443	1713.59661	113.08443
40600.00000	112.90783	1711.17347	112.90783
40650.00000	112.78718	1708.76906	112.78718
40700.00000	112.52469	1707.26848	112.52469
40750.00000	112.53637	1704.56275	112.53637
40800.00000	112.45753	1702.14861	112.45753
40850.00000	112.28249	1701.06693	112.28249
40900.00000	112.00456	1698.36307	112.00456
40950.00000	111.82093	1697.52204	111.82093
41000.00000	111.62945	1696.53009	111.62945
41050.00000	111.76656	1695.17339	111.76656
41100.00000	111.71782	1693.52869	111.71782
41150.00000	111.78433	1694.15500	111.78433
41200.00000	111.78727	1692.55898	111.78727
41250.00000	111.71257	1689.61084	111.71257
41300.00000	111.49973	1690.35965	111.49973
41350.00000	111.61564	1691.15508	111.61564
41400.00000	111.70660	1685.73760	111.70660
41450.00000	111.80148	1687.86710	111.80148
41500.00000	111.78788	1686.71430	111.78788
41550.00000	111.75585	1690.67372	111.75585
41600.00000	111.52044	1687.57667	111.52044
41650.00000	112.13195	1685.77149	112.13195
41700.00000	112.32851	1685.87376	112.32851
41750.00000	112.12926	1690.04182	112.12926
41800.00000	111.40425	1684.23241	111.40425
41850.00000	111.62812	1685.73465	111.62812
41900.00000	111.64812	1685.70066	111.64812
41950.00000	112.95144	1690.54397	112.95144
42000.00000	112.05928	1684.39710	112.05928
42050.00000	111.31781	1684.02100	111.31781
42100.00000	112.03721	1683.45433	112.03721
42150.00000	111.60492	1679.16573	111.60492
42200.00000	111.56312	1685.54911	111.56312
42250.00000	111.68263	1685.43820	111.68263
42300.00000	110.69397	1682.07711	110.69397
42350.00000	111.51404	1683.67939	111.51404
42400.00000	111.38220	1684.51838	111.38220
42450.00000	111.87056	1680.10478	111.87056
42500.00000	111.35559	1680.70451	111.35559
42550.00000	111.50443	1691.46847	111.50443
42600.00000	111.22350	1683.22022	111.22350
42650.00000	110.90597	1685.22478	110.90597
42700.00000	110.75531	1683.30053	110.75531
42750.00000	111.55679	1681.10360	111.55679
42800.00000	111.11381	1676.26954	111.11381
42850.00000	110.68409	1675.41762	110.68409
42900.00000	111.87478	1681.36066	111.87478
42950.00000	111.03961	1677.31489	111.03961
43000.00000	111.67994	1669.03011	111.67994
43050.00000	111.09529	1667.23062	111.09529
43100.00000	111.45248	1671.45416	111.45248
43150.00000	110.26879	1664.10956	110.26879
43200.00000	110.98093	1663.14409	110.98093
43250.00000	111.00390	1661.03041	111.00390
43300.00000	110.81425	1659.52401	110.81425
43350.00000	111.49382	1656.12432	111.49382
43400.00000	110.79066	1654.52552	110.79066
43450.00000	111.73710	1652.97349	111.73710
43500.00000	110.48139	1646.05625	110.48139
43550.00000	111.10052	1642.94286	111.10052
43600.00000	110.62001	1638.98678	110.62001
43650.00000	110.94284	1629.94376	110.94284
43700.00000	110.65350	1629.79504	110.65350
43750.00000	110.09171	1627.19344	110.09171
43800.00000	110.39754	1619.54402	110.39754
43850.00000	110.69046	1613.16249	110.69046
43900.00000	110.62461	1611.61212	110.62461
43950.00000	110.24230	1604.54755	110.24230
44000.00000	109.40502	1599.66463	109.40502
44050.00000	109.77026	1594.91626	109.77026
44100.00000	109.62685	1583.76176	109.62685
44150.00000	109.20959	1584.72933	109.20959
44200.00000	108.58709	1584.07632	108.58709
44250.00000	108.73398	1577.78703	108.73398
44300.00000	108.77414	1572.04823	108.77414
44350.00000	107.52154	1566.06106	107.52154
44400.00000	108.00881	1564.08365	108.00881
44450.00000	108.01967	1560.48331	108.01967
44500.00000	107.37105	1557.45237	107.37105
44550.00000	108.40608	1546.89849	108.40608
44600.00000	106.90246	1550.47637	106.90246
44650.00000	106.48692	1539.35777	106.48692
44700.00000	106.37861	1537.75435	106.37861
44750.00000	105.97617	1537.00024	105.97617
44800.00000	106.43483	1529.75923	106.43483
44850.00000	105.99357	1522.86170	105.99357
44900.00000	105.63430	1521.08699	105.63430
44950.00000	105.90623	1516.23436	105.90623
45000.00000	105.81441	1508.75230	105.81441
45050.00000	104.15323	1513.70393	104.15323
45100.00000	104.33427	1503.77544	104.33427
45150.00000	104.18997	1492.42046	104.18997
45200.00000	104.19944	1497.01185	104.19944
45250.00000	103.61452	1493.05755	103.61452
45300.00000	103.77415	1486.07815	103.77415
45350.00000	103.24323	1479.49425	103.24323
45400.00000	103.16783	1475.62444	103.16783
45450.00000	103.42792	1470.90844	103.42792
45500.00000	101.05624	1462.51789	101.05624
45550.00000	101.56639	1464.84262	101.56639
45600.00000	102.12376	1458.06924	102.12376
45650.00000	100.82874	1449.78047	100.82874
45700.00000	100.93297	1445.67802	100.93297
45750.00000	101.23300	1448.23764	101.23300
45800.00000	100.11281	1435.69364	100.11281
45850.00000	99.99428	1436.21961	99.99428
45900.00000	98.73079	1433.23328	98.73079
45950.00000	99.23987	1431.18372	99.23987
46000.00000	97.81910	1416.54768	97.81910
46050.00000	97.95450	1413.75147	97.95450
46100.00000	96.77834	1414.02152	96.77834
46150.00000	96.77057	1411.80089	96.77057
46200.00000	94.74387	1398.29549	94.74387
46250.00000	95.73770	1397.87871	95.73770
46300.00000	94.00108	1403.91088	94.00108
46350.00000	95.81927	1392.05657	95.81927
46400.00000	94.32943	1384.17976	94.32943
46450.00000	91.34930	1384.22310	91.34930
46500.00000	92.56531	1386.60933	92.56531
46550.00000	91.50379	1386.78997	91.50379
46600.00000	91.59263	1381.07180	91.59263
46650.00000	89.31012	1385.87226	89.31012
46700.00000	89.32796	1392.09275	89.32796
46750.00000	89.54877	1401.83428	89.54877
46800.00000	88.16116	1396.80271	88.16116
46850.00000	89.72978	1036.51175	89.72978
46900.00000	89.56108	1024.30731	89.56108
46950.00000	90.08336	1027.12543	90.08336
47000.00000	89.18617	1026.15847	89.18617
47050.00000	90.72358	1021.59938	90.72358
47100.00000	88.98296	1017.08415	88.98296
47150.00000	89.91987	1019.28529	89.91987
47200.00000	87.64683	1015.55492	87.64683
47250.00000	90.22445	1008.34270	90.22445
47300.00000	89.43749	1005.63570	89.43749
47350.00000	88.87301	651.90482	88.87301
47400.00000	87.21782	649.68859	87.21782
47450.00000	88.26728	651.29053	88.26728
47500.00000	85.16106	641.03300	85.16106
47550.00000	85.04378	291.24865	85.04378
47600.00000	86.20934	289.02398	86.20934
47650.00000	89.74780	287.13083	89.74780
47700.00000	86.41081	278.52295	86.41081
47750.00000	86.03325	286.05132	86.03325
47800.00000	87.66686	270.20559	87.66686
47850.00000	87.62374	-73.65020	87.62374
47900.00000	88.69253	-435.35120	88.69253
47950.00000	87.42009	-434.55548	87.42009
48000.00000	88.90848	-426.49434	88.90848
48050.00000	89.05057	-442.17650	89.05057
48100.00000	87.81104	-447.45367	87.81104
48150.00000	89.30907	-806.38254	89.30907
48200.00000	89.51194	-798.33032	89.51194
48250.00000	89.89086	-820.43160	89.89086
48300.00000	89.34102	-821.48818	89.34102
48350.00000	89.10765	-827.46161	89.10765
48400.00000	90.00426	-1174.24535	90.00426
48450.00000	91.48115	-1187.92397	91.48115
48500.00000	89.22694	-1194.28308	89.22694
48550.00000	87.82377	-1199.14519	87.82377
48600.00000	90.68571	-1558.11475	90.68571
48650.00000	90.53748	-1556.30657	90.53748
48700.00000	90.58274	-1567.36867	90.58274
48750.00000	89.31678	-1919.60016	89.31678
48800.00000	89.46462	-1923.11580	89.46462
48850.00000	90.11389	-1928.50531	90.11389
48900.00000	88.33939	-2289.84842	88.33939
48950.00000	90.37480	-2312.38223	90.37480
49000.00000	91.42415	-2308.17029	91.42415
49050.00000	90.63939	-2312.73566	90.63939
49100.00000	90.83451	-2679.87897	90.83451
49150.00000	90.98039	-3037.79720	90.98039
49200.00000	90.22597	-3039.20401	90.22597
49250.00000	90.77034	-3400.88705	90.77034
49300.00000	92.41495	-3053.52213	92.41495
49350.00000	89.72857	-3044.77570	89.72857
49400.00000	89.99518	-2712.39611	89.99518
49450.00000	89.59437	-2353.00790	89.59437
49500.00000	90.50450	-2013.17012	90.50450
49550.00000	91.43172	-1661.75364	91.43172
49600.00000	90.22517	-1661.24229	90.22517
49650.00000	91.75097	-1654.77835	91.75097
49700.00000	92.09800	-1319.98964	92.09800
49750.00000	91.06886	-1328.23670	91.06886
49800.00000	90.80588	-1334.36285	90.80588
49850.00000	91.42837	-1333.78061	91.42837
49900.00000	90.20084	-980.52344	90.20084
49950.00000	92.04885	-653.38225	92.04885
