---ACOUSTIC CALIBRATION---
Filename: C:\Data\AZH DATA\AZH51\RightPrimary.calib
Date: 8/27/2019 6:15:21 PM
Format: 4
Probe Tube Correction File: C:\Data\Probe Tube Calibrations\50_ProbeTube.calib
Experiment VIs: 850
EPL_CFTS.exe V12.0.1 (2012)
DAQmx V9.6

Attenuation (dB): 40.000000
Min Freq (Hz): 50.000000
Max Freq (Hz): 49950.000000
Freq Step (Hz): 50.000000
Sample Rate (Hz): 100000.000000
[Smoothing]
Method=None
MA.Iterations=0
MA.Length=0
Loess.Length=0
Loess.Type=Linear
Loess.Robust=FALSE


Freq(Hz)	Mag(dB)	Phase(deg)	Unsmoothed(dB)

50.00000	103.60858	639.60441	103.60858
100.00000	83.29604	559.78412	83.29604
150.00000	73.81459	542.56239	73.81459
200.00000	81.59459	413.88193	81.59459
250.00000	87.37482	447.78574	87.37482
300.00000	89.06114	352.57905	89.06114
350.00000	77.88786	362.80762	77.88786
400.00000	84.32177	366.57178	84.32177
450.00000	85.13847	375.33600	85.13847
500.00000	93.07699	387.56445	93.07699
550.00000	94.16944	371.14378	94.16944
600.00000	95.42824	369.90301	95.42824
650.00000	97.53063	348.77681	97.53063
700.00000	99.88173	335.97682	99.88173
750.00000	101.48593	316.70179	101.48593
800.00000	102.74796	297.00921	102.74796
850.00000	101.65605	276.50816	101.65605
900.00000	99.69284	261.39989	99.69284
950.00000	97.99827	257.22096	97.99827
1000.00000	96.42683	257.81872	96.42683
1050.00000	94.38504	273.70750	94.38504
1100.00000	96.29506	298.13627	96.29506
1150.00000	99.46230	301.75657	99.46230
1200.00000	101.86696	296.83316	101.86696
1250.00000	103.55552	290.41155	103.55552
1300.00000	105.36569	283.58577	105.36569
1350.00000	106.59048	274.29144	106.59048
1400.00000	107.27469	267.57034	107.27469
1450.00000	108.31056	260.68421	108.31056
1500.00000	109.36985	252.73412	109.36985
1550.00000	110.20684	245.17623	110.20684
1600.00000	111.74771	236.07353	111.74771
1650.00000	112.64488	218.53525	112.64488
1700.00000	111.34032	208.60612	111.34032
1750.00000	111.10069	202.82782	111.10069
1800.00000	110.92093	198.67430	110.92093
1850.00000	110.94624	197.50022	110.94624
1900.00000	112.18624	194.07960	112.18624
1950.00000	112.86164	180.01065	112.86164
2000.00000	111.85146	168.40785	111.85146
2050.00000	110.63192	173.44246	110.63192
2100.00000	112.51344	172.24954	112.51344
2150.00000	113.07629	160.39405	113.07629
2200.00000	112.91000	150.41791	112.91000
2250.00000	112.31812	143.83182	112.31812
2300.00000	112.46734	138.01372	112.46734
2350.00000	112.14740	131.86447	112.14740
2400.00000	111.87415	126.17922	111.87415
2450.00000	111.63495	119.94783	111.63495
2500.00000	111.22332	114.41929	111.22332
2550.00000	110.74723	109.48439	110.74723
2600.00000	110.23276	105.46862	110.23276
2650.00000	109.79201	101.11922	109.79201
2700.00000	109.22641	97.48443	109.22641
2750.00000	108.69021	94.61533	108.69021
2800.00000	108.04368	91.84918	108.04368
2850.00000	107.51450	89.53723	107.51450
2900.00000	106.90216	87.48538	106.90216
2950.00000	106.28912	86.43681	106.28912
3000.00000	105.61934	85.15243	105.61934
3050.00000	104.84946	84.45647	104.84946
3100.00000	104.09526	84.88983	104.09526
3150.00000	103.02477	85.34152	103.02477
3200.00000	101.71874	90.76741	101.71874
3250.00000	100.87529	99.31039	100.87529
3300.00000	100.10369	110.91549	100.10369
3350.00000	100.25566	127.85337	100.25566
3400.00000	101.86250	145.06777	101.86250
3450.00000	104.48804	153.92749	104.48804
3500.00000	107.02946	155.67433	107.02946
3550.00000	109.12484	152.51593	109.12484
3600.00000	110.90928	149.08910	110.90928
3650.00000	112.36455	144.01571	112.36455
3700.00000	113.68746	139.20659	113.68746
3750.00000	115.00347	133.87390	115.00347
3800.00000	116.22923	127.59708	116.22923
3850.00000	117.26404	120.70335	117.26404
3900.00000	118.22805	114.01271	118.22805
3950.00000	119.15563	106.82645	119.15563
4000.00000	119.99893	99.30491	119.99893
4050.00000	120.77793	92.07641	120.77793
4100.00000	121.60156	84.57388	121.60156
4150.00000	122.59452	76.29927	122.59452
4200.00000	123.32435	66.44129	123.32435
4250.00000	124.03055	55.52206	124.03055
4300.00000	124.49508	43.47707	124.49508
4350.00000	124.63763	30.93327	124.63763
4400.00000	124.51927	19.13487	124.51927
4450.00000	124.20463	 8.29793	124.20463
4500.00000	123.79564	-1.52219	123.79564
4550.00000	123.35681	-10.66475	123.35681
4600.00000	122.85391	-19.11655	122.85391
4650.00000	122.39225	-27.14372	122.39225
4700.00000	121.87750	-35.56670	121.87750
4750.00000	121.23920	-44.12913	121.23920
4800.00000	120.40100	-52.78760	120.40100
4850.00000	119.28912	-60.47082	119.28912
4900.00000	117.95529	-66.23661	117.95529
4950.00000	116.55906	-69.49846	116.55906
5000.00000	115.29258	-70.45982	115.29258
5050.00000	114.15536	-69.91162	114.15536
5100.00000	112.92274	-65.93408	112.92274
5150.00000	112.85008	-60.82913	112.85008
5200.00000	111.99782	-55.96383	111.99782
5250.00000	113.35270	-42.19331	113.35270
5300.00000	115.85871	-49.66522	115.85871
5350.00000	116.14599	-63.01109	116.14599
5400.00000	115.62380	-70.97695	115.62380
5450.00000	115.08332	-75.63924	115.08332
5500.00000	114.65173	-78.95631	114.65173
5550.00000	114.30365	-81.62246	114.30365
5600.00000	114.02045	-84.11487	114.02045
5650.00000	113.80560	-86.35952	113.80560
5700.00000	113.58175	-88.81476	113.58175
5750.00000	113.42358	-91.00094	113.42358
5800.00000	113.24839	-93.36794	113.24839
5850.00000	113.10105	-95.72119	113.10105
5900.00000	112.96498	-98.09557	112.96498
5950.00000	112.84175	-100.35538	112.84175
6000.00000	112.71513	-102.40799	112.71513
6050.00000	112.61081	-104.57090	112.61081
6100.00000	112.54979	-106.78915	112.54979
6150.00000	112.48713	-109.10156	112.48713
6200.00000	112.41641	-111.35155	112.41641
6250.00000	112.37002	-113.81855	112.37002
6300.00000	112.32955	-116.41293	112.32955
6350.00000	112.27280	-119.20222	112.27280
6400.00000	112.18407	-121.81860	112.18407
6450.00000	112.13190	-124.50396	112.13190
6500.00000	112.03817	-127.10051	112.03817
6550.00000	111.94805	-129.73087	111.94805
6600.00000	111.86532	-132.25639	111.86532
6650.00000	111.80430	-134.69468	111.80430
6700.00000	111.73362	-137.35817	111.73362
6750.00000	111.67014	-139.85493	111.67014
6800.00000	111.62785	-142.32885	111.62785
6850.00000	111.57564	-144.89559	111.57564
6900.00000	111.52226	-147.42922	111.52226
6950.00000	111.46993	-149.80180	111.46993
7000.00000	111.44895	-152.48517	111.44895
7050.00000	111.40349	-155.08196	111.40349
7100.00000	111.37545	-157.85557	111.37545
7150.00000	111.35161	-160.57463	111.35161
7200.00000	111.31628	-163.36554	111.31628
7250.00000	111.26427	-166.22769	111.26427
7300.00000	111.24283	-169.15384	111.24283
7350.00000	111.19474	-171.98748	111.19474
7400.00000	111.15726	-175.09309	111.15726
7450.00000	111.09737	-178.15874	111.09737
7500.00000	111.03270	-181.24545	111.03270
7550.00000	110.99679	-184.25095	110.99679
7600.00000	110.92457	-187.26848	110.92457
7650.00000	110.85110	-190.35643	110.85110
7700.00000	110.78973	-193.50478	110.78973
7750.00000	110.68999	-196.57494	110.68999
7800.00000	110.59465	-199.68928	110.59465
7850.00000	110.50519	-202.69642	110.50519
7900.00000	110.41610	-205.60225	110.41610
7950.00000	110.33085	-208.70561	110.33085
8000.00000	110.25663	-211.84994	110.25663
8050.00000	110.16719	-215.26335	110.16719
8100.00000	110.09308	-218.04575	110.09308
8150.00000	109.96013	-221.11323	109.96013
8200.00000	109.87363	-224.08567	109.87363
8250.00000	109.74609	-227.52834	109.74609
8300.00000	109.64213	-230.78319	109.64213
8350.00000	109.49938	-233.95969	109.49938
8400.00000	109.33869	-237.73156	109.33869
8450.00000	109.10492	-241.28083	109.10492
8500.00000	108.89599	-244.96761	108.89599
8550.00000	108.70107	-248.42257	108.70107
8600.00000	108.45895	-252.31658	108.45895
8650.00000	108.17901	-255.83436	108.17901
8700.00000	107.93895	-259.82354	107.93895
8750.00000	107.60861	-262.21796	107.60861
8800.00000	107.35534	-265.69342	107.35534
8850.00000	107.03286	-268.75286	107.03286
8900.00000	106.73462	-271.42876	106.73462
8950.00000	106.39788	-274.39607	106.39788
9000.00000	105.98172	-277.12957	105.98172
9050.00000	105.63075	-280.12150	105.63075
9100.00000	105.22802	-282.68283	105.22802
9150.00000	104.88713	-285.32141	104.88713
9200.00000	104.58751	-287.94639	104.58751
9250.00000	104.23498	-290.45061	104.23498
9300.00000	103.96699	-292.75391	103.96699
9350.00000	103.75514	-294.94759	103.75514
9400.00000	103.39028	-296.31789	103.39028
9450.00000	103.15151	-297.53966	103.15151
9500.00000	102.94466	-297.63886	102.94466
9550.00000	102.80111	-298.07543	102.80111
9600.00000	102.67480	-299.71025	102.67480
9650.00000	102.42304	-301.48087	102.42304
9700.00000	102.11830	-302.47972	102.11830
9750.00000	101.91788	-304.82674	101.91788
9800.00000	101.64548	-306.09951	101.64548
9850.00000	101.44520	-307.46241	101.44520
9900.00000	101.14133	-309.39918	101.14133
9950.00000	101.00376	-310.38781	101.00376
10000.00000	100.88259	-312.07410	100.88259
10050.00000	100.69190	-313.17028	100.69190
10100.00000	100.52249	-314.07952	100.52249
10150.00000	100.25484	-315.58489	100.25484
10200.00000	100.05592	-316.74553	100.05592
10250.00000	99.77897	-318.48913	99.77897
10300.00000	99.65876	-320.16849	99.65876
10350.00000	99.43039	-321.82829	99.43039
10400.00000	99.20339	-324.05537	99.20339
10450.00000	99.16570	-326.21500	99.16570
10500.00000	99.15114	-328.21586	99.15114
10550.00000	99.10969	-330.17914	99.10969
10600.00000	99.03999	-331.65573	99.03999
10650.00000	98.94330	-332.67840	98.94330
10700.00000	98.86149	-335.00334	98.86149
10750.00000	98.75826	-336.50123	98.75826
10800.00000	98.57723	-338.10421	98.57723
10850.00000	98.41000	-340.90895	98.41000
10900.00000	98.25328	-342.78140	98.25328
10950.00000	98.10883	-344.74255	98.10883
11000.00000	97.97713	-346.93965	97.97713
11050.00000	97.70266	-348.98475	97.70266
11100.00000	97.52029	-351.26624	97.52029
11150.00000	97.23861	-352.96993	97.23861
11200.00000	97.06837	-354.60025	97.06837
11250.00000	96.73268	-356.59503	96.73268
11300.00000	96.41123	-358.38957	96.41123
11350.00000	96.10305	-359.76610	96.10305
11400.00000	95.71455	-361.53883	95.71455
11450.00000	95.45967	-363.60833	95.45967
11500.00000	95.30346	-364.40988	95.30346
11550.00000	94.96302	-365.40347	94.96302
11600.00000	94.81776	-367.02766	94.81776
11650.00000	94.54973	-367.04884	94.54973
11700.00000	94.37908	-367.65212	94.37908
11750.00000	94.21114	-368.35492	94.21114
11800.00000	94.01215	-369.26402	94.01215
11850.00000	93.90141	-369.01303	93.90141
11900.00000	93.58766	-370.30702	93.58766
11950.00000	93.47777	-370.52404	93.47777
12000.00000	93.28447	-371.00799	93.28447
12050.00000	93.11626	-371.19639	93.11626
12100.00000	93.05749	-372.63145	93.05749
12150.00000	92.94496	-373.45168	92.94496
12200.00000	92.96218	-374.66334	92.96218
12250.00000	92.87191	-374.99162	92.87191
12300.00000	93.94327	-376.05903	93.94327
12350.00000	92.76358	-376.95603	92.76358
12400.00000	92.68729	-376.99530	92.68729
12450.00000	92.63741	-377.71033	92.63741
12500.00000	92.55784	-379.48294	92.55784
12550.00000	92.47154	-380.67493	92.47154
12600.00000	92.33378	-382.62058	92.33378
12650.00000	92.45262	-383.94555	92.45262
12700.00000	92.30390	-385.41573	92.30390
12750.00000	92.14384	-387.09564	92.14384
12800.00000	92.05786	-388.17466	92.05786
12850.00000	91.65567	-389.24465	91.65567
12900.00000	91.51512	-391.27873	91.51512
12950.00000	91.30525	-392.74880	91.30525
13000.00000	91.13921	-394.62539	91.13921
13050.00000	91.03142	-394.90582	91.03142
13100.00000	90.76280	-396.11354	90.76280
13150.00000	90.62652	-398.07736	90.62652
13200.00000	90.40012	-397.36526	90.40012
13250.00000	90.27274	-398.20763	90.27274
13300.00000	89.89751	-396.70710	89.89751
13350.00000	89.61482	-398.14903	89.61482
13400.00000	89.62693	-398.20899	89.62693
13450.00000	89.31881	-397.83619	89.31881
13500.00000	89.22121	-396.54752	89.22121
13550.00000	88.99745	-397.23768	88.99745
13600.00000	88.86060	-396.18708	88.86060
13650.00000	88.72673	-395.68791	88.72673
13700.00000	88.40130	-395.94786	88.40130
13750.00000	88.39867	-396.22336	88.39867
13800.00000	88.29959	-397.85828	88.29959
13850.00000	88.29571	-398.16028	88.29571
13900.00000	88.21859	-397.06133	88.21859
13950.00000	88.14575	-395.48943	88.14575
14000.00000	88.25112	-394.13544	88.25112
14050.00000	88.20406	-393.51225	88.20406
14100.00000	88.14474	-392.80989	88.14474
14150.00000	88.28447	-392.78937	88.28447
14200.00000	88.44339	-391.67362	88.44339
14250.00000	88.89470	-390.14000	88.89470
14300.00000	88.81692	-389.15405	88.81692
14350.00000	89.18361	-387.37639	89.18361
14400.00000	88.78802	-388.59782	88.78802
14450.00000	88.95750	-385.46567	88.95750
14500.00000	89.02040	-387.81302	89.02040
14550.00000	89.19307	-385.72588	89.19307
14600.00000	89.29941	-387.43711	89.29941
14650.00000	89.75150	-384.18793	89.75150
14700.00000	90.15237	-389.18546	90.15237
14750.00000	90.22071	-387.33815	90.22071
14800.00000	90.48266	-385.96279	90.48266
14850.00000	90.74836	-386.70132	90.74836
14900.00000	91.09132	-386.95742	91.09132
14950.00000	91.43366	-387.92848	91.43366
15000.00000	91.87267	-388.30506	91.87267
15050.00000	91.86830	-386.32279	91.86830
15100.00000	92.21363	-386.49933	92.21363
15150.00000	92.52958	-388.41732	92.52958
15200.00000	92.75563	-387.52057	92.75563
15250.00000	92.90909	-388.86918	92.90909
15300.00000	93.51168	-390.28570	93.51168
15350.00000	93.74133	-391.03057	93.74133
15400.00000	93.87377	-390.65220	93.87377
15450.00000	94.16592	-391.90842	94.16592
15500.00000	94.60676	-392.84688	94.60676
15550.00000	94.99217	-394.76264	94.99217
15600.00000	95.35718	-395.62327	95.35718
15650.00000	95.84406	-395.23231	95.84406
15700.00000	96.02147	-397.48717	96.02147
15750.00000	96.49685	-399.02310	96.49685
15800.00000	96.87957	-400.11228	96.87957
15850.00000	97.23872	-401.73499	97.23872
15900.00000	97.48297	-404.48865	97.48297
15950.00000	97.89360	-406.15840	97.89360
16000.00000	98.24528	-407.76837	98.24528
16050.00000	98.63110	-409.98462	98.63110
16100.00000	98.83871	-412.38383	98.83871
16150.00000	99.09172	-414.82648	99.09172
16200.00000	99.38679	-418.24976	99.38679
16250.00000	99.70579	-420.20484	99.70579
16300.00000	100.14993	-422.76031	100.14993
16350.00000	100.39362	-424.95880	100.39362
16400.00000	100.60166	-426.95390	100.60166
16450.00000	100.83657	-429.65513	100.83657
16500.00000	101.03035	-432.31321	101.03035
16550.00000	101.38420	-435.48410	101.38420
16600.00000	101.62260	-437.85578	101.62260
16650.00000	101.82298	-440.30133	101.82298
16700.00000	102.06654	-442.79414	102.06654
16750.00000	102.20401	-445.65325	102.20401
16800.00000	102.42416	-448.96869	102.42416
16850.00000	102.71398	-451.68345	102.71398
16900.00000	102.95833	-454.48527	102.95833
16950.00000	103.18591	-457.48281	103.18591
17000.00000	103.22615	-460.51758	103.22615
17050.00000	103.44470	-462.48084	103.44470
17100.00000	103.54326	-464.28812	103.54326
17150.00000	103.85164	-468.20744	103.85164
17200.00000	104.03434	-470.92630	104.03434
17250.00000	104.16606	-474.56381	104.16606
17300.00000	104.40821	-477.19688	104.40821
17350.00000	104.42369	-479.79686	104.42369
17400.00000	104.66857	-482.96918	104.66857
17450.00000	104.74422	-486.32760	104.74422
17500.00000	104.93058	-489.32142	104.93058
17550.00000	105.05711	-492.46796	105.05711
17600.00000	105.29480	-495.03375	105.29480
17650.00000	105.38363	-498.99383	105.38363
17700.00000	105.48739	-502.23402	105.48739
17750.00000	105.71667	-504.94354	105.71667
17800.00000	105.69955	-508.79188	105.69955
17850.00000	105.84290	-511.41334	105.84290
17900.00000	105.90208	-514.84414	105.90208
17950.00000	106.07697	-518.15305	106.07697
18000.00000	106.11299	-521.78096	106.11299
18050.00000	106.33297	-524.88321	106.33297
18100.00000	106.33741	-528.59921	106.33741
18150.00000	106.38562	-531.38194	106.38562
18200.00000	106.40211	-535.39588	106.40211
18250.00000	106.51741	-537.97529	106.51741
18300.00000	106.63844	-541.45402	106.63844
18350.00000	106.69510	-544.80272	106.69510
18400.00000	106.66660	-548.67458	106.66660
18450.00000	106.65534	-553.19845	106.65534
18500.00000	106.69503	-556.63333	106.69503
18550.00000	106.68413	-559.76693	106.68413
18600.00000	106.78885	-563.73854	106.78885
18650.00000	106.60799	-566.99606	106.60799
18700.00000	106.54799	-570.92073	106.54799
18750.00000	106.54021	-574.38732	106.54021
18800.00000	106.56294	-577.28980	106.56294
18850.00000	106.37865	-580.91473	106.37865
18900.00000	106.25687	-584.27832	106.25687
18950.00000	106.17207	-587.79089	106.17207
19000.00000	105.89388	-590.49924	105.89388
19050.00000	105.90976	-593.62108	105.90976
19100.00000	105.73866	-596.31151	105.73866
19150.00000	105.74500	-598.83244	105.74500
19200.00000	105.58965	-601.14214	105.58965
19250.00000	105.44165	-604.82590	105.44165
19300.00000	105.27148	-606.66627	105.27148
19350.00000	105.20555	-609.22814	105.20555
19400.00000	105.08852	-611.43583	105.08852
19450.00000	105.10815	-613.28918	105.10815
19500.00000	104.93481	-616.54094	104.93481
19550.00000	104.90228	-618.61145	104.90228
19600.00000	104.91290	-621.54923	104.91290
19650.00000	104.82536	-623.51768	104.82536
19700.00000	104.67387	-625.98175	104.67387
19750.00000	104.60474	-627.83298	104.60474
19800.00000	104.65751	-630.96942	104.65751
19850.00000	104.64186	-633.22491	104.64186
19900.00000	104.53304	-636.41399	104.53304
19950.00000	104.48603	-638.89552	104.48603
20000.00000	104.44663	-641.48055	104.44663
20050.00000	104.39172	-643.90612	104.39172
20100.00000	104.27219	-646.70861	104.27219
20150.00000	104.25583	-648.52263	104.25583
20200.00000	104.14928	-651.84378	104.14928
20250.00000	104.01516	-654.37762	104.01516
20300.00000	103.83626	-656.86280	103.83626
20350.00000	103.80929	-659.74874	103.80929
20400.00000	103.63244	-661.43423	103.63244
20450.00000	103.44105	-663.90964	103.44105
20500.00000	103.37669	-666.57768	103.37669
20550.00000	102.99440	-668.07961	102.99440
20600.00000	102.92851	-669.99555	102.92851
20650.00000	102.76858	-671.90338	102.76858
20700.00000	102.55843	-673.64953	102.55843
20750.00000	102.45723	-675.08442	102.45723
20800.00000	102.26697	-676.18933	102.26697
20850.00000	102.18286	-677.64249	102.18286
20900.00000	102.01012	-678.80045	102.01012
20950.00000	101.87239	-679.22511	101.87239
21000.00000	101.81533	-680.02359	101.81533
21050.00000	101.91372	-680.46165	101.91372
21100.00000	101.89019	-681.11159	101.89019
21150.00000	101.99164	-682.11089	101.99164
21200.00000	102.08737	-682.74583	102.08737
21250.00000	102.18568	-684.87391	102.18568
21300.00000	102.36517	-685.72703	102.36517
21350.00000	102.46857	-687.06593	102.46857
21400.00000	102.57674	-689.19115	102.57674
21450.00000	102.70677	-691.19534	102.70677
21500.00000	102.83282	-693.61608	102.83282
21550.00000	102.82569	-695.40440	102.82569
21600.00000	102.97485	-697.98994	102.97485
21650.00000	103.00622	-700.59913	103.00622
21700.00000	103.01482	-702.70629	103.01482
21750.00000	103.04580	-705.12609	103.04580
21800.00000	103.07051	-707.71996	103.07051
21850.00000	103.02974	-709.87756	103.02974
21900.00000	103.00845	-712.18543	103.00845
21950.00000	102.97149	-714.25727	102.97149
22000.00000	102.97591	-716.39314	102.97591
22050.00000	102.92727	-718.13550	102.92727
22100.00000	102.87217	-720.55170	102.87217
22150.00000	102.76832	-722.53826	102.76832
22200.00000	102.88682	-724.36191	102.88682
22250.00000	102.78835	-726.00294	102.78835
22300.00000	102.66521	-728.06979	102.66521
22350.00000	102.78433	-730.14985	102.78433
22400.00000	102.75135	-732.19793	102.75135
22450.00000	102.69982	-733.76032	102.69982
22500.00000	102.61268	-734.96568	102.61268
22550.00000	102.58973	-737.06268	102.58973
22600.00000	102.61584	-739.96648	102.61584
22650.00000	102.53768	-741.38567	102.53768
22700.00000	102.51804	-743.06618	102.51804
22750.00000	102.42799	-742.01484	102.42799
22800.00000	102.49446	-747.46775	102.49446
22850.00000	102.52203	-749.66011	102.52203
22900.00000	102.49646	-750.15131	102.49646
22950.00000	102.47149	-751.72893	102.47149
23000.00000	102.42354	-753.05396	102.42354
23050.00000	102.37198	-756.21983	102.37198
23100.00000	102.47947	-756.65372	102.47947
23150.00000	102.28246	-757.76842	102.28246
23200.00000	102.46383	-760.92473	102.46383
23250.00000	102.22074	-763.25186	102.22074
23300.00000	102.50863	-765.07210	102.50863
23350.00000	102.18118	-767.23246	102.18118
23400.00000	102.18143	-768.72062	102.18143
23450.00000	102.35159	-770.95785	102.35159
23500.00000	102.14909	-772.01360	102.14909
23550.00000	102.05247	-771.76662	102.05247
23600.00000	101.99141	-775.60405	101.99141
23650.00000	102.05070	-777.03288	102.05070
23700.00000	102.25648	-780.31996	102.25648
23750.00000	102.20015	-781.10080	102.20015
23800.00000	101.90636	-781.33126	101.90636
23850.00000	102.02743	-782.92210	102.02743
23900.00000	102.42107	-784.87539	102.42107
23950.00000	102.13070	-787.17779	102.13070
24000.00000	101.96479	-789.45410	101.96479
24050.00000	102.20092	-789.45944	102.20092
24100.00000	102.47232	-793.30934	102.47232
24150.00000	102.44311	-794.82096	102.44311
24200.00000	102.42187	-797.68230	102.42187
24250.00000	102.15536	-797.71459	102.15536
24300.00000	102.63103	-800.53147	102.63103
24350.00000	102.46414	-802.10979	102.46414
24400.00000	102.53942	-805.28326	102.53942
24450.00000	102.18700	-806.57934	102.18700
24500.00000	102.79329	-807.65572	102.79329
24550.00000	102.62243	-812.59829	102.62243
24600.00000	103.20276	-813.47883	103.20276
24650.00000	102.83101	-457.46585	102.83101
24700.00000	102.79586	-456.46814	102.79586
24750.00000	102.85907	-101.73041	102.85907
24800.00000	102.95752	256.20247	102.95752
24850.00000	102.64982	615.10753	102.64982
24900.00000	102.84726	974.28134	102.84726
24950.00000	103.12625	1329.66477	103.12625
25000.00000	103.19634	1322.04883	103.19634
25050.00000	103.31843	1324.17785	103.31843
25100.00000	102.76909	1319.79465	102.76909
25150.00000	103.17799	1319.39440	103.17799
25200.00000	102.84015	1314.75712	102.84015
25250.00000	103.10557	1313.98088	103.10557
25300.00000	103.13262	1311.90892	103.13262
25350.00000	103.07682	1305.19974	103.07682
25400.00000	103.06012	1301.96205	103.06012
25450.00000	103.20816	1300.82474	103.20816
25500.00000	103.00463	1298.53161	103.00463
25550.00000	102.94702	1294.49919	102.94702
25600.00000	103.08148	1292.88378	103.08148
25650.00000	102.89381	1290.64198	102.89381
25700.00000	102.93544	1287.84130	102.93544
25750.00000	102.73697	1285.25872	102.73697
25800.00000	102.68321	1281.89005	102.68321
25850.00000	102.69393	1279.40454	102.69393
25900.00000	102.67265	1275.88515	102.67265
25950.00000	102.35133	1276.72167	102.35133
26000.00000	102.47567	1272.44651	102.47567
26050.00000	102.45665	1270.09942	102.45665
26100.00000	102.40793	1267.67760	102.40793
26150.00000	102.35857	1265.14082	102.35857
26200.00000	102.40325	1262.88854	102.40325
26250.00000	102.23444	1260.63990	102.23444
26300.00000	102.32742	1257.15244	102.32742
26350.00000	101.99536	1256.57618	101.99536
26400.00000	102.06258	1254.25999	102.06258
26450.00000	102.29945	1250.69878	102.29945
26500.00000	102.08906	1248.36104	102.08906
26550.00000	101.98840	1243.77940	101.98840
26600.00000	101.93087	1241.08859	101.93087
26650.00000	102.04608	1242.26341	102.04608
26700.00000	102.05396	1238.36438	102.05396
26750.00000	101.79021	1235.90321	101.79021
26800.00000	101.75210	1230.87864	101.75210
26850.00000	102.09246	1230.17408	102.09246
26900.00000	102.03007	1228.63570	102.03007
26950.00000	102.17849	1224.46212	102.17849
27000.00000	101.76091	1223.55572	101.76091
27050.00000	101.99130	1219.65936	101.99130
27100.00000	101.73515	1218.49494	101.73515
27150.00000	101.78210	1214.42642	101.78210
27200.00000	101.83103	1212.25165	101.83103
27250.00000	101.46998	1210.73283	101.46998
27300.00000	101.24403	1206.10993	101.24403
27350.00000	101.50555	1205.81014	101.50555
27400.00000	100.99453	1202.64176	100.99453
27450.00000	100.99721	1200.50140	100.99721
27500.00000	100.87491	1198.20660	100.87491
27550.00000	100.85681	1195.38384	100.85681
27600.00000	101.05044	1191.41166	101.05044
27650.00000	100.51726	1191.79407	100.51726
27700.00000	100.50632	1185.69894	100.50632
27750.00000	100.38887	1183.79985	100.38887
27800.00000	100.30635	1179.93039	100.30635
27850.00000	100.52914	1181.80533	100.52914
27900.00000	99.91817	1179.58871	99.91817
27950.00000	99.23970	1176.31999	99.23970
28000.00000	99.34775	1175.30085	99.34775
28050.00000	99.81487	1172.48288	99.81487
28100.00000	99.05153	1170.52490	99.05153
28150.00000	98.95760	1169.46118	98.95760
28200.00000	99.04790	1165.17974	99.04790
28250.00000	98.60368	1162.35402	98.60368
28300.00000	98.20932	1162.52367	98.20932
28350.00000	98.35514	1161.63539	98.35514
28400.00000	98.19890	1160.70315	98.19890
28450.00000	98.51877	1158.03540	98.51877
28500.00000	97.87461	1157.42142	97.87461
28550.00000	97.69591	1158.28947	97.69591
28600.00000	97.68710	1157.31174	97.68710
28650.00000	97.82091	1152.09520	97.82091
28700.00000	97.57173	1153.27337	97.57173
28750.00000	98.04227	1152.88752	98.04227
28800.00000	97.72434	1152.01276	97.72434
28850.00000	97.07206	1147.28280	97.07206
28900.00000	97.14487	1146.81144	97.14487
28950.00000	96.84173	1146.78041	96.84173
29000.00000	96.94067	1145.22787	96.94067
29050.00000	96.60481	1146.14091	96.60481
29100.00000	96.56791	1145.39571	96.56791
29150.00000	96.20274	1144.68796	96.20274
29200.00000	96.10240	1143.13676	96.10240
29250.00000	96.37067	1142.88999	96.37067
29300.00000	96.03790	1140.57378	96.03790
29350.00000	96.17528	1139.15947	96.17528
29400.00000	96.06550	1139.18674	96.06550
29450.00000	95.93994	1138.06115	95.93994
29500.00000	96.18590	1138.81523	96.18590
29550.00000	95.75352	1134.83278	95.75352
29600.00000	95.45293	1135.76526	95.45293
29650.00000	95.67965	1134.73111	95.67965
29700.00000	95.35759	1135.95226	95.35759
29750.00000	95.32047	1136.90292	95.32047
29800.00000	95.21912	1134.57309	95.21912
29850.00000	95.19203	1133.42691	95.19203
29900.00000	95.27088	1134.97080	95.27088
29950.00000	94.57307	1134.88803	94.57307
30000.00000	94.93912	1135.75946	94.93912
30050.00000	94.94844	1135.50219	94.94844
30100.00000	94.72106	1136.16263	94.72106
30150.00000	94.88194	1134.72280	94.88194
30200.00000	94.90498	1134.19617	94.90498
30250.00000	94.80964	1135.93215	94.80964
30300.00000	94.46327	1136.25366	94.46327
30350.00000	94.71644	1139.69343	94.71644
30400.00000	94.78407	1138.34462	94.78407
30450.00000	94.61917	1139.29162	94.61917
30500.00000	94.64590	1138.80810	94.64590
30550.00000	94.84258	1142.09920	94.84258
30600.00000	95.08198	1142.45725	95.08198
30650.00000	95.20364	1144.08617	95.20364
30700.00000	95.52492	1144.57609	95.52492
30750.00000	95.46629	1146.47772	95.46629
30800.00000	95.81722	1147.42437	95.81722
30850.00000	96.27130	1149.55349	96.27130
30900.00000	96.40753	1151.29404	96.40753
30950.00000	97.05476	1150.99819	97.05476
31000.00000	97.53074	1151.43474	97.53074
31050.00000	98.04901	1151.90704	98.04901
31100.00000	98.73749	1152.26333	98.73749
31150.00000	98.97168	1151.82961	98.97168
31200.00000	99.88837	1150.81533	99.88837
31250.00000	100.37354	1150.10278	100.37354
31300.00000	101.04396	1148.10658	101.04396
31350.00000	101.72605	1146.93876	101.72605
31400.00000	102.09701	1144.18559	102.09701
31450.00000	102.75479	1141.93531	102.75479
31500.00000	103.15549	1138.31494	103.15549
31550.00000	103.78732	1136.13739	103.78732
31600.00000	104.39725	1131.93133	104.39725
31650.00000	104.79748	1128.58087	104.79748
31700.00000	105.23848	1125.23405	105.23848
31750.00000	105.72971	1122.82749	105.72971
31800.00000	106.00851	1117.82793	106.00851
31850.00000	106.47804	1113.57109	106.47804
31900.00000	106.58488	1110.14934	106.58488
31950.00000	107.00655	1106.19658	107.00655
32000.00000	107.26875	1101.84948	107.26875
32050.00000	107.54228	1097.95044	107.54228
32100.00000	107.72237	1093.77960	107.72237
32150.00000	107.98938	1090.47545	107.98938
32200.00000	108.20192	1086.02862	108.20192
32250.00000	108.31665	1081.52576	108.31665
32300.00000	108.48856	1077.95763	108.48856
32350.00000	108.59107	1074.86657	108.59107
32400.00000	108.85214	1071.65126	108.85214
32450.00000	108.82564	1066.93764	108.82564
32500.00000	109.03877	1064.11644	109.03877
32550.00000	109.23128	1059.23076	109.23128
32600.00000	109.32001	1056.21025	109.32001
32650.00000	109.45492	1052.40008	109.45492
32700.00000	109.37896	1048.24688	109.37896
32750.00000	109.47705	1044.06648	109.47705
32800.00000	109.68598	1041.49538	109.68598
32850.00000	109.79744	1037.62728	109.79744
32900.00000	109.80654	1032.81818	109.80654
32950.00000	109.71831	1028.67443	109.71831
33000.00000	109.74673	1027.19023	109.74673
33050.00000	109.77090	1021.91266	109.77090
33100.00000	109.87080	1019.00754	109.87080
33150.00000	109.84023	1015.90352	109.84023
33200.00000	110.06497	1013.47899	110.06497
33250.00000	109.88914	1009.60608	109.88914
33300.00000	109.90353	1005.81011	109.90353
33350.00000	109.83750	1002.56472	109.83750
33400.00000	109.82095	1000.24740	109.82095
33450.00000	109.87829	996.27943	109.87829
33500.00000	110.04906	994.83368	110.04906
33550.00000	109.64811	989.75546	109.64811
33600.00000	109.93963	987.41793	109.93963
33650.00000	109.84039	983.45779	109.84039
33700.00000	109.81719	981.15219	109.81719
33750.00000	109.66893	978.47088	109.66893
33800.00000	109.73981	974.88429	109.73981
33850.00000	109.40220	972.78421	109.40220
33900.00000	109.56699	969.10714	109.56699
33950.00000	109.52796	967.15174	109.52796
34000.00000	109.45262	963.73979	109.45262
34050.00000	109.30234	961.45873	109.30234
34100.00000	109.19036	959.57053	109.19036
34150.00000	109.21422	956.16886	109.21422
34200.00000	109.12682	956.66028	109.12682
34250.00000	109.04005	952.33454	109.04005
34300.00000	109.07343	950.48521	109.07343
34350.00000	109.04431	948.41585	109.04431
34400.00000	108.75609	948.19582	108.75609
34450.00000	108.86404	942.96700	108.86404
34500.00000	108.78316	941.82545	108.78316
34550.00000	108.81709	940.42450	108.81709
34600.00000	108.49409	937.78007	108.49409
34650.00000	108.76703	937.69376	108.76703
34700.00000	108.39775	938.05531	108.39775
34750.00000	108.65311	931.37852	108.65311
34800.00000	108.67247	934.17325	108.67247
34850.00000	108.89949	933.17476	108.89949
34900.00000	109.10066	930.12170	109.10066
34950.00000	108.96634	929.95690	108.96634
35000.00000	108.94844	927.80284	108.94844
35050.00000	109.14237	926.65192	109.14237
35100.00000	109.41256	924.04478	109.41256
35150.00000	109.23336	924.49665	109.23336
35200.00000	109.43973	921.57441	109.43973
35250.00000	109.49720	920.04153	109.49720
35300.00000	109.79281	917.31543	109.79281
35350.00000	109.98373	915.14722	109.98373
35400.00000	109.99691	913.66660	109.99691
35450.00000	110.26694	912.08931	110.26694
35500.00000	110.08621	910.50715	110.08621
35550.00000	110.55860	908.87843	110.55860
35600.00000	110.55631	906.90760	110.55631
35650.00000	110.78444	904.89995	110.78444
35700.00000	110.98264	902.81355	110.98264
35750.00000	111.03919	901.54981	111.03919
35800.00000	111.21235	900.82143	111.21235
35850.00000	111.49427	896.59900	111.49427
35900.00000	111.69582	894.65496	111.69582
35950.00000	111.88393	892.65564	111.88393
36000.00000	112.02229	890.27188	112.02229
36050.00000	112.40881	888.18834	112.40881
36100.00000	112.61377	885.33583	112.61377
36150.00000	112.64992	882.16605	112.64992
36200.00000	112.79481	879.67879	112.79481
36250.00000	112.95465	877.46360	112.95465
36300.00000	112.99790	874.35678	112.99790
36350.00000	113.29955	872.02077	113.29955
36400.00000	113.50950	868.72591	113.50950
36450.00000	113.51273	865.59221	113.51273
36500.00000	113.82888	863.24477	113.82888
36550.00000	113.73346	859.10380	113.73346
36600.00000	113.89955	856.43298	113.89955
36650.00000	114.18005	853.48438	114.18005
36700.00000	114.34821	849.40594	114.34821
36750.00000	114.36412	845.81440	114.36412
36800.00000	114.38102	843.59769	114.38102
36850.00000	114.39914	839.89050	114.39914
36900.00000	114.58476	836.50445	114.58476
36950.00000	114.46474	832.95302	114.46474
37000.00000	114.31258	830.46373	114.31258
37050.00000	114.34666	827.41863	114.34666
37100.00000	114.53731	823.88510	114.53731
37150.00000	114.67636	819.76773	114.67636
37200.00000	114.85955	817.46799	114.85955
37250.00000	114.43523	813.80280	114.43523
37300.00000	114.49270	810.82976	114.49270
37350.00000	114.68499	808.16587	114.68499
37400.00000	114.52171	805.86533	114.52171
37450.00000	114.48772	802.66060	114.48772
37500.00000	114.71567	798.64357	114.71567
37550.00000	114.55561	796.69361	114.55561
37600.00000	114.63808	793.57952	114.63808
37650.00000	114.55082	790.90465	114.55082
37700.00000	114.73315	787.12635	114.73315
37750.00000	114.75397	785.75568	114.75397
37800.00000	114.55512	782.26819	114.55512
37850.00000	114.81512	777.95929	114.81512
37900.00000	114.90180	775.53229	114.90180
37950.00000	114.96093	773.51952	114.96093
38000.00000	114.84661	771.21805	114.84661
38050.00000	115.05364	767.65918	115.05364
38100.00000	115.28127	764.79616	115.28127
38150.00000	115.33641	761.48901	115.33641
38200.00000	115.56849	757.76926	115.56849
38250.00000	115.61165	755.13064	115.61165
38300.00000	115.79343	750.51177	115.79343
38350.00000	115.90235	748.13083	115.90235
38400.00000	116.03410	744.33885	116.03410
38450.00000	116.19534	740.16957	116.19534
38500.00000	116.42771	736.01428	116.42771
38550.00000	116.64211	732.27420	116.64211
38600.00000	116.76960	727.97225	116.76960
38650.00000	116.90551	723.39299	116.90551
38700.00000	116.95596	718.73039	116.95596
38750.00000	117.09342	714.34673	117.09342
38800.00000	117.18083	709.51328	117.18083
38850.00000	117.17980	704.34488	117.17980
38900.00000	117.29896	699.58650	117.29896
38950.00000	117.21893	694.25878	117.21893
39000.00000	117.22381	689.05643	117.22381
39050.00000	117.19901	683.95257	117.19901
39100.00000	116.94527	678.85644	116.94527
39150.00000	116.79197	673.84522	116.79197
39200.00000	116.66642	669.39167	116.66642
39250.00000	116.52721	664.44944	116.52721
39300.00000	116.31758	659.38896	116.31758
39350.00000	116.04390	655.11400	116.04390
39400.00000	115.72969	650.23778	115.72969
39450.00000	115.39492	646.43548	115.39492
39500.00000	115.14619	642.48995	115.14619
39550.00000	114.76293	638.21785	114.76293
39600.00000	114.32627	634.71124	114.32627
39650.00000	114.09495	631.55739	114.09495
39700.00000	113.66326	628.40000	113.66326
39750.00000	113.37706	624.77954	113.37706
39800.00000	112.99370	621.72104	112.99370
39850.00000	112.59782	619.22667	112.59782
39900.00000	112.26211	616.84230	112.26211
39950.00000	111.93208	614.42767	111.93208
40000.00000	111.43863	613.21770	111.43863
40050.00000	111.24000	609.86887	111.24000
40100.00000	110.93438	607.92133	110.93438
40150.00000	110.51610	605.92105	110.51610
40200.00000	110.18660	603.92020	110.18660
40250.00000	109.92043	603.07547	109.92043
40300.00000	109.68261	601.43571	109.68261
40350.00000	109.33253	600.66253	109.33253
40400.00000	109.04073	599.18659	109.04073
40450.00000	108.74204	598.76604	108.74204
40500.00000	108.63894	597.69071	108.63894
40550.00000	108.34631	595.87542	108.34631
40600.00000	108.04856	594.27683	108.04856
40650.00000	107.86333	595.37061	107.86333
40700.00000	107.55512	594.48887	107.55512
40750.00000	107.49787	594.10648	107.49787
40800.00000	107.40985	592.72668	107.40985
40850.00000	107.24245	593.64198	107.24245
40900.00000	107.04740	591.81173	107.04740
40950.00000	106.66571	591.86367	106.66571
41000.00000	106.56247	591.77550	106.56247
41050.00000	106.52442	592.25982	106.52442
41100.00000	106.66874	591.45442	106.66874
41150.00000	106.76519	592.35742	106.76519
41200.00000	106.41126	590.98898	106.41126
41250.00000	106.38328	588.85271	106.38328
41300.00000	106.05029	590.06127	106.05029
41350.00000	106.25723	591.25247	106.25723
41400.00000	106.13515	586.02974	106.13515
41450.00000	106.25981	587.88500	106.25981
41500.00000	106.04185	587.23654	106.04185
41550.00000	105.91235	589.77885	105.91235
41600.00000	105.66914	588.03660	105.66914
41650.00000	106.16238	587.35429	106.16238
41700.00000	105.92058	587.11903	105.92058
41750.00000	105.81458	591.25642	105.81458
41800.00000	104.79341	585.18171	104.79341
41850.00000	104.34417	585.05766	104.34417
41900.00000	104.79132	586.03608	104.79132
41950.00000	105.46944	588.62936	105.46944
42000.00000	104.59745	583.07213	104.59745
42050.00000	104.01269	582.68085	104.01269
42100.00000	104.54701	584.43346	104.54701
42150.00000	103.69788	577.41519	103.69788
42200.00000	103.51608	582.95918	103.51608
42250.00000	103.64974	581.17390	103.64974
42300.00000	102.26816	577.52849	102.26816
42350.00000	102.90875	579.19882	102.90875
42400.00000	102.87045	578.74324	102.87045
42450.00000	103.15271	574.12321	103.15271
42500.00000	102.39376	574.30823	102.39376
42550.00000	102.51366	581.32490	102.51366
42600.00000	102.22026	573.34619	102.22026
42650.00000	102.14205	574.12150	102.14205
42700.00000	101.62939	570.43451	101.62939
42750.00000	102.83792	563.43412	102.83792
42800.00000	102.37632	556.78342	102.37632
42850.00000	101.83142	555.66723	101.83142
42900.00000	102.80627	558.81899	102.80627
42950.00000	102.23566	554.10575	102.23566
43000.00000	102.91174	546.82517	102.91174
43050.00000	102.34365	546.09330	102.34365
43100.00000	103.29200	541.17831	103.29200
43150.00000	101.89675	536.65477	101.89675
43200.00000	102.88896	533.02992	102.88896
43250.00000	103.04020	529.44033	103.04020
43300.00000	103.47864	525.95120	103.47864
43350.00000	103.99871	522.67903	103.99871
43400.00000	104.20692	520.03336	104.20692
43450.00000	104.59086	520.00598	104.59086
43500.00000	104.10374	508.75432	104.10374
43550.00000	105.22105	504.98258	105.22105
43600.00000	104.72846	503.08585	104.72846
43650.00000	105.35928	492.02291	105.35928
43700.00000	105.60412	493.11031	105.60412
43750.00000	105.19187	492.85249	105.19187
43800.00000	105.54908	482.93658	105.54908
43850.00000	106.42671	479.76604	106.42671
43900.00000	106.98360	478.51143	106.98360
43950.00000	106.94580	471.75779	106.94580
44000.00000	106.52966	467.81560	106.52966
44050.00000	107.11286	461.98174	107.11286
44100.00000	107.18138	451.03139	107.18138
44150.00000	107.12943	454.31199	107.12943
44200.00000	107.42254	452.29185	107.42254
44250.00000	107.56536	443.30398	107.56536
44300.00000	107.71182	435.65034	107.71182
44350.00000	106.84638	432.82932	106.84638
44400.00000	108.01191	431.15154	108.01191
44450.00000	108.12198	426.19634	108.12198
44500.00000	107.77102	422.43636	107.77102
44550.00000	109.22123	410.97237	109.22123
44600.00000	108.15634	414.04547	108.15634
44650.00000	107.58675	406.05252	107.58675
44700.00000	107.56967	401.45963	107.56967
44750.00000	107.51202	401.90188	107.51202
44800.00000	108.00510	395.44311	108.00510
44850.00000	107.89966	390.19478	107.89966
44900.00000	107.30266	388.39022	107.30266
44950.00000	107.61331	381.44824	107.61331
45000.00000	107.66369	374.14781	107.66369
45050.00000	106.30397	379.56915	106.30397
45100.00000	106.69821	372.18372	106.69821
45150.00000	106.69434	360.20222	106.69434
45200.00000	106.15736	364.85434	106.15736
45250.00000	106.24970	359.91307	106.24970
45300.00000	105.90345	354.62859	105.90345
45350.00000	105.37359	348.41357	105.37359
45400.00000	105.19483	347.70868	105.19483
45450.00000	105.31498	342.54649	105.31498
45500.00000	104.14650	336.50616	104.14650
45550.00000	103.78620	340.44576	103.78620
45600.00000	104.95891	332.19144	104.95891
45650.00000	103.13611	325.90060	103.13611
45700.00000	103.17421	325.76786	103.17421
45750.00000	103.75120	331.35690	103.75120
45800.00000	102.95812	320.67346	102.95812
45850.00000	102.33280	318.44829	102.33280
45900.00000	102.28124	318.65784	102.28124
45950.00000	101.71847	319.72498	101.71847
46000.00000	100.30740	301.47986	100.30740
46050.00000	100.73600	304.43346	100.73600
46100.00000	99.31429	306.92586	99.31429
46150.00000	99.85984	306.13822	99.85984
46200.00000	97.43506	296.57500	97.43506
46250.00000	98.49575	297.05543	98.49575
46300.00000	97.47272	296.85058	97.47272
46350.00000	98.54680	293.25068	98.54680
46400.00000	96.38509	287.14103	96.38509
46450.00000	94.77096	290.69705	94.77096
46500.00000	96.21319	295.63142	96.21319
46550.00000	95.86430	299.06485	95.86430
46600.00000	96.46763	300.81112	96.46763
46650.00000	93.21045	297.42271	93.21045
46700.00000	93.64736	306.16933	93.64736
46750.00000	94.51143	317.59911	94.51143
46800.00000	92.56939	301.83267	92.56939
46850.00000	94.14569	-41.04368	94.14569
46900.00000	94.27529	-51.03031	94.27529
46950.00000	94.65136	-47.27224	94.65136
47000.00000	93.94023	-47.14144	93.94023
47050.00000	96.11273	-49.52621	96.11273
47100.00000	94.55310	-54.16181	94.55310
47150.00000	95.46178	-51.90901	95.46178
47200.00000	94.32622	-54.21846	94.32622
47250.00000	96.31795	-55.86375	96.31795
47300.00000	95.29605	-64.57961	95.29605
47350.00000	95.16995	-411.92914	95.16995
47400.00000	94.91239	-415.25561	94.91239
47450.00000	96.03961	-413.53878	96.03961
47500.00000	94.28424	-428.63674	94.28424
47550.00000	94.09897	-780.45710	94.09897
47600.00000	94.28723	-783.02791	94.28723
47650.00000	95.92640	-785.67278	95.92640
47700.00000	95.10628	-784.84975	95.10628
47750.00000	93.28684	-784.46856	93.28684
47800.00000	93.79712	-800.82711	93.79712
47850.00000	94.54832	-1150.97087	94.54832
47900.00000	94.45297	-1497.63280	94.45297
47950.00000	93.46522	-1505.30397	93.46522
48000.00000	93.64427	-1500.98740	93.64427
48050.00000	94.73183	-1507.49202	94.73183
48100.00000	93.44260	-1513.69429	93.44260
48150.00000	94.36897	-1865.44434	94.36897
48200.00000	94.57264	-1863.19976	94.57264
48250.00000	93.45610	-1869.40455	93.45610
48300.00000	94.49400	-1873.43895	94.49400
48350.00000	94.51935	-1877.52740	94.51935
48400.00000	94.91929	-2219.05986	94.91929
48450.00000	95.85159	-2228.42006	95.85159
48500.00000	95.00047	-2233.94013	95.00047
48550.00000	94.02222	-2240.53252	94.02222
48600.00000	95.64011	-2593.49781	95.64011
48650.00000	96.10581	-2593.20768	96.10581
48700.00000	95.79645	-2604.30323	95.79645
48750.00000	94.95575	-2953.61023	94.95575
48800.00000	95.44459	-2958.01905	95.44459
48850.00000	95.84173	-2964.33822	95.84173
48900.00000	95.20400	-3320.65867	95.20400
48950.00000	95.43674	-3334.96059	95.43674
49000.00000	96.05558	-3336.35941	96.05558
49050.00000	95.19549	-3341.43019	95.19549
49100.00000	94.94727	-3698.32393	94.94727
49150.00000	96.38836	-4059.45980	96.38836
49200.00000	95.71797	-4068.81828	95.71797
49250.00000	95.54793	-4416.93755	95.54793
49300.00000	95.74017	-4073.90569	95.74017
49350.00000	93.65661	-4053.98825	93.65661
49400.00000	94.56227	-3712.69949	94.56227
49450.00000	91.67774	-3355.28161	91.67774
49500.00000	93.08784	-3003.26529	93.08784
49550.00000	93.79888	-2655.79625	93.79888
49600.00000	92.05646	-2637.43932	92.05646
49650.00000	92.03811	-2632.00294	92.03811
49700.00000	93.74034	-2301.06286	93.74034
49750.00000	92.88798	-2294.09769	92.88798
49800.00000	90.74982	-2286.76294	90.74982
49850.00000	90.08967	-2271.27769	90.08967
49900.00000	89.63022	-1909.08030	89.63022
49950.00000	92.39348	-1580.34920	92.39348
