---ACOUSTIC CALIBRATION---
Filename: C:\Data\AZH DATA\AZH42\RightPrimary.calib
Date: 8/27/2019 2:45:50 PM
Format: 4
Probe Tube Correction File: C:\Data\Probe Tube Calibrations\50_ProbeTube.calib
Experiment VIs: 850
EPL_CFTS.exe V12.0.1 (2012)
DAQmx V9.6

Attenuation (dB): 40.000000
Min Freq (Hz): 50.000000
Max Freq (Hz): 49950.000000
Freq Step (Hz): 50.000000
Sample Rate (Hz): 100000.000000
[Smoothing]
Method=None
MA.Iterations=0
MA.Length=0
Loess.Length=0
Loess.Type=Linear
Loess.Robust=FALSE


Freq(Hz)	Mag(dB)	Phase(deg)	Unsmoothed(dB)

50.00000	106.38197	381.61829	106.38197
100.00000	70.25817	241.70127	70.25817
150.00000	75.58621	81.03139	75.58621
200.00000	85.60709	71.89616	85.60709
250.00000	89.80259	72.76024	89.80259
300.00000	90.60890	14.80392	90.60890
350.00000	83.34639	23.21519	83.34639
400.00000	88.46552	17.10011	88.46552
450.00000	88.46260	13.94758	88.46260
500.00000	89.20960	16.00555	89.20960
550.00000	91.24509	14.68162	91.24509
600.00000	96.04328	 7.58561	96.04328
650.00000	96.67156	-8.24363	96.67156
700.00000	99.02388	-24.53805	99.02388
750.00000	100.76653	-41.94979	100.76653
800.00000	101.99132	-67.17368	101.99132
850.00000	100.93894	-83.40711	100.93894
900.00000	99.60356	-97.64419	99.60356
950.00000	97.65913	-102.29027	97.65913
1000.00000	96.13786	-102.17042	96.13786
1050.00000	93.95036	-84.52325	93.95036
1100.00000	95.72073	-65.49743	95.72073
1150.00000	98.81825	-59.68861	98.81825
1200.00000	101.35287	-63.85812	101.35287
1250.00000	103.15173	-69.81020	103.15173
1300.00000	104.85452	-75.86957	104.85452
1350.00000	106.09331	-84.97486	106.09331
1400.00000	106.88371	-93.97011	106.88371
1450.00000	107.81623	-99.02100	107.81623
1500.00000	108.98795	-105.67793	108.98795
1550.00000	109.69962	-114.15193	109.69962
1600.00000	111.21356	-124.90244	111.21356
1650.00000	112.17416	-140.62152	112.17416
1700.00000	110.99365	-150.97143	110.99365
1750.00000	110.67772	-156.26138	110.67772
1800.00000	110.45810	-161.35556	110.45810
1850.00000	110.56036	-162.21333	110.56036
1900.00000	111.75522	-166.42720	111.75522
1950.00000	112.37183	-179.46265	112.37183
2000.00000	111.45785	-191.30886	111.45785
2050.00000	110.13120	-187.02692	110.13120
2100.00000	111.98288	-187.12958	111.98288
2150.00000	112.59634	-198.34615	112.59634
2200.00000	112.46444	-208.64092	112.46444
2250.00000	111.86995	-215.27630	111.86995
2300.00000	111.99455	-221.12116	111.99455
2350.00000	111.76896	-227.17859	111.76896
2400.00000	111.55107	-233.32808	111.55107
2450.00000	111.15430	-239.25163	111.15430
2500.00000	110.83302	-244.84942	110.83302
2550.00000	110.29450	-249.96040	110.29450
2600.00000	109.81856	-254.23104	109.81856
2650.00000	109.33280	-258.02834	109.33280
2700.00000	108.76128	-261.52942	108.76128
2750.00000	108.18789	-264.95587	108.18789
2800.00000	107.51551	-267.32994	107.51551
2850.00000	106.89477	-269.57806	106.89477
2900.00000	106.32670	-271.56961	106.32670
2950.00000	105.61336	-272.89463	105.61336
3000.00000	104.82647	-273.24439	104.82647
3050.00000	103.92773	-273.90176	103.92773
3100.00000	103.04615	-271.61384	103.04615
3150.00000	101.75938	-268.38277	101.75938
3200.00000	100.59875	-258.96326	100.59875
3250.00000	100.24176	-247.26011	100.24176
3300.00000	100.30759	-234.25072	100.30759
3350.00000	101.39536	-220.20250	101.39536
3400.00000	103.48973	-206.74637	103.48973
3450.00000	105.93265	-202.94714	105.93265
3500.00000	108.37427	-203.14722	108.37427
3550.00000	110.27411	-207.53734	110.27411
3600.00000	111.97364	-212.20209	111.97364
3650.00000	113.32802	-217.94552	113.32802
3700.00000	114.59194	-223.64563	114.59194
3750.00000	115.86495	-229.83393	115.86495
3800.00000	116.92484	-237.06592	116.92484
3850.00000	117.82441	-244.35308	117.82441
3900.00000	118.65981	-251.30238	118.65981
3950.00000	119.51245	-258.34276	119.51245
4000.00000	120.25582	-265.98169	120.25582
4050.00000	120.98529	-273.38088	120.98529
4100.00000	121.75676	-280.95829	121.75676
4150.00000	122.68462	-289.62412	122.68462
4200.00000	123.29466	-299.91841	123.29466
4250.00000	123.84000	-310.97149	123.84000
4300.00000	124.14675	-322.62170	124.14675
4350.00000	124.15933	-334.49476	124.15933
4400.00000	123.95852	-345.32213	123.95852
4450.00000	123.61477	-355.40218	123.61477
4500.00000	123.21931	-364.39609	123.21931
4550.00000	122.80942	-372.93287	122.80942
4600.00000	122.35458	-381.01578	122.35458
4650.00000	121.93591	-388.67118	121.93591
4700.00000	121.47179	-396.77621	121.47179
4750.00000	120.88680	-405.17492	120.88680
4800.00000	120.09856	-413.55174	120.09856
4850.00000	119.03536	-421.21938	119.03536
4900.00000	117.75461	-427.02068	117.75461
4950.00000	116.42361	-430.17387	116.42361
5000.00000	115.18746	-431.01806	115.18746
5050.00000	114.13957	-430.80827	114.13957
5100.00000	112.96953	-427.27797	112.96953
5150.00000	112.93889	-421.67845	112.93889
5200.00000	112.32982	-417.53588	112.32982
5250.00000	113.83929	-407.29273	113.83929
5300.00000	115.77889	-416.73460	115.77889
5350.00000	115.72783	-428.21890	115.72783
5400.00000	115.15742	-434.67675	115.15742
5450.00000	114.64894	-438.34133	114.64894
5500.00000	114.28694	-441.24340	114.28694
5550.00000	114.00962	-443.69607	114.00962
5600.00000	113.75998	-446.01742	113.75998
5650.00000	113.56574	-448.34861	113.56574
5700.00000	113.39426	-450.69368	113.39426
5750.00000	113.25225	-452.97872	113.25225
5800.00000	113.09049	-455.29039	113.09049
5850.00000	112.96043	-457.55840	112.96043
5900.00000	112.86001	-459.82497	112.86001
5950.00000	112.76702	-462.06117	112.76702
6000.00000	112.70416	-464.15009	112.70416
6050.00000	112.64170	-466.29827	112.64170
6100.00000	112.65088	-468.75023	112.65088
6150.00000	112.62003	-471.60475	112.62003
6200.00000	112.58588	-474.26035	112.58588
6250.00000	112.54121	-477.12744	112.54121
6300.00000	112.49659	-479.87485	112.49659
6350.00000	112.40845	-482.74604	112.40845
6400.00000	112.33445	-485.61816	112.33445
6450.00000	112.27382	-488.42100	112.27382
6500.00000	112.21844	-491.42118	112.21844
6550.00000	112.13106	-494.00463	112.13106
6600.00000	112.06071	-496.65231	112.06071
6650.00000	112.02806	-499.27452	112.02806
6700.00000	111.95270	-502.37947	111.95270
6750.00000	111.90957	-505.21501	111.90957
6800.00000	111.85314	-507.86478	111.85314
6850.00000	111.81549	-510.60984	111.81549
6900.00000	111.77011	-513.59983	111.77011
6950.00000	111.73849	-516.39579	111.73849
7000.00000	111.69876	-519.07570	111.69876
7050.00000	111.65899	-522.47094	111.65899
7100.00000	111.62306	-525.59445	111.62306
7150.00000	111.61386	-528.43210	111.61386
7200.00000	111.55978	-531.76884	111.55978
7250.00000	111.52094	-535.23280	111.52094
7300.00000	111.45892	-538.68613	111.45892
7350.00000	111.39352	-542.14592	111.39352
7400.00000	111.34186	-545.74565	111.34186
7450.00000	111.25230	-549.50973	111.25230
7500.00000	111.15199	-553.02079	111.15199
7550.00000	111.04401	-556.84362	111.04401
7600.00000	110.89650	-560.69782	110.89650
7650.00000	110.72668	-564.30376	110.72668
7700.00000	110.59623	-568.25877	110.59623
7750.00000	110.33344	-572.00802	110.33344
7800.00000	110.11649	-575.57968	110.11649
7850.00000	109.84625	-579.08371	109.84625
7900.00000	109.62908	-582.42675	109.62908
7950.00000	109.36932	-585.85750	109.36932
8000.00000	109.06304	-589.22209	109.06304
8050.00000	108.76293	-592.63928	108.76293
8100.00000	108.48470	-595.30022	108.48470
8150.00000	108.12154	-597.97055	108.12154
8200.00000	107.78969	-600.08912	107.78969
8250.00000	107.43133	-602.95840	107.43133
8300.00000	107.12462	-604.97337	107.12462
8350.00000	106.77358	-607.08011	106.77358
8400.00000	106.45204	-609.48171	106.45204
8450.00000	106.08563	-611.35166	106.08563
8500.00000	105.75493	-613.62933	105.75493
8550.00000	105.59959	-615.56241	105.59959
8600.00000	105.32712	-617.79202	105.32712
8650.00000	105.11398	-619.61674	105.11398
8700.00000	104.96726	-622.28036	104.96726
8750.00000	104.71444	-623.38276	104.71444
8800.00000	104.55522	-625.48354	104.55522
8850.00000	104.31038	-627.19799	104.31038
8900.00000	104.11163	-628.49941	104.11163
8950.00000	103.91722	-630.56135	103.91722
9000.00000	103.57164	-632.28500	103.57164
9050.00000	103.33613	-634.60818	103.33613
9100.00000	103.06251	-636.18863	103.06251
9150.00000	102.85651	-638.45074	102.85651
9200.00000	102.67072	-641.29659	102.67072
9250.00000	102.46399	-643.57069	102.46399
9300.00000	102.37087	-646.12207	102.37087
9350.00000	102.24086	-648.26081	102.24086
9400.00000	102.03047	-649.67666	102.03047
9450.00000	101.96122	-650.92568	101.96122
9500.00000	101.89656	-651.08543	101.89656
9550.00000	101.86028	-651.30737	101.86028
9600.00000	101.80980	-653.31260	101.80980
9650.00000	101.58669	-654.97519	101.58669
9700.00000	101.41038	-655.90492	101.41038
9750.00000	101.25483	-658.33300	101.25483
9800.00000	101.04854	-659.93612	101.04854
9850.00000	100.91140	-661.83341	100.91140
9900.00000	100.67313	-664.14224	100.67313
9950.00000	100.64503	-665.16073	100.64503
10000.00000	100.62734	-667.58930	100.62734
10050.00000	100.55418	-668.74154	100.55418
10100.00000	100.47465	-669.98070	100.47465
10150.00000	100.26730	-671.69894	100.26730
10200.00000	100.11351	-673.03876	100.11351
10250.00000	99.93346	-674.86570	99.93346
10300.00000	99.85998	-676.95700	99.85998
10350.00000	99.67296	-678.75246	99.67296
10400.00000	99.49325	-681.52696	99.49325
10450.00000	99.46748	-684.43194	99.46748
10500.00000	99.51886	-686.73801	99.51886
10550.00000	99.48178	-689.25503	99.48178
10600.00000	99.39666	-691.17985	99.39666
10650.00000	99.32937	-692.89968	99.32937
10700.00000	99.29050	-695.64353	99.29050
10750.00000	99.19914	-697.82204	99.19914
10800.00000	98.98064	-699.81868	98.98064
10850.00000	98.83360	-702.94663	98.83360
10900.00000	98.67637	-705.35475	98.67637
10950.00000	98.49964	-707.60914	98.49964
11000.00000	98.36475	-709.85950	98.36475
11050.00000	98.06895	-712.39442	98.06895
11100.00000	97.87471	-715.01044	97.87471
11150.00000	97.60194	-716.93656	97.60194
11200.00000	97.41549	-718.81150	97.41549
11250.00000	97.08995	-721.00220	97.08995
11300.00000	96.73857	-723.30307	96.73857
11350.00000	96.43778	-724.91850	96.43778
11400.00000	96.09269	-726.74324	96.09269
11450.00000	95.88925	-728.70717	95.88925
11500.00000	95.71859	-729.82822	95.71859
11550.00000	95.36985	-730.99378	95.36985
11600.00000	95.25081	-732.96461	95.25081
11650.00000	95.04810	-733.20583	95.04810
11700.00000	94.86885	-734.31685	94.86885
11750.00000	94.68020	-735.27646	94.68020
11800.00000	94.48654	-737.06643	94.48654
11850.00000	94.43125	-737.32127	94.43125
11900.00000	94.08860	-739.05211	94.08860
11950.00000	93.99956	-739.83716	93.99956
12000.00000	93.74387	-740.24934	93.74387
12050.00000	93.54076	-741.18405	93.54076
12100.00000	93.39339	-743.18380	93.39339
12150.00000	93.23746	-744.33715	93.23746
12200.00000	93.26355	-745.96178	93.26355
12250.00000	93.16906	-746.87579	93.16906
12300.00000	94.31839	-748.83204	94.31839
12350.00000	93.09502	-750.12819	93.09502
12400.00000	93.06664	-750.38209	93.06664
12450.00000	92.86604	-751.61809	92.86604
12500.00000	92.84199	-753.54680	92.84199
12550.00000	92.66180	-754.65511	92.66180
12600.00000	92.46001	-757.71542	92.46001
12650.00000	92.49766	-759.42289	92.49766
12700.00000	92.34112	-762.01502	92.34112
12750.00000	92.10094	-764.67213	92.10094
12800.00000	91.98527	-766.31365	91.98527
12850.00000	91.46342	-768.24378	91.46342
12900.00000	91.37249	-769.85024	91.37249
12950.00000	91.03494	-772.71409	91.03494
13000.00000	90.68357	-774.58041	90.68357
13050.00000	90.47190	-774.18654	90.47190
13100.00000	90.12012	-777.76049	90.12012
13150.00000	89.76318	-778.90122	89.76318
13200.00000	89.40330	-778.71847	89.40330
13250.00000	88.93688	-779.54590	88.93688
13300.00000	88.79469	-778.84219	88.79469
13350.00000	88.39652	-780.23629	88.39652
13400.00000	88.24453	-781.04348	88.24453
13450.00000	87.57445	-779.72627	87.57445
13500.00000	87.73430	-778.71170	87.73430
13550.00000	86.93196	-777.69076	86.93196
13600.00000	86.75874	-777.06562	86.75874
13650.00000	86.55292	-776.97808	86.55292
13700.00000	86.11685	-777.83079	86.11685
13750.00000	85.91083	-777.48019	85.91083
13800.00000	85.67814	-778.12718	85.67814
13850.00000	85.55813	-777.39672	85.55813
13900.00000	85.43627	-776.96480	85.43627
13950.00000	85.28874	-774.33132	85.28874
14000.00000	85.40466	-771.58604	85.40466
14050.00000	85.13564	-773.28012	85.13564
14100.00000	84.90666	-772.17617	84.90666
14150.00000	84.82899	-771.57106	84.82899
14200.00000	85.09595	-769.78416	85.09595
14250.00000	85.42376	-765.93497	85.42376
14300.00000	85.21730	-764.20798	85.21730
14350.00000	85.29770	-762.35174	85.29770
14400.00000	85.05028	-761.82820	85.05028
14450.00000	84.93373	-760.13955	84.93373
14500.00000	84.80192	-761.48519	84.80192
14550.00000	85.36989	-759.83130	85.36989
14600.00000	85.36998	-760.84977	85.36998
14650.00000	85.67840	-755.40858	85.67840
14700.00000	85.58735	-759.95597	85.58735
14750.00000	85.75901	-757.98964	85.75901
14800.00000	85.87985	-755.20879	85.87985
14850.00000	86.08419	-754.56363	86.08419
14900.00000	86.55278	-754.22333	86.55278
14950.00000	86.81396	-753.80624	86.81396
15000.00000	87.01847	-754.33367	87.01847
15050.00000	87.30121	-750.41136	87.30121
15100.00000	87.31474	-750.76490	87.31474
15150.00000	87.68468	-750.55597	87.68468
15200.00000	87.88578	-749.08679	87.88578
15250.00000	88.10853	-750.31246	88.10853
15300.00000	88.71454	-750.45600	88.71454
15350.00000	89.06791	-750.29451	89.06791
15400.00000	89.26987	-748.53518	89.26987
15450.00000	89.55429	-749.77073	89.55429
15500.00000	90.02478	-749.61624	90.02478
15550.00000	90.43062	-749.74973	90.43062
15600.00000	90.74462	-751.76143	90.74462
15650.00000	91.28937	-750.85318	91.28937
15700.00000	91.57850	-751.58952	91.57850
15750.00000	92.15651	-750.93669	92.15651
15800.00000	92.56322	-751.24234	92.56322
15850.00000	92.87959	-751.72587	92.87959
15900.00000	93.16770	-753.04896	93.16770
15950.00000	93.64751	-755.23166	93.64751
16000.00000	94.16075	-756.37308	94.16075
16050.00000	94.68104	-757.41749	94.68104
16100.00000	95.03645	-758.43235	95.03645
16150.00000	95.33508	-760.37980	95.33508
16200.00000	95.81880	-763.11389	95.81880
16250.00000	96.24754	-765.22851	96.24754
16300.00000	96.81165	-766.87378	96.81165
16350.00000	97.28451	-769.16211	97.28451
16400.00000	97.62373	-771.00358	97.62373
16450.00000	97.96640	-772.98882	97.96640
16500.00000	98.36241	-775.67693	98.36241
16550.00000	98.82428	-779.19325	98.82428
16600.00000	99.19008	-782.14813	99.19008
16650.00000	99.49382	-784.69553	99.49382
16700.00000	99.79880	-787.14245	99.79880
16750.00000	99.98430	-790.37444	99.98430
16800.00000	100.35914	-793.86416	100.35914
16850.00000	100.73114	-796.79401	100.73114
16900.00000	101.00901	-800.11258	101.00901
16950.00000	101.27371	-803.39379	101.27371
17000.00000	101.42608	-806.84699	101.42608
17050.00000	101.67407	-809.33027	101.67407
17100.00000	101.80076	-811.64767	101.80076
17150.00000	102.12677	-815.75326	102.12677
17200.00000	102.25078	-818.91926	102.25078
17250.00000	102.38706	-822.55348	102.38706
17300.00000	102.64394	-825.43882	102.64394
17350.00000	102.63170	-827.95640	102.63170
17400.00000	102.85885	-831.15019	102.85885
17450.00000	102.92022	-834.71381	102.92022
17500.00000	103.09754	-837.75149	103.09754
17550.00000	103.26117	-840.64937	103.26117
17600.00000	103.48594	-843.16803	103.48594
17650.00000	103.61028	-847.02678	103.61028
17700.00000	103.69660	-850.22192	103.69660
17750.00000	103.92038	-852.64377	103.92038
17800.00000	103.93117	-856.44016	103.93117
17850.00000	104.11782	-858.93490	104.11782
17900.00000	104.18546	-862.05728	104.18546
17950.00000	104.38548	-865.52419	104.38548
18000.00000	104.45295	-869.35923	104.45295
18050.00000	104.68540	-872.02776	104.68540
18100.00000	104.70534	-875.78410	104.70534
18150.00000	104.81413	-878.40226	104.81413
18200.00000	104.83037	-882.46425	104.83037
18250.00000	104.95577	-884.75763	104.95577
18300.00000	105.08891	-887.83663	105.08891
18350.00000	105.13579	-891.23304	105.13579
18400.00000	105.17474	-894.59690	105.17474
18450.00000	105.19532	-899.13825	105.19532
18500.00000	105.28214	-902.12938	105.28214
18550.00000	105.30241	-904.90268	105.30241
18600.00000	105.45400	-908.40572	105.45400
18650.00000	105.32916	-911.61438	105.32916
18700.00000	105.36626	-915.34599	105.36626
18750.00000	105.42391	-918.56862	105.42391
18800.00000	105.56456	-921.31971	105.56456
18850.00000	105.42194	-924.77286	105.42194
18900.00000	105.40563	-927.81784	105.40563
18950.00000	105.44009	-931.57026	105.44009
19000.00000	105.29928	-934.27965	105.29928
19050.00000	105.43149	-937.64723	105.43149
19100.00000	105.34125	-940.55086	105.34125
19150.00000	105.45174	-943.47762	105.45174
19200.00000	105.40174	-946.40336	105.40174
19250.00000	105.34747	-950.55625	105.34747
19300.00000	105.28530	-952.96470	105.28530
19350.00000	105.25334	-956.05125	105.25334
19400.00000	105.19577	-958.85342	105.19577
19450.00000	105.26692	-961.42183	105.26692
19500.00000	105.12977	-965.15928	105.12977
19550.00000	105.11744	-968.10644	105.11744
19600.00000	105.12707	-971.66487	105.12707
19650.00000	105.04620	-974.14882	105.04620
19700.00000	104.88331	-977.27418	104.88331
19750.00000	104.81154	-979.61245	104.81154
19800.00000	104.82533	-983.33234	104.82533
19850.00000	104.78770	-986.02265	104.78770
19900.00000	104.65932	-989.65364	104.65932
19950.00000	104.55405	-992.39427	104.55405
20000.00000	104.46816	-995.28675	104.46816
20050.00000	104.40505	-998.20136	104.40505
20100.00000	104.19482	-1001.07541	104.19482
20150.00000	104.15892	-1002.94501	104.15892
20200.00000	103.99104	-1006.41838	103.99104
20250.00000	103.85531	-1008.99769	103.85531
20300.00000	103.62007	-1011.59512	103.62007
20350.00000	103.53982	-1014.32224	103.53982
20400.00000	103.34346	-1016.05732	103.34346
20450.00000	103.10584	-1018.45257	103.10584
20500.00000	103.00574	-1020.97103	103.00574
20550.00000	102.61458	-1022.43577	102.61458
20600.00000	102.53764	-1024.16096	102.53764
20650.00000	102.36840	-1025.74615	102.36840
20700.00000	102.14854	-1027.19331	102.14854
20750.00000	102.04230	-1028.68436	102.04230
20800.00000	101.86468	-1029.44395	101.86468
20850.00000	101.79806	-1030.61577	101.79806
20900.00000	101.64891	-1031.51237	101.64891
20950.00000	101.56577	-1031.85826	101.56577
21000.00000	101.52727	-1032.29614	101.52727
21050.00000	101.66772	-1032.62117	101.66772
21100.00000	101.71016	-1033.02077	101.71016
21150.00000	101.88718	-1033.95808	101.88718
21200.00000	102.06563	-1034.56244	102.06563
21250.00000	102.22119	-1036.85827	102.22119
21300.00000	102.46742	-1037.83893	102.46742
21350.00000	102.63432	-1039.41560	102.63432
21400.00000	102.81140	-1041.85524	102.81140
21450.00000	103.00564	-1044.22655	103.00564
21500.00000	103.18109	-1047.14718	103.18109
21550.00000	103.22354	-1049.45888	103.22354
21600.00000	103.39130	-1052.39099	103.39130
21650.00000	103.42703	-1055.68245	103.42703
21700.00000	103.46847	-1058.13312	103.46847
21750.00000	103.51294	-1061.02920	103.51294
21800.00000	103.51221	-1064.03568	103.51221
21850.00000	103.43847	-1066.64218	103.43847
21900.00000	103.41913	-1069.35284	103.41913
21950.00000	103.34660	-1071.90462	103.34660
22000.00000	103.35787	-1074.24639	103.35787
22050.00000	103.26878	-1076.47611	103.26878
22100.00000	103.18053	-1078.96064	103.18053
22150.00000	103.06788	-1081.01155	103.06788
22200.00000	103.14275	-1083.22272	103.14275
22250.00000	103.02112	-1084.97862	103.02112
22300.00000	102.87769	-1087.13359	102.87769
22350.00000	102.92465	-1089.54140	102.92465
22400.00000	102.93513	-1091.80978	102.93513
22450.00000	102.82456	-1093.74534	102.82456
22500.00000	102.70981	-1094.77503	102.70981
22550.00000	102.67507	-1097.21279	102.67507
22600.00000	102.59202	-1099.84784	102.59202
22650.00000	102.59006	-1101.92770	102.59006
22700.00000	102.51978	-1103.77895	102.51978
22750.00000	102.47141	-1103.39720	102.47141
22800.00000	102.47330	-1107.94975	102.47330
22850.00000	102.51461	-1110.69405	102.51461
22900.00000	102.41411	-1111.40132	102.41411
22950.00000	102.40947	-1113.76429	102.40947
23000.00000	102.35853	-1114.60855	102.35853
23050.00000	102.25857	-1117.25966	102.25857
23100.00000	102.33228	-1118.80841	102.33228
23150.00000	102.16142	-1119.77357	102.16142
23200.00000	102.25922	-1123.07328	102.25922
23250.00000	102.01799	-1125.92784	102.01799
23300.00000	102.27096	-1128.37073	102.27096
23350.00000	101.92193	-1130.15551	101.92193
23400.00000	101.88795	-1132.07530	101.88795
23450.00000	101.96977	-1134.18152	101.96977
23500.00000	101.79999	-1135.41711	101.79999
23550.00000	101.64337	-1135.53187	101.64337
23600.00000	101.57567	-1139.87441	101.57567
23650.00000	101.59553	-1140.92060	101.59553
23700.00000	101.72589	-1145.09255	101.72589
23750.00000	101.55056	-1145.73240	101.55056
23800.00000	101.26863	-1146.15412	101.26863
23850.00000	101.30389	-1147.29679	101.30389
23900.00000	101.60357	-1150.18794	101.60357
23950.00000	101.27643	-1152.11397	101.27643
24000.00000	101.02715	-1155.68089	101.02715
24050.00000	101.24139	-1155.37311	101.24139
24100.00000	101.50245	-1159.04928	101.50245
24150.00000	101.32467	-1160.76479	101.32467
24200.00000	101.30862	-1163.44697	101.30862
24250.00000	100.95887	-1163.40907	100.95887
24300.00000	101.22963	-1166.48982	101.22963
24350.00000	101.09394	-1168.25263	101.09394
24400.00000	101.06312	-1170.76782	101.06312
24450.00000	100.69706	-1171.92028	100.69706
24500.00000	101.19396	-1173.36684	101.19396
24550.00000	101.03383	-1178.46369	101.03383
24600.00000	101.50947	-1177.92684	101.50947
24650.00000	101.20054	-822.34396	101.20054
24700.00000	101.00799	-821.27769	101.00799
24750.00000	101.10971	-465.95816	101.10971
24800.00000	101.07075	-108.30594	101.07075
24850.00000	100.63631	251.01195	100.63631
24900.00000	100.67604	609.52481	100.67604
24950.00000	100.95415	966.74138	100.95415
25000.00000	100.53873	958.27324	100.53873
25050.00000	101.07086	958.43725	101.07086
25100.00000	100.49976	956.86128	100.49976
25150.00000	100.78921	957.93365	100.78921
25200.00000	100.53493	953.17207	100.53493
25250.00000	100.70996	951.90995	100.70996
25300.00000	100.83900	951.56353	100.83900
25350.00000	100.71748	945.30785	100.71748
25400.00000	100.75780	942.56481	100.75780
25450.00000	100.65861	941.52442	100.65861
25500.00000	100.50976	939.14503	100.50976
25550.00000	100.60243	937.06221	100.60243
25600.00000	100.55624	934.44906	100.55624
25650.00000	100.49151	932.59008	100.49151
25700.00000	100.61880	930.57988	100.61880
25750.00000	100.38392	927.62745	100.38392
25800.00000	100.35166	924.49681	100.35166
25850.00000	100.33467	922.57788	100.33467
25900.00000	100.23280	918.95048	100.23280
25950.00000	99.96646	921.01290	99.96646
26000.00000	100.04966	916.71911	100.04966
26050.00000	100.04630	914.80024	100.04630
26100.00000	99.91652	912.36097	99.91652
26150.00000	99.84281	910.32443	99.84281
26200.00000	100.04240	907.77600	100.04240
26250.00000	99.88150	906.14376	99.88150
26300.00000	99.97580	903.40627	99.97580
26350.00000	99.44945	903.02560	99.44945
26400.00000	99.59886	900.30690	99.59886
26450.00000	99.84624	897.49396	99.84624
26500.00000	99.61233	895.59852	99.61233
26550.00000	99.50369	890.35360	99.50369
26600.00000	99.47199	888.72611	99.47199
26650.00000	99.44152	889.19892	99.44152
26700.00000	99.51105	886.56306	99.51105
26750.00000	99.21097	884.41991	99.21097
26800.00000	99.30115	880.02518	99.30115
26850.00000	99.55043	880.04234	99.55043
26900.00000	99.55706	879.52553	99.55706
26950.00000	99.40045	875.94858	99.40045
27000.00000	99.14066	875.08396	99.14066
27050.00000	99.41605	871.92555	99.41605
27100.00000	99.05564	871.44565	99.05564
27150.00000	99.08449	868.08729	99.08449
27200.00000	99.36118	867.07741	99.36118
27250.00000	98.95194	866.54048	98.95194
27300.00000	98.65763	863.17572	98.65763
27350.00000	98.95740	862.45855	98.95740
27400.00000	98.53674	860.52360	98.53674
27450.00000	98.52149	858.91760	98.52149
27500.00000	98.58888	857.35978	98.58888
27550.00000	98.52808	855.91245	98.52808
27600.00000	98.89499	852.40797	98.89499
27650.00000	98.37573	853.81202	98.37573
27700.00000	98.44175	848.71940	98.44175
27750.00000	98.58201	846.99317	98.58201
27800.00000	98.56855	843.41664	98.56855
27850.00000	98.80063	845.55595	98.80063
27900.00000	98.42563	844.02559	98.42563
27950.00000	97.88879	842.08354	97.88879
28000.00000	98.06595	841.69661	98.06595
28050.00000	98.67104	838.67362	98.67104
28100.00000	98.02126	838.04462	98.02126
28150.00000	98.17178	837.48984	98.17178
28200.00000	98.29218	832.82810	98.29218
28250.00000	97.98881	830.71801	97.98881
28300.00000	97.86406	831.98593	97.86406
28350.00000	98.15586	830.77763	98.15586
28400.00000	97.99012	831.79976	97.99012
28450.00000	98.61354	828.01938	98.61354
28500.00000	98.18040	827.92783	98.18040
28550.00000	98.08503	828.71232	98.08503
28600.00000	98.25537	826.54358	98.25537
28650.00000	98.51747	822.62174	98.51747
28700.00000	98.50286	824.35281	98.50286
28750.00000	98.95433	823.66187	98.95433
28800.00000	98.96751	822.21108	98.96751
28850.00000	98.49201	817.54337	98.49201
28900.00000	98.72382	816.78623	98.72382
28950.00000	98.75850	816.47585	98.75850
29000.00000	99.00295	814.45112	99.00295
29050.00000	98.75593	815.36558	98.75593
29100.00000	98.76645	814.59933	98.76645
29150.00000	98.75083	812.75362	98.75083
29200.00000	98.72794	809.78274	98.72794
29250.00000	99.22608	809.18864	99.22608
29300.00000	98.99250	805.95204	98.99250
29350.00000	99.39060	804.35966	99.39060
29400.00000	99.20507	803.94524	99.20507
29450.00000	99.30382	801.61232	99.30382
29500.00000	99.56393	801.45907	99.56393
29550.00000	99.43093	796.63787	99.43093
29600.00000	99.29688	796.56619	99.29688
29650.00000	99.51497	794.24848	99.51497
29700.00000	99.33094	794.95886	99.33094
29750.00000	99.28743	794.06620	99.28743
29800.00000	99.16899	791.46514	99.16899
29850.00000	99.22104	789.07211	99.22104
29900.00000	99.46255	789.54886	99.46255
29950.00000	98.74958	789.12488	98.74958
30000.00000	99.10210	789.31527	99.10210
30050.00000	99.20553	786.65769	99.20553
30100.00000	98.85839	787.10931	98.85839
30150.00000	99.06833	784.42715	99.06833
30200.00000	99.02408	782.83828	99.02408
30250.00000	98.80107	783.31814	98.80107
30300.00000	98.61938	783.98365	98.61938
30350.00000	98.74877	785.49547	98.74877
30400.00000	98.74733	783.68730	98.74733
30450.00000	98.55465	783.79157	98.55465
30500.00000	98.62692	783.02183	98.62692
30550.00000	98.57642	784.79573	98.57642
30600.00000	98.63881	785.93397	98.63881
30650.00000	98.75960	786.40932	98.75960
30700.00000	98.93626	785.57470	98.93626
30750.00000	98.94358	787.72524	98.94358
30800.00000	99.15118	787.92277	99.15118
30850.00000	99.42614	789.95097	99.42614
30900.00000	99.54286	792.15959	99.54286
30950.00000	100.05344	791.24083	100.05344
31000.00000	100.44057	791.02094	100.44057
31050.00000	100.88894	791.86587	100.88894
31100.00000	101.49546	792.97744	101.49546
31150.00000	101.67813	792.23049	101.67813
31200.00000	102.55030	790.93813	102.55030
31250.00000	103.02359	790.39011	103.02359
31300.00000	103.54011	788.90899	103.54011
31350.00000	104.19816	787.70362	104.19816
31400.00000	104.54338	784.50652	104.54338
31450.00000	105.17195	782.41354	105.17195
31500.00000	105.62681	778.68825	105.62681
31550.00000	106.12169	776.05921	106.12169
31600.00000	106.70423	771.82711	106.70423
31650.00000	107.04316	768.33558	107.04316
31700.00000	107.47778	765.16996	107.47778
31750.00000	107.90106	762.17207	107.90106
31800.00000	108.16846	757.20673	108.16846
31850.00000	108.51237	752.50933	108.51237
31900.00000	108.62380	749.05825	108.62380
31950.00000	108.94706	744.92546	108.94706
32000.00000	109.18427	740.56358	109.18427
32050.00000	109.36038	736.74777	109.36038
32100.00000	109.48066	731.81755	109.48066
32150.00000	109.65414	728.72854	109.65414
32200.00000	109.80878	723.95132	109.80878
32250.00000	109.88565	719.54611	109.88565
32300.00000	109.92586	716.05980	109.92586
32350.00000	109.99108	712.63250	109.99108
32400.00000	110.12857	709.00216	110.12857
32450.00000	110.07166	704.88697	110.07166
32500.00000	110.21926	701.96640	110.21926
32550.00000	110.30907	697.22018	110.30907
32600.00000	110.19847	694.36758	110.19847
32650.00000	110.36539	690.58131	110.36539
32700.00000	110.19188	686.96571	110.19188
32750.00000	110.29306	683.41676	110.29306
32800.00000	110.47609	680.85319	110.47609
32850.00000	110.49217	676.76696	110.49217
32900.00000	110.41567	673.00840	110.41567
32950.00000	110.30584	668.91216	110.30584
33000.00000	110.29238	667.56350	110.29238
33050.00000	110.27255	663.08135	110.27255
33100.00000	110.35760	660.34393	110.35760
33150.00000	110.32094	657.51896	110.32094
33200.00000	110.41822	655.76232	110.41822
33250.00000	110.25651	652.73383	110.25651
33300.00000	110.30368	648.93443	110.30368
33350.00000	110.14740	645.66444	110.14740
33400.00000	110.18602	643.64224	110.18602
33450.00000	110.21997	640.05404	110.21997
33500.00000	110.36466	639.27295	110.36466
33550.00000	110.08549	634.49610	110.08549
33600.00000	110.34154	632.56055	110.34154
33650.00000	110.30095	629.29677	110.30095
33700.00000	110.25904	627.51322	110.25904
33750.00000	110.09978	624.60929	110.09978
33800.00000	110.23438	622.05257	110.23438
33850.00000	109.99323	619.87794	109.99323
33900.00000	110.26869	617.05572	110.26869
33950.00000	110.17718	615.10928	110.17718
34000.00000	110.25109	612.28488	110.25109
34050.00000	110.19826	610.40160	110.19826
34100.00000	110.09073	608.67233	110.09073
34150.00000	110.28412	605.42906	110.28412
34200.00000	110.25971	605.59780	110.25971
34250.00000	110.36414	601.92984	110.36414
34300.00000	110.31505	599.34568	110.31505
34350.00000	110.54668	597.19581	110.54668
34400.00000	110.27725	596.13480	110.27725
34450.00000	110.37618	591.09186	110.37618
34500.00000	110.30662	590.23371	110.30662
34550.00000	110.50037	588.87000	110.50037
34600.00000	110.25485	585.66891	110.25485
34650.00000	110.70442	586.02834	110.70442
34700.00000	110.28151	584.87031	110.28151
34750.00000	110.62941	578.48426	110.62941
34800.00000	110.78269	579.64815	110.78269
34850.00000	110.92177	579.13729	110.92177
34900.00000	111.18372	575.05545	111.18372
34950.00000	111.10692	574.42031	111.10692
35000.00000	111.15455	571.34067	111.15455
35050.00000	111.40346	570.81559	111.40346
35100.00000	111.54719	568.13650	111.54719
35150.00000	111.48137	567.10111	111.48137
35200.00000	111.61948	563.77530	111.61948
35250.00000	111.76534	561.76797	111.76534
35300.00000	112.00246	559.34555	112.00246
35350.00000	112.26918	557.21607	112.26918
35400.00000	112.23852	554.39804	112.23852
35450.00000	112.46155	553.09223	112.46155
35500.00000	112.26901	551.32422	112.26901
35550.00000	112.68017	550.04930	112.68017
35600.00000	112.72340	546.79877	112.72340
35650.00000	112.91314	544.57953	112.91314
35700.00000	113.04119	542.73526	113.04119
35750.00000	113.06893	541.56541	113.06893
35800.00000	113.33626	540.67364	113.33626
35850.00000	113.60437	536.56072	113.60437
35900.00000	113.81308	534.66328	113.81308
35950.00000	114.07558	532.23573	114.07558
36000.00000	114.14995	530.05147	114.14995
36050.00000	114.40516	527.61577	114.40516
36100.00000	114.72915	525.19044	114.72915
36150.00000	114.74594	522.76595	114.74594
36200.00000	114.97689	520.69466	114.97689
36250.00000	115.14582	517.46520	115.14582
36300.00000	115.24355	515.09261	115.24355
36350.00000	115.62800	512.36603	115.62800
36400.00000	115.84248	509.82083	115.84248
36450.00000	115.81197	506.57653	115.81197
36500.00000	116.29882	504.69940	116.29882
36550.00000	116.27448	499.73277	116.27448
36600.00000	116.47609	497.05526	116.47609
36650.00000	116.72270	494.24278	116.72270
36700.00000	116.92220	490.42333	116.92220
36750.00000	117.07260	487.09726	117.07260
36800.00000	117.14363	484.07127	117.14363
36850.00000	117.14602	479.92989	117.14602
36900.00000	117.52168	476.60245	117.52168
36950.00000	117.39290	472.92908	117.39290
37000.00000	117.27607	469.86718	117.27607
37050.00000	117.29721	467.14514	117.29721
37100.00000	117.53376	462.39579	117.53376
37150.00000	117.62116	458.27798	117.62116
37200.00000	117.77651	456.14319	117.77651
37250.00000	117.47019	452.07263	117.47019
37300.00000	117.44253	448.79550	117.44253
37350.00000	117.69197	445.64107	117.69197
37400.00000	117.45910	443.14660	117.45910
37450.00000	117.38151	440.28059	117.38151
37500.00000	117.66870	436.42325	117.66870
37550.00000	117.33218	434.24503	117.33218
37600.00000	117.37965	431.99488	117.37965
37650.00000	117.30856	428.99815	117.30856
37700.00000	117.41135	425.24502	117.41135
37750.00000	117.43245	423.49928	117.43245
37800.00000	117.32747	420.18670	117.32747
37850.00000	117.31272	416.72485	117.31272
37900.00000	117.33961	414.94027	117.33961
37950.00000	117.44056	412.36365	117.44056
38000.00000	117.30135	410.22419	117.30135
38050.00000	117.43602	407.39236	117.43602
38100.00000	117.61199	404.69129	117.61199
38150.00000	117.50917	401.68348	117.50917
38200.00000	117.73235	397.98764	117.73235
38250.00000	117.76241	395.96597	117.76241
38300.00000	117.96390	392.34651	117.96390
38350.00000	117.99660	390.16398	117.99660
38400.00000	118.10537	387.18556	118.10537
38450.00000	118.27295	383.08522	118.27295
38500.00000	118.41666	379.96272	118.41666
38550.00000	118.65340	377.07138	118.65340
38600.00000	118.82152	373.32699	118.82152
38650.00000	118.96818	369.41364	118.96818
38700.00000	119.09447	365.54131	119.09447
38750.00000	119.29789	362.04253	119.29789
38800.00000	119.49904	357.76047	119.49904
38850.00000	119.62178	353.25224	119.62178
38900.00000	119.76135	348.61075	119.76135
38950.00000	119.89617	343.89965	119.89617
39000.00000	120.00021	339.25554	120.00021
39050.00000	120.14954	334.32255	120.14954
39100.00000	120.10716	329.36080	120.10716
39150.00000	120.10623	324.22660	120.10623
39200.00000	120.17136	319.10479	120.17136
39250.00000	120.13314	313.79191	120.13314
39300.00000	120.08799	308.10063	120.08799
39350.00000	119.96704	303.42227	119.96704
39400.00000	119.78845	297.59755	119.78845
39450.00000	119.58175	293.00346	119.58175
39500.00000	119.43452	287.80186	119.43452
39550.00000	119.14013	282.72072	119.14013
39600.00000	118.79905	278.31400	118.79905
39650.00000	118.54373	274.23232	118.54373
39700.00000	118.23912	269.86442	118.23912
39750.00000	117.93634	265.19123	117.93634
39800.00000	117.60553	261.38730	117.60553
39850.00000	117.19659	257.49340	117.19659
39900.00000	116.89137	254.09639	116.89137
39950.00000	116.52077	250.87247	116.52077
40000.00000	116.04616	248.58494	116.04616
40050.00000	115.74499	244.56439	115.74499
40100.00000	115.45959	241.54848	115.45959
40150.00000	115.04392	238.84944	115.04392
40200.00000	114.71591	236.10717	114.71591
40250.00000	114.37159	234.22971	114.37159
40300.00000	114.13029	232.11597	114.13029
40350.00000	113.63222	229.97257	113.63222
40400.00000	113.31139	228.04904	113.31139
40450.00000	112.97954	226.32050	112.97954
40500.00000	112.84091	225.29926	112.84091
40550.00000	112.52882	223.14843	112.52882
40600.00000	112.23456	221.96231	112.23456
40650.00000	111.98900	221.17050	111.98900
40700.00000	111.54545	220.42201	111.54545
40750.00000	111.61205	219.02467	111.61205
40800.00000	111.36729	218.01618	111.36729
40850.00000	111.07655	217.48784	111.07655
40900.00000	110.92691	215.78415	110.92691
40950.00000	110.71304	216.25538	110.71304
41000.00000	110.32900	216.03725	110.32900
41050.00000	110.48677	215.80549	110.48677
41100.00000	110.46084	214.63219	110.46084
41150.00000	110.43115	215.35188	110.43115
41200.00000	110.41478	214.16998	110.41478
41250.00000	110.37161	212.07271	110.37161
41300.00000	110.13124	212.72385	110.13124
41350.00000	110.33565	213.48391	110.33565
41400.00000	110.31226	207.80987	110.31226
41450.00000	110.54395	210.39167	110.54395
41500.00000	110.44597	209.37830	110.44597
41550.00000	110.34355	211.61790	110.34355
41600.00000	110.08677	208.20029	110.08677
41650.00000	110.64202	206.52513	110.64202
41700.00000	110.82187	205.12510	110.82187
41750.00000	110.55343	208.94808	110.55343
41800.00000	110.15061	201.79079	110.15061
41850.00000	110.02759	202.84162	110.02759
41900.00000	109.89262	201.54400	109.89262
41950.00000	111.26123	204.61576	111.26123
42000.00000	110.19137	197.76981	110.19137
42050.00000	109.48232	195.91949	109.48232
42100.00000	109.78538	194.16067	109.78538
42150.00000	109.54876	188.26401	109.54876
42200.00000	109.48551	194.35644	109.48551
42250.00000	109.42155	191.82929	109.42155
42300.00000	108.52481	186.20910	108.52481
42350.00000	108.98846	186.87513	108.98846
42400.00000	108.91356	185.76961	108.91356
42450.00000	109.17180	181.24952	109.17180
42500.00000	108.54918	179.12801	108.54918
42550.00000	108.97075	188.22141	108.97075
42600.00000	108.44816	179.31162	108.44816
42650.00000	108.21193	179.55248	108.21193
42700.00000	107.84872	177.64355	107.84872
42750.00000	108.74437	173.45827	108.74437
42800.00000	108.09655	166.54902	108.09655
42850.00000	107.86533	164.95127	107.86533
42900.00000	108.78984	171.05482	108.78984
42950.00000	107.85183	163.71550	107.85183
43000.00000	108.90097	155.98009	108.90097
43050.00000	108.03786	153.31928	108.03786
43100.00000	108.44760	157.80719	108.44760
43150.00000	107.76060	153.07866	107.76060
43200.00000	107.79085	147.95977	107.79085
43250.00000	108.26705	146.28130	108.26705
43300.00000	108.49587	143.98489	108.49587
43350.00000	109.10484	139.32933	109.10484
43400.00000	108.65256	137.98752	108.65256
43450.00000	109.67825	137.41803	109.67825
43500.00000	108.09489	129.84583	108.09489
43550.00000	108.96956	128.15655	108.96956
43600.00000	108.79303	124.79070	108.79303
43650.00000	109.16011	116.19065	109.16011
43700.00000	108.98769	116.87093	108.98769
43750.00000	108.51577	116.14044	108.51577
43800.00000	108.92629	108.70835	108.92629
43850.00000	109.79315	104.23364	109.79315
43900.00000	109.93085	102.40976	109.93085
43950.00000	110.05795	96.14620	110.05795
44000.00000	109.37949	92.62089	109.37949
44050.00000	109.99952	88.50861	109.99952
44100.00000	109.96277	76.45984	109.96277
44150.00000	109.92732	80.22516	109.92732
44200.00000	109.95046	78.42384	109.95046
44250.00000	110.22641	70.95696	110.22641
44300.00000	110.44760	64.90792	110.44760
44350.00000	109.38430	59.91185	109.38430
44400.00000	110.32336	57.52535	110.32336
44450.00000	110.35104	54.41416	110.35104
44500.00000	110.08638	50.20096	110.08638
44550.00000	111.10667	39.80695	111.10667
44600.00000	110.18638	41.34247	110.18638
44650.00000	109.52526	32.60232	109.52526
44700.00000	109.65307	29.24549	109.65307
44750.00000	109.44103	26.73672	109.44103
44800.00000	110.00890	20.55160	110.00890
44850.00000	109.52685	14.09994	109.52685
44900.00000	109.02789	12.31555	109.02789
44950.00000	109.31390	 7.82755	109.31390
45000.00000	109.28686	-2.26133	109.28686
45050.00000	107.65991	 3.03556	107.65991
45100.00000	108.08661	-3.61567	108.08661
45150.00000	108.02553	-13.57549	108.02553
45200.00000	107.39078	-10.85800	107.39078
45250.00000	107.04515	-15.49755	107.04515
45300.00000	106.98790	-19.67965	106.98790
45350.00000	106.26237	-28.28767	106.26237
45400.00000	105.90448	-28.13627	105.90448
45450.00000	105.65581	-35.01814	105.65581
45500.00000	103.94378	-39.06962	103.94378
45550.00000	104.16496	-33.86633	104.16496
45600.00000	104.78628	-43.70636	104.78628
45650.00000	103.11882	-49.86838	103.11882
45700.00000	102.67094	-49.17049	102.67094
45750.00000	103.44731	-45.14119	103.44731
45800.00000	102.17569	-51.56747	102.17569
45850.00000	101.99580	-51.77096	101.99580
45900.00000	101.47825	-54.17834	101.47825
45950.00000	101.58362	-50.59220	101.58362
46000.00000	99.56343	-65.62553	99.56343
46050.00000	100.19228	-65.49619	100.19228
46100.00000	99.41916	-60.29575	99.41916
46150.00000	98.98813	-59.89868	98.98813
46200.00000	97.40423	-71.70271	97.40423
46250.00000	98.17366	-67.91249	98.17366
46300.00000	96.74045	-63.65504	96.74045
46350.00000	98.59107	-71.99131	98.59107
46400.00000	96.77434	-74.11326	96.77434
46450.00000	94.51627	-69.31766	94.51627
46500.00000	95.43614	-68.19719	95.43614
46550.00000	95.50432	-62.63469	95.50432
46600.00000	96.50180	-63.55475	96.50180
46650.00000	93.27485	-66.38359	93.27485
46700.00000	93.15146	-57.69338	93.15146
46750.00000	94.49037	-48.02847	94.49037
46800.00000	92.14561	-56.52319	92.14561
46850.00000	93.74068	-403.49697	93.74068
46900.00000	94.57606	-414.66128	94.57606
46950.00000	94.66738	-413.63103	94.66738
47000.00000	93.90917	-406.48103	93.90917
47050.00000	95.88573	-416.24074	95.88573
47100.00000	94.27649	-415.67904	94.27649
47150.00000	95.55045	-417.96207	95.55045
47200.00000	94.07051	-416.88475	94.07051
47250.00000	96.20881	-419.99011	96.20881
47300.00000	95.63629	-427.75825	95.63629
47350.00000	95.25372	-775.97683	95.25372
47400.00000	94.54737	-779.75477	94.54737
47450.00000	94.92999	-776.54735	94.92999
47500.00000	94.14750	-790.80304	94.14750
47550.00000	93.88576	-1143.15859	93.88576
47600.00000	94.17939	-1145.46447	94.17939
47650.00000	95.68459	-1149.60244	95.68459
47700.00000	94.99192	-1147.44900	94.99192
47750.00000	92.81824	-1147.70948	92.81824
47800.00000	93.37811	-1164.69313	93.37811
47850.00000	94.13475	-1512.32333	94.13475
47900.00000	94.24521	-1863.80242	94.24521
47950.00000	92.96152	-1867.83390	92.96152
48000.00000	93.20357	-1860.96012	93.20357
48050.00000	94.64037	-1870.06072	94.64037
48100.00000	93.35861	-1876.04998	93.35861
48150.00000	93.83357	-2228.77339	93.83357
48200.00000	94.75257	-2228.72085	94.75257
48250.00000	93.56492	-2233.20144	93.56492
48300.00000	93.55121	-2235.62950	93.55121
48350.00000	94.19925	-2240.04164	94.19925
48400.00000	94.89669	-2585.02179	94.89669
48450.00000	95.73979	-2591.76178	95.73979
48500.00000	94.38746	-2596.46602	94.38746
48550.00000	93.10383	-2602.97793	93.10383
48600.00000	96.11427	-2953.39762	96.11427
48650.00000	95.19260	-2956.57471	95.19260
48700.00000	95.89036	-2967.22615	95.89036
48750.00000	94.71843	-3319.01272	94.71843
48800.00000	95.17785	-3324.95131	95.17785
48850.00000	95.22732	-3333.74416	95.22732
48900.00000	94.32721	-3687.96568	94.32721
48950.00000	95.30834	-3700.25585	95.30834
49000.00000	95.28176	-3699.81668	95.28176
49050.00000	95.36888	-3702.52857	95.36888
49100.00000	95.09094	-4062.87728	95.09094
49150.00000	95.56739	-4422.13704	95.56739
49200.00000	95.35787	-4436.62186	95.35787
49250.00000	94.86824	-4783.69744	94.86824
49300.00000	94.47146	-4436.96837	94.47146
49350.00000	93.31355	-4424.92814	93.31355
49400.00000	94.05474	-4077.72360	94.05474
49450.00000	91.42032	-3727.94439	91.42032
49500.00000	91.85711	-3369.53782	91.85711
49550.00000	93.05301	-3015.38518	93.05301
49600.00000	91.57152	-3002.08834	91.57152
49650.00000	91.73664	-2993.74054	91.73664
49700.00000	91.40593	-2668.50444	91.40593
49750.00000	91.23526	-2648.58942	91.23526
49800.00000	89.33620	-2656.27525	89.33620
49850.00000	89.86357	-2639.05754	89.86357
49900.00000	88.53444	-2287.01431	88.53444
49950.00000	89.07197	-1934.91164	89.07197
