---ACOUSTIC CALIBRATION---
Filename: C:\Data\AZH DATA\AZH81\RightPrimary.calib
Date: 8/27/2019 4:24:41 PM
Format: 4
Probe Tube Correction File: C:\Data\Probe Tube Calibrations\50_ProbeTube.calib
Experiment VIs: 850
EPL_CFTS.exe V12.0.1 (2012)
DAQmx V9.6

Attenuation (dB): 40.000000
Min Freq (Hz): 50.000000
Max Freq (Hz): 49950.000000
Freq Step (Hz): 50.000000
Sample Rate (Hz): 100000.000000
[Smoothing]
Method=None
MA.Iterations=0
MA.Length=0
Loess.Length=0
Loess.Type=Linear
Loess.Robust=FALSE


Freq(Hz)	Mag(dB)	Phase(deg)	Unsmoothed(dB)

50.00000	108.84788	483.74456	108.84788
100.00000	82.71889	610.10863	82.71889
150.00000	81.19395	497.85049	81.19395
200.00000	84.51832	452.61767	84.51832
250.00000	93.24425	458.54260	93.24425
300.00000	89.32519	399.43488	89.32519
350.00000	85.71423	382.15442	85.71423
400.00000	89.97844	381.07403	89.97844
450.00000	90.11337	364.88095	90.11337
500.00000	90.93579	369.03053	90.93579
550.00000	95.45262	372.43907	95.45262
600.00000	97.83345	373.04395	97.83345
650.00000	100.44392	352.28393	100.44392
700.00000	102.07137	339.03345	102.07137
750.00000	103.83259	318.35834	103.83259
800.00000	103.77916	295.59127	103.77916
850.00000	103.86445	278.17806	103.86445
900.00000	102.28833	260.00281	102.28833
950.00000	100.66266	257.49130	100.66266
1000.00000	99.24025	255.98032	99.24025
1050.00000	97.12502	268.82559	97.12502
1100.00000	98.16224	290.71422	98.16224
1150.00000	100.80911	298.46598	100.80911
1200.00000	103.50312	300.68526	103.50312
1250.00000	105.61617	291.31776	105.61617
1300.00000	107.09286	286.62194	107.09286
1350.00000	108.71398	277.09406	108.71398
1400.00000	109.48568	268.66806	109.48568
1450.00000	110.50157	261.98538	110.50157
1500.00000	111.57558	254.01987	111.57558
1550.00000	112.34576	246.57537	112.34576
1600.00000	113.99115	237.34427	113.99115
1650.00000	114.96360	220.35183	114.96360
1700.00000	113.95149	210.79815	113.95149
1750.00000	113.71482	204.13190	113.71482
1800.00000	113.43482	199.47086	113.43482
1850.00000	113.60748	197.09143	113.60748
1900.00000	114.59653	193.19789	114.59653
1950.00000	115.42805	180.27816	115.42805
2000.00000	114.60403	167.47545	114.60403
2050.00000	113.04546	169.71773	113.04546
2100.00000	114.69886	171.88339	114.69886
2150.00000	115.48182	160.69899	115.48182
2200.00000	115.40262	150.41954	115.40262
2250.00000	114.86853	142.89006	114.86853
2300.00000	114.89165	137.33914	114.89165
2350.00000	114.69727	130.85106	114.69727
2400.00000	114.42084	124.71070	114.42084
2450.00000	114.11893	118.84686	114.11893
2500.00000	113.74837	113.32396	113.74837
2550.00000	113.26268	108.25246	113.26268
2600.00000	112.79195	103.95006	112.79195
2650.00000	112.30186	99.85064	112.30186
2700.00000	111.83872	96.43014	111.83872
2750.00000	111.29823	92.69612	111.29823
2800.00000	110.70459	89.52148	110.70459
2850.00000	110.16107	87.84309	110.16107
2900.00000	109.59187	85.66263	109.59187
2950.00000	109.05805	84.74742	109.05805
3000.00000	108.49969	83.09701	108.49969
3050.00000	107.82453	82.59065	107.82453
3100.00000	107.32072	82.01750	107.32072
3150.00000	106.43219	80.93228	106.43219
3200.00000	105.34879	83.29037	105.34879
3250.00000	104.22953	89.28351	104.22953
3300.00000	103.47261	97.46766	103.47261
3350.00000	102.84500	110.62602	102.84500
3400.00000	103.52355	128.15078	103.52355
3450.00000	105.57668	141.47305	105.57668
3500.00000	108.10533	146.50798	108.10533
3550.00000	110.32307	146.10001	110.32307
3600.00000	112.28420	143.60909	112.28420
3650.00000	113.87544	138.94146	113.87544
3700.00000	115.26758	134.33031	115.26758
3750.00000	116.59739	129.47976	116.59739
3800.00000	117.82319	123.40318	117.82319
3850.00000	118.89587	116.94102	118.89587
3900.00000	119.92522	110.55659	119.92522
3950.00000	120.91169	103.55478	120.91169
4000.00000	121.76853	96.15753	121.76853
4050.00000	122.59465	88.98641	122.59465
4100.00000	123.44032	81.68365	123.44032
4150.00000	124.48751	73.59944	124.48751
4200.00000	125.27414	63.91896	125.27414
4250.00000	126.04379	52.99280	126.04379
4300.00000	126.58863	40.87712	126.58863
4350.00000	126.81449	28.06786	126.81449
4400.00000	126.75763	15.76343	126.75763
4450.00000	126.47950	 4.38042	126.47950
4500.00000	126.06775	-6.03175	126.06775
4550.00000	125.59150	-15.64216	125.59150
4600.00000	125.04891	-24.54799	125.04891
4650.00000	124.53175	-32.76375	124.53175
4700.00000	123.96805	-41.21299	123.96805
4750.00000	123.28065	-49.74427	123.28065
4800.00000	122.43337	-58.15824	122.43337
4850.00000	121.33914	-65.80631	121.33914
4900.00000	120.04108	-71.68305	120.04108
4950.00000	118.61151	-75.07524	118.61151
5000.00000	117.30802	-76.14571	117.30802
5050.00000	116.20393	-75.85849	116.20393
5100.00000	114.95692	-72.93799	114.95692
5150.00000	114.76788	-66.77134	114.76788
5200.00000	113.94037	-64.54854	113.94037
5250.00000	114.34262	-48.92113	114.34262
5300.00000	117.34301	-49.92886	117.34301
5350.00000	118.31535	-64.21913	118.31535
5400.00000	117.88423	-74.16417	117.88423
5450.00000	117.34645	-79.75065	117.34645
5500.00000	116.89391	-83.49380	116.89391
5550.00000	116.55445	-86.39456	116.55445
5600.00000	116.28393	-89.11455	116.28393
5650.00000	116.09255	-91.55649	116.09255
5700.00000	115.90853	-94.33776	115.90853
5750.00000	115.74025	-96.79728	115.74025
5800.00000	115.57796	-99.18990	115.57796
5850.00000	115.47814	-101.86276	115.47814
5900.00000	115.34801	-104.57021	115.34801
5950.00000	115.24496	-106.86994	115.24496
6000.00000	115.12172	-109.29384	115.12172
6050.00000	115.03013	-111.97025	115.03013
6100.00000	114.94542	-114.29637	114.94542
6150.00000	114.91277	-116.66500	114.91277
6200.00000	114.84081	-119.34459	114.84081
6250.00000	114.80628	-121.95200	114.80628
6300.00000	114.80018	-124.88697	114.80018
6350.00000	114.76036	-127.76960	114.76036
6400.00000	114.72548	-130.57396	114.72548
6450.00000	114.65105	-133.58537	114.65105
6500.00000	114.59404	-136.75371	114.59404
6550.00000	114.48325	-139.56744	114.48325
6600.00000	114.46329	-142.62253	114.46329
6650.00000	114.42583	-145.35188	114.42583
6700.00000	114.38164	-148.46705	114.38164
6750.00000	114.36744	-151.33359	114.36744
6800.00000	114.31394	-154.33715	114.31394
6850.00000	114.30301	-157.49303	114.30301
6900.00000	114.28836	-160.51228	114.28836
6950.00000	114.26685	-163.87138	114.26685
7000.00000	114.24281	-167.15609	114.24281
7050.00000	114.22049	-170.64554	114.22049
7100.00000	114.21051	-174.14691	114.21051
7150.00000	114.18330	-177.73324	114.18330
7200.00000	114.17101	-181.60516	114.17101
7250.00000	114.08651	-185.47808	114.08651
7300.00000	114.05503	-189.68540	114.05503
7350.00000	113.95684	-193.69020	113.95684
7400.00000	113.84781	-198.11067	113.84781
7450.00000	113.71223	-202.44935	113.71223
7500.00000	113.55152	-206.95780	113.55152
7550.00000	113.38634	-211.16008	113.38634
7600.00000	113.14716	-215.64403	113.14716
7650.00000	112.89194	-220.03114	112.89194
7700.00000	112.66612	-224.24484	112.66612
7750.00000	112.31323	-228.60820	112.31323
7800.00000	111.98810	-232.75008	111.98810
7850.00000	111.63753	-236.86406	111.63753
7900.00000	111.25008	-240.44577	111.25008
7950.00000	110.84407	-244.18104	110.84407
8000.00000	110.44547	-247.71900	110.44547
8050.00000	110.02210	-251.27085	110.02210
8100.00000	109.60618	-253.80249	109.60618
8150.00000	109.11000	-256.56359	109.11000
8200.00000	108.64757	-259.12351	108.64757
8250.00000	108.15413	-261.78521	108.15413
8300.00000	107.67105	-264.30831	107.67105
8350.00000	107.18580	-266.26181	107.18580
8400.00000	106.71400	-268.67811	106.71400
8450.00000	106.24616	-271.04717	106.24616
8500.00000	105.70356	-273.55684	105.70356
8550.00000	105.35976	-275.17921	105.35976
8600.00000	104.97290	-277.32737	104.97290
8650.00000	104.61959	-279.30472	104.61959
8700.00000	104.37098	-281.10919	104.37098
8750.00000	103.96791	-281.14027	103.96791
8800.00000	103.71421	-282.28876	103.71421
8850.00000	103.29945	-282.71240	103.29945
8900.00000	103.04038	-283.07953	103.04038
8950.00000	102.62797	-283.77457	102.62797
9000.00000	102.17115	-284.42581	102.17115
9050.00000	101.73979	-285.44011	101.73979
9100.00000	101.34241	-287.12393	101.34241
9150.00000	100.94372	-288.78610	100.94372
9200.00000	100.65237	-290.78297	100.65237
9250.00000	100.32879	-292.50711	100.32879
9300.00000	100.33114	-294.24985	100.33114
9350.00000	100.21143	-295.87456	100.21143
9400.00000	100.08687	-296.44967	100.08687
9450.00000	100.09483	-296.49664	100.09483
9500.00000	100.02081	-295.13788	100.02081
9550.00000	100.01193	-294.51582	100.01193
9600.00000	100.03533	-294.23656	100.03533
9650.00000	99.76318	-294.35692	99.76318
9700.00000	99.48876	-294.78457	99.48876
9750.00000	99.33370	-296.30702	99.33370
9800.00000	99.06912	-297.70786	99.06912
9850.00000	98.93036	-299.26517	98.93036
9900.00000	98.85028	-301.65136	98.85028
9950.00000	98.89709	-303.24461	98.89709
10000.00000	99.01075	-303.99331	99.01075
10050.00000	99.08137	-304.98268	99.08137
10100.00000	99.06821	-305.63500	99.06821
10150.00000	98.91719	-306.24151	98.91719
10200.00000	98.89359	-308.00545	98.89359
10250.00000	98.56841	-309.49303	98.56841
10300.00000	98.49668	-310.78664	98.49668
10350.00000	98.34603	-313.59119	98.34603
10400.00000	98.08477	-315.77161	98.08477
10450.00000	98.14569	-319.10764	98.14569
10500.00000	98.15314	-321.59107	98.15314
10550.00000	98.22224	-324.08859	98.22224
10600.00000	98.20404	-326.11229	98.20404
10650.00000	98.13653	-327.37075	98.13653
10700.00000	98.07828	-329.66795	98.07828
10750.00000	98.00146	-331.36635	98.00146
10800.00000	97.73270	-333.27252	97.73270
10850.00000	97.50801	-336.40461	97.50801
10900.00000	97.29516	-338.95583	97.29516
10950.00000	97.08488	-341.20737	97.08488
11000.00000	96.90037	-343.77681	96.90037
11050.00000	96.61256	-346.46615	96.61256
11100.00000	96.39791	-348.66399	96.39791
11150.00000	96.14623	-350.59829	96.14623
11200.00000	95.84949	-351.70127	95.84949
11250.00000	95.38707	-353.89492	95.38707
11300.00000	95.05864	-355.57407	95.05864
11350.00000	94.63045	-356.89233	94.63045
11400.00000	94.10766	-358.28426	94.10766
11450.00000	93.69848	-360.74886	93.69848
11500.00000	93.49881	-361.06141	93.49881
11550.00000	93.11467	-362.05400	93.11467
11600.00000	92.78556	-363.84545	92.78556
11650.00000	92.52508	-363.10399	92.52508
11700.00000	92.21690	-364.10399	92.21690
11750.00000	91.95115	-364.30947	91.95115
11800.00000	91.68314	-364.22075	91.68314
11850.00000	91.58175	-363.46249	91.58175
11900.00000	90.97796	-364.28119	90.97796
11950.00000	90.75631	-364.06287	90.75631
12000.00000	90.46096	-361.86274	90.46096
12050.00000	90.00375	-361.35493	90.00375
12100.00000	89.96640	-362.76790	89.96640
12150.00000	89.71928	-361.72778	89.71928
12200.00000	89.59518	-363.30541	89.59518
12250.00000	89.38187	-361.88085	89.38187
12300.00000	90.67114	-360.96107	90.67114
12350.00000	89.63641	-359.78973	89.63641
12400.00000	89.39416	-357.98800	89.39416
12450.00000	89.31688	-357.06418	89.31688
12500.00000	89.26564	-355.54665	89.26564
12550.00000	89.04870	-356.04280	89.04870
12600.00000	88.89259	-356.33453	88.89259
12650.00000	89.20240	-358.76144	89.20240
12700.00000	88.99673	-358.07211	88.99673
12750.00000	89.32821	-358.58149	89.32821
12800.00000	89.12702	-358.28670	89.12702
12850.00000	88.94934	-355.58756	88.94934
12900.00000	89.07720	-357.42612	89.07720
12950.00000	89.18960	-356.22339	89.18960
13000.00000	88.94283	-357.32257	88.94283
13050.00000	89.08498	-356.40756	89.08498
13100.00000	88.92865	-357.47943	88.92865
13150.00000	89.19038	-358.15581	89.19038
13200.00000	89.02351	-356.12891	89.02351
13250.00000	89.26240	-355.94548	89.26240
13300.00000	89.29206	-353.20877	89.29206
13350.00000	89.25359	-354.39373	89.25359
13400.00000	89.31697	-352.82201	89.31697
13450.00000	89.30553	-352.83951	89.30553
13500.00000	89.49150	-353.14684	89.49150
13550.00000	89.42772	-352.96377	89.42772
13600.00000	89.82868	-351.32364	89.82868
13650.00000	90.10560	-350.29114	90.10560
13700.00000	89.98244	-350.29196	89.98244
13750.00000	89.84794	-350.07053	89.84794
13800.00000	90.04108	-351.89054	90.04108
13850.00000	90.15996	-352.89238	90.15996
13900.00000	90.29816	-353.07620	90.29816
13950.00000	90.57635	-352.04985	90.57635
14000.00000	91.03572	-349.91575	91.03572
14050.00000	91.31677	-350.95217	91.31677
14100.00000	91.26333	-348.35063	91.26333
14150.00000	91.69349	-349.00744	91.69349
14200.00000	92.03298	-350.19377	92.03298
14250.00000	92.65072	-348.70546	92.65072
14300.00000	92.87453	-348.99065	92.87453
14350.00000	93.02880	-347.72497	93.02880
14400.00000	93.17896	-348.35450	93.17896
14450.00000	93.55347	-347.26036	93.55347
14500.00000	93.74269	-348.07007	93.74269
14550.00000	94.22762	-348.35958	94.22762
14600.00000	94.48582	-350.11540	94.48582
14650.00000	95.07772	-349.38153	95.07772
14700.00000	95.49770	-354.54386	95.49770
14750.00000	96.00108	-354.74972	96.00108
14800.00000	96.32857	-354.61910	96.32857
14850.00000	96.78399	-355.03441	96.78399
14900.00000	97.22489	-357.18918	97.22489
14950.00000	97.70943	-358.78763	97.70943
15000.00000	98.14033	-360.98466	98.14033
15050.00000	98.46226	-361.24609	98.46226
15100.00000	98.96125	-362.19551	98.96125
15150.00000	99.44905	-364.64663	99.44905
15200.00000	99.72506	-365.08298	99.72506
15250.00000	99.96317	-368.40018	99.96317
15300.00000	100.58486	-371.24404	100.58486
15350.00000	100.97072	-374.92109	100.97072
15400.00000	101.28502	-376.28446	101.28502
15450.00000	101.71899	-379.13422	101.71899
15500.00000	102.14648	-381.85635	102.14648
15550.00000	102.51909	-385.18083	102.51909
15600.00000	102.76418	-388.75799	102.76418
15650.00000	103.21073	-390.05403	103.21073
15700.00000	103.34959	-394.89255	103.34959
15750.00000	103.76412	-397.75474	103.76412
15800.00000	104.07850	-400.19803	104.07850
15850.00000	104.27294	-403.20768	104.27294
15900.00000	104.39052	-407.07103	104.39052
15950.00000	104.66974	-410.28991	104.66974
16000.00000	104.85782	-413.73949	104.85782
16050.00000	105.15289	-417.00502	105.15289
16100.00000	105.17760	-420.46982	105.17760
16150.00000	105.29631	-423.57420	105.29631
16200.00000	105.42503	-427.47699	105.42503
16250.00000	105.55297	-430.20181	105.55297
16300.00000	105.84249	-433.62784	105.84249
16350.00000	105.90089	-436.54089	105.90089
16400.00000	106.02643	-439.50956	106.02643
16450.00000	106.10236	-442.28755	106.10236
16500.00000	106.14609	-445.09128	106.14609
16550.00000	106.34669	-448.84270	106.34669
16600.00000	106.46119	-451.35814	106.46119
16650.00000	106.51062	-454.14081	106.51062
16700.00000	106.62953	-456.76753	106.62953
16750.00000	106.64278	-459.98190	106.64278
16800.00000	106.76291	-463.07940	106.76291
16850.00000	106.94124	-465.63619	106.94124
16900.00000	107.07043	-468.67858	107.07043
16950.00000	107.18250	-471.63896	107.18250
17000.00000	107.15507	-474.52721	107.15507
17050.00000	107.31394	-476.61030	107.31394
17100.00000	107.34265	-478.73307	107.34265
17150.00000	107.57016	-482.19988	107.57016
17200.00000	107.68316	-485.08128	107.68316
17250.00000	107.70723	-488.57517	107.70723
17300.00000	107.90938	-491.35999	107.90938
17350.00000	107.88814	-494.00667	107.88814
17400.00000	108.05157	-497.11748	108.05157
17450.00000	108.08792	-500.49285	108.08792
17500.00000	108.22958	-503.73885	108.22958
17550.00000	108.31135	-506.74728	108.31135
17600.00000	108.48107	-509.46221	108.48107
17650.00000	108.52043	-513.51182	108.52043
17700.00000	108.58062	-516.93243	108.58062
17750.00000	108.76492	-519.65602	108.76492
17800.00000	108.69340	-523.56587	108.69340
17850.00000	108.77159	-526.50317	108.77159
17900.00000	108.78354	-530.01079	108.78354
17950.00000	108.89193	-533.72766	108.89193
18000.00000	108.89331	-537.63124	108.89331
18050.00000	109.02141	-540.56141	109.02141
18100.00000	108.94763	-544.64020	108.94763
18150.00000	108.94127	-547.53676	108.94127
18200.00000	108.84314	-551.58555	108.84314
18250.00000	108.86507	-554.26814	108.86507
18300.00000	108.86296	-557.68552	108.86296
18350.00000	108.81986	-561.03256	108.81986
18400.00000	108.71647	-564.64105	108.71647
18450.00000	108.60686	-569.05753	108.60686
18500.00000	108.54938	-572.19407	108.54938
18550.00000	108.45606	-574.93641	108.45606
18600.00000	108.45041	-578.54003	108.45041
18650.00000	108.20514	-581.36533	108.20514
18700.00000	108.10239	-584.85587	108.10239
18750.00000	108.03220	-587.79951	108.03220
18800.00000	108.04479	-590.15696	108.04479
18850.00000	107.80034	-593.32074	107.80034
18900.00000	107.68928	-596.08070	107.68928
18950.00000	107.60061	-599.27347	107.60061
19000.00000	107.34143	-601.57216	107.34143
19050.00000	107.39207	-604.56944	107.39207
19100.00000	107.23504	-606.96033	107.23504
19150.00000	107.25795	-609.42015	107.25795
19200.00000	107.15105	-611.62546	107.15105
19250.00000	107.01459	-615.40246	107.01459
19300.00000	106.88349	-617.29421	106.88349
19350.00000	106.80184	-619.72720	106.80184
19400.00000	106.68231	-622.31731	106.68231
19450.00000	106.70541	-624.26232	106.70541
19500.00000	106.53067	-627.68081	106.53067
19550.00000	106.45075	-630.13572	106.45075
19600.00000	106.44716	-633.09209	106.44716
19650.00000	106.30836	-635.24874	106.30836
19700.00000	106.13152	-638.02715	106.13152
19750.00000	106.05083	-639.94005	106.05083
19800.00000	106.03181	-643.35234	106.03181
19850.00000	105.96302	-645.52314	105.96302
19900.00000	105.83181	-648.95712	105.83181
19950.00000	105.71668	-651.34871	105.71668
20000.00000	105.62233	-653.84173	105.62233
20050.00000	105.53761	-656.46525	105.53761
20100.00000	105.33417	-659.08375	105.33417
20150.00000	105.27288	-660.88679	105.27288
20200.00000	105.12200	-664.06917	105.12200
20250.00000	104.95334	-666.44552	104.95334
20300.00000	104.74326	-668.94791	104.74326
20350.00000	104.66504	-671.56464	104.66504
20400.00000	104.45736	-673.17088	104.45736
20450.00000	104.21467	-675.63554	104.21467
20500.00000	104.10899	-678.09359	104.10899
20550.00000	103.71352	-679.38107	103.71352
20600.00000	103.62575	-681.19548	103.62575
20650.00000	103.44121	-683.15809	103.44121
20700.00000	103.19748	-684.70713	103.19748
20750.00000	103.07707	-686.26869	103.07707
20800.00000	102.84944	-687.39829	102.84944
20850.00000	102.72517	-688.83095	102.72517
20900.00000	102.51585	-689.90868	102.51585
20950.00000	102.36386	-690.55008	102.36386
21000.00000	102.24592	-691.25806	102.24592
21050.00000	102.27813	-691.69042	102.27813
21100.00000	102.18528	-692.22131	102.18528
21150.00000	102.22141	-693.17516	102.22141
21200.00000	102.26196	-693.59994	102.26196
21250.00000	102.28943	-695.69649	102.28943
21300.00000	102.38949	-696.22537	102.38949
21350.00000	102.42347	-697.23430	102.42347
21400.00000	102.47573	-698.98071	102.47573
21450.00000	102.57407	-700.60955	102.57407
21500.00000	102.62920	-702.65621	102.62920
21550.00000	102.58494	-704.07231	102.58494
21600.00000	102.70532	-706.07887	102.70532
21650.00000	102.71092	-708.21316	102.71092
21700.00000	102.72215	-709.82282	102.72215
21750.00000	102.73978	-711.91570	102.73978
21800.00000	102.75084	-714.00019	102.75084
21850.00000	102.67864	-715.62969	102.67864
21900.00000	102.66839	-717.51101	102.66839
21950.00000	102.65674	-719.16812	102.65674
22000.00000	102.66546	-720.82635	102.66546
22050.00000	102.61848	-722.34067	102.61848
22100.00000	102.60070	-724.30522	102.60070
22150.00000	102.56643	-725.79725	102.56643
22200.00000	102.62122	-727.70778	102.62122
22250.00000	102.60668	-728.69901	102.60668
22300.00000	102.44695	-730.47111	102.44695
22350.00000	102.60953	-732.56831	102.60953
22400.00000	102.62251	-734.19747	102.62251
22450.00000	102.59613	-735.88345	102.59613
22500.00000	102.54559	-736.56352	102.54559
22550.00000	102.54629	-738.66262	102.54629
22600.00000	102.57368	-741.24206	102.57368
22650.00000	102.60157	-742.57454	102.60157
22700.00000	102.57042	-744.02988	102.57042
22750.00000	102.56858	-743.95247	102.56858
22800.00000	102.62037	-747.73352	102.62037
22850.00000	102.70977	-750.31863	102.70977
22900.00000	102.70828	-750.63417	102.70828
22950.00000	102.77989	-752.33795	102.77989
23000.00000	102.78343	-753.65613	102.78343
23050.00000	102.79108	-756.74576	102.79108
23100.00000	102.92827	-757.45486	102.92827
23150.00000	102.78935	-758.72366	102.78935
23200.00000	102.94175	-762.02226	102.94175
23250.00000	102.82257	-764.47551	102.82257
23300.00000	103.14021	-766.84065	103.14021
23350.00000	102.80090	-769.26409	102.80090
23400.00000	102.89462	-770.85400	102.89462
23450.00000	103.04974	-773.29539	103.04974
23500.00000	102.90896	-774.51269	102.90896
23550.00000	102.94131	-775.22843	102.94131
23600.00000	102.82430	-779.27947	102.82430
23650.00000	102.92143	-780.89112	102.92143
23700.00000	103.05094	-785.43390	103.05094
23750.00000	102.94534	-786.65860	102.94534
23800.00000	102.71834	-787.23088	102.71834
23850.00000	102.82754	-789.17758	102.82754
23900.00000	103.23186	-792.18137	103.23186
23950.00000	102.82439	-795.37699	102.82439
24000.00000	102.70071	-799.00901	102.70071
24050.00000	102.70315	-798.83933	102.70315
24100.00000	102.94655	-803.42000	102.94655
24150.00000	102.91260	-804.84637	102.91260
24200.00000	102.83820	-809.21924	102.83820
24250.00000	102.35239	-809.38513	102.35239
24300.00000	102.70428	-812.58670	102.70428
24350.00000	102.66479	-815.01518	102.66479
24400.00000	102.28752	-818.13439	102.28752
24450.00000	101.96291	-819.48837	101.96291
24500.00000	102.36678	-821.49432	102.36678
24550.00000	102.05345	-826.36176	102.05345
24600.00000	102.48833	-826.51125	102.48833
24650.00000	102.01346	-470.77018	102.01346
24700.00000	101.91181	-469.94685	101.91181
24750.00000	101.72924	-113.70336	101.72924
24800.00000	101.60026	244.33140	101.60026
24850.00000	101.25751	603.16480	101.25751
24900.00000	101.30493	962.27748	101.30493
24950.00000	101.19545	1320.30206	101.19545
25000.00000	101.16104	1312.42933	101.16104
25050.00000	101.58138	1314.70098	101.58138
25100.00000	100.72086	1311.47835	100.72086
25150.00000	101.09709	1310.87178	101.09709
25200.00000	100.78039	1308.04057	100.78039
25250.00000	100.87892	1307.48331	100.87892
25300.00000	100.91378	1305.94014	100.91378
25350.00000	100.75886	1300.76149	100.75886
25400.00000	100.84326	1297.41026	100.84326
25450.00000	100.81713	1297.69653	100.81713
25500.00000	100.52424	1295.65128	100.52424
25550.00000	100.58300	1292.29107	100.58300
25600.00000	100.55560	1290.55659	100.55560
25650.00000	100.46429	1289.77774	100.46429
25700.00000	100.39378	1286.77332	100.39378
25750.00000	100.28769	1285.25540	100.28769
25800.00000	100.20137	1281.92778	100.20137
25850.00000	100.21056	1280.09282	100.21056
25900.00000	100.06688	1277.38959	100.06688
25950.00000	99.91775	1279.12291	99.91775
26000.00000	99.83534	1274.77348	99.83534
26050.00000	99.79872	1272.62635	99.79872
26100.00000	99.76283	1271.07721	99.76283
26150.00000	99.79863	1268.99476	99.79863
26200.00000	99.79272	1267.61181	99.79272
26250.00000	99.73894	1265.03408	99.73894
26300.00000	99.64156	1263.10244	99.64156
26350.00000	99.39651	1263.01065	99.39651
26400.00000	99.26653	1260.14382	99.26653
26450.00000	99.51050	1257.71968	99.51050
26500.00000	99.37848	1255.69601	99.37848
26550.00000	99.27303	1251.93834	99.27303
26600.00000	99.07590	1250.60725	99.07590
26650.00000	99.18785	1251.65701	99.18785
26700.00000	99.19033	1248.84644	99.19033
26750.00000	99.01896	1247.79139	99.01896
26800.00000	98.85082	1242.34904	98.85082
26850.00000	98.99133	1242.99568	98.99133
26900.00000	99.01340	1242.52132	99.01340
26950.00000	99.23620	1238.93068	99.23620
27000.00000	98.75629	1239.39120	98.75629
27050.00000	99.00853	1236.70886	99.00853
27100.00000	98.69894	1236.93147	98.69894
27150.00000	98.82971	1233.50966	98.82971
27200.00000	98.97275	1232.83089	98.97275
27250.00000	98.58342	1232.27452	98.58342
27300.00000	98.45616	1230.14639	98.45616
27350.00000	98.71242	1229.75626	98.71242
27400.00000	98.43807	1228.14172	98.43807
27450.00000	98.46958	1226.48313	98.46958
27500.00000	98.62606	1226.03410	98.62606
27550.00000	98.69933	1223.57601	98.69933
27600.00000	99.02792	1222.29263	99.02792
27650.00000	98.71429	1221.96402	98.71429
27700.00000	98.76424	1217.78754	98.76424
27750.00000	98.98810	1216.67916	98.98810
27800.00000	99.08888	1213.51187	99.08888
27850.00000	99.43838	1216.57809	99.43838
27900.00000	99.02427	1214.53427	99.02427
27950.00000	98.57871	1211.53102	98.57871
28000.00000	98.88555	1211.43820	98.88555
28050.00000	99.53832	1208.46284	99.53832
28100.00000	99.09784	1207.63315	99.09784
28150.00000	99.23414	1206.34215	99.23414
28200.00000	99.63866	1202.15434	99.63866
28250.00000	99.39159	1200.03288	99.39159
28300.00000	99.17565	1200.31720	99.17565
28350.00000	99.43636	1199.00854	99.43636
28400.00000	99.34079	1197.63701	99.34079
28450.00000	100.16511	1193.98477	100.16511
28500.00000	99.66110	1193.93351	99.66110
28550.00000	99.77209	1194.87036	99.77209
28600.00000	99.78988	1192.76864	99.78988
28650.00000	100.04185	1187.96802	100.04185
28700.00000	100.03149	1187.98402	100.03149
28750.00000	100.60553	1188.06979	100.60553
28800.00000	100.48138	1186.06458	100.48138
28850.00000	99.99520	1181.18998	99.99520
28900.00000	100.12370	1180.15846	100.12370
28950.00000	100.11887	1179.53188	100.11887
29000.00000	100.41347	1177.55139	100.41347
29050.00000	100.16126	1178.64247	100.16126
29100.00000	100.33670	1177.23532	100.33670
29150.00000	100.14627	1176.72542	100.14627
29200.00000	100.10727	1172.59044	100.10727
29250.00000	100.69562	1171.73954	100.69562
29300.00000	100.34379	1169.45337	100.34379
29350.00000	100.85890	1166.18597	100.85890
29400.00000	100.69799	1165.73712	100.69799
29450.00000	100.63019	1163.10641	100.63019
29500.00000	101.11833	1163.04348	101.11833
29550.00000	100.89370	1158.83743	100.89370
29600.00000	100.83846	1158.94217	100.83846
29650.00000	101.01555	1155.96393	101.01555
29700.00000	100.86146	1156.58974	100.86146
29750.00000	100.85408	1155.74272	100.85408
29800.00000	100.68930	1152.63444	100.68930
29850.00000	100.82218	1150.17909	100.82218
29900.00000	101.12821	1150.13485	101.12821
29950.00000	100.30932	1149.23746	100.30932
30000.00000	100.73568	1149.31275	100.73568
30050.00000	100.81791	1146.62479	100.81791
30100.00000	100.56668	1147.73365	100.56668
30150.00000	100.76314	1143.52254	100.76314
30200.00000	100.65162	1141.97488	100.65162
30250.00000	100.40616	1142.12605	100.40616
30300.00000	100.23366	1142.12075	100.23366
30350.00000	100.34058	1143.12755	100.34058
30400.00000	100.27962	1141.08311	100.27962
30450.00000	99.89953	1140.73574	99.89953
30500.00000	99.99302	1140.00424	99.99302
30550.00000	99.99551	1141.45603	99.99551
30600.00000	100.04040	1142.31881	100.04040
30650.00000	99.99721	1143.26157	99.99721
30700.00000	100.15194	1142.48410	100.15194
30750.00000	100.06610	1144.07839	100.06610
30800.00000	100.20319	1144.33932	100.20319
30850.00000	100.45350	1146.39300	100.45350
30900.00000	100.46488	1147.98059	100.46488
30950.00000	100.98101	1147.19865	100.98101
31000.00000	101.25479	1147.21378	101.25479
31050.00000	101.65172	1148.51593	101.65172
31100.00000	102.27252	1149.15095	102.27252
31150.00000	102.26978	1148.71839	102.26978
31200.00000	103.12976	1147.97490	103.12976
31250.00000	103.54121	1147.23591	103.54121
31300.00000	104.01223	1145.83229	104.01223
31350.00000	104.65326	1144.70549	104.65326
31400.00000	104.94075	1141.88843	104.94075
31450.00000	105.55297	1140.05067	105.55297
31500.00000	105.91703	1136.56815	105.91703
31550.00000	106.37473	1134.25509	106.37473
31600.00000	106.96831	1130.42753	106.96831
31650.00000	107.31499	1126.93278	107.31499
31700.00000	107.67859	1124.10886	107.67859
31750.00000	108.10739	1121.41320	108.10739
31800.00000	108.36395	1116.64968	108.36395
31850.00000	108.69331	1112.45701	108.69331
31900.00000	108.80239	1108.69580	108.80239
31950.00000	109.08282	1104.84637	109.08282
32000.00000	109.29108	1100.84852	109.29108
32050.00000	109.55081	1097.08415	109.55081
32100.00000	109.63583	1092.57903	109.63583
32150.00000	109.81855	1089.59129	109.81855
32200.00000	110.02731	1085.05531	110.02731
32250.00000	110.03224	1080.38807	110.03224
32300.00000	110.15157	1076.95506	110.15157
32350.00000	110.21693	1073.87317	110.21693
32400.00000	110.44938	1069.96424	110.44938
32450.00000	110.35661	1065.61287	110.35661
32500.00000	110.52452	1062.61491	110.52452
32550.00000	110.63761	1058.10219	110.63761
32600.00000	110.65371	1055.01982	110.65371
32650.00000	110.75859	1050.85830	110.75859
32700.00000	110.69481	1046.72654	110.69481
32750.00000	110.70733	1042.64593	110.70733
32800.00000	110.87599	1039.67112	110.87599
32850.00000	110.88191	1035.31573	110.88191
32900.00000	110.77923	1030.87965	110.77923
32950.00000	110.64979	1026.44500	110.64979
33000.00000	110.65676	1024.37434	110.65676
33050.00000	110.50447	1019.32424	110.50447
33100.00000	110.56498	1016.01610	110.56498
33150.00000	110.45008	1013.24487	110.45008
33200.00000	110.51145	1010.49798	110.51145
33250.00000	110.33222	1007.08700	110.33222
33300.00000	110.15304	1003.02688	110.15304
33350.00000	109.99011	999.46441	109.99011
33400.00000	109.88912	997.41510	109.88912
33450.00000	109.80813	993.23997	109.80813
33500.00000	109.81232	991.90836	109.81232
33550.00000	109.38823	987.23214	109.38823
33600.00000	109.51369	985.56964	109.51369
33650.00000	109.24812	981.70449	109.24812
33700.00000	109.07867	980.40427	109.07867
33750.00000	108.80860	977.52444	108.80860
33800.00000	108.68268	975.58214	108.68268
33850.00000	108.28538	973.98312	108.28538
33900.00000	108.42970	971.38100	108.42970
33950.00000	108.23002	970.18647	108.23002
34000.00000	108.17925	968.20147	108.17925
34050.00000	107.96032	965.99674	107.96032
34100.00000	107.79113	965.79209	107.79113
34150.00000	107.64762	964.15629	107.64762
34200.00000	107.67318	964.68012	107.67318
34250.00000	107.60399	961.58247	107.60399
34300.00000	107.43902	960.95159	107.43902
34350.00000	107.59713	960.04952	107.59713
34400.00000	107.23497	959.91424	107.23497
34450.00000	107.36776	957.30619	107.36776
34500.00000	107.10416	957.71371	107.10416
34550.00000	107.36860	957.02063	107.36860
34600.00000	107.17808	955.17308	107.17808
34650.00000	107.63926	957.64159	107.63926
34700.00000	107.37432	956.97483	107.37432
34750.00000	107.62222	952.40722	107.62222
34800.00000	107.91628	955.45997	107.91628
34850.00000	108.23103	955.84617	108.23103
34900.00000	108.49785	953.57959	108.49785
34950.00000	108.53520	952.87401	108.53520
35000.00000	108.72122	951.29378	108.72122
35050.00000	109.07267	951.55491	109.07267
35100.00000	109.32388	949.54951	109.32388
35150.00000	109.31474	949.77705	109.31474
35200.00000	109.69019	946.74584	109.69019
35250.00000	109.91764	945.27193	109.91764
35300.00000	110.33325	943.61753	110.33325
35350.00000	110.57816	941.89102	110.57816
35400.00000	110.67788	939.48450	110.67788
35450.00000	111.00352	939.19813	111.00352
35500.00000	111.00885	937.68366	111.00885
35550.00000	111.59318	936.45804	111.59318
35600.00000	111.67518	933.80648	111.67518
35650.00000	112.01033	932.72467	112.01033
35700.00000	112.17297	929.81384	112.17297
35750.00000	112.31503	929.33602	112.31503
35800.00000	112.66857	928.34818	112.66857
35850.00000	113.11744	925.10185	113.11744
35900.00000	113.25059	923.63843	113.25059
35950.00000	113.67899	920.20907	113.67899
36000.00000	113.81406	919.12591	113.81406
36050.00000	114.20753	916.12114	114.20753
36100.00000	114.43527	914.38935	114.43527
36150.00000	114.57255	912.22265	114.57255
36200.00000	114.89052	910.29846	114.89052
36250.00000	115.00298	908.17414	115.00298
36300.00000	115.17320	906.55913	115.17320
36350.00000	115.61152	904.19236	115.61152
36400.00000	115.89652	902.46473	115.89652
36450.00000	116.05961	899.51708	116.05961
36500.00000	116.51762	897.99680	116.51762
36550.00000	116.62536	894.26054	116.62536
36600.00000	116.92946	892.36921	116.92946
36650.00000	117.23979	889.93708	117.23979
36700.00000	117.60091	886.80000	117.60091
36750.00000	117.84184	884.10415	117.84184
36800.00000	118.06545	881.65800	118.06545
36850.00000	118.20805	878.55238	118.20805
36900.00000	118.66006	875.47559	118.66006
36950.00000	118.75645	872.01024	118.75645
37000.00000	118.76417	869.51800	118.76417
37050.00000	119.04517	867.03612	119.04517
37100.00000	119.42670	862.52696	119.42670
37150.00000	119.69500	858.62051	119.69500
37200.00000	120.08701	856.61429	120.08701
37250.00000	119.90195	852.43511	119.90195
37300.00000	120.12178	848.43088	120.12178
37350.00000	120.56209	845.00895	120.56209
37400.00000	120.46351	841.97600	120.46351
37450.00000	120.50346	838.47851	120.50346
37500.00000	120.96639	833.61799	120.96639
37550.00000	120.74528	830.62949	120.74528
37600.00000	120.87847	827.03502	120.87847
37650.00000	120.95006	823.35125	120.95006
37700.00000	121.08611	818.66029	121.08611
37750.00000	121.12192	816.14879	121.12192
37800.00000	121.04529	811.69571	121.04529
37850.00000	121.12258	806.84882	121.12258
37900.00000	121.13738	803.86863	121.13738
37950.00000	121.18251	801.12884	121.18251
38000.00000	121.05437	798.04006	121.05437
38050.00000	121.19895	794.14278	121.19895
38100.00000	121.27609	790.36061	121.27609
38150.00000	121.22802	786.30378	121.22802
38200.00000	121.34576	782.27986	121.34576
38250.00000	121.33951	779.37799	121.33951
38300.00000	121.43267	774.97806	121.43267
38350.00000	121.38386	772.05533	121.38386
38400.00000	121.45512	768.43204	121.45512
38450.00000	121.51902	763.97106	121.51902
38500.00000	121.62203	760.12270	121.62203
38550.00000	121.75807	756.85068	121.75807
38600.00000	121.84058	752.86592	121.84058
38650.00000	121.93854	748.42830	121.93854
38700.00000	121.97085	744.27992	121.97085
38750.00000	122.08672	740.44944	122.08672
38800.00000	122.22201	736.14227	122.22201
38850.00000	122.27897	731.33150	122.27897
38900.00000	122.40447	726.96461	122.40447
38950.00000	122.45143	722.05154	122.45143
39000.00000	122.53096	717.17558	122.53096
39050.00000	122.65727	712.46490	122.65727
39100.00000	122.60576	707.35481	122.60576
39150.00000	122.59575	702.12255	122.59575
39200.00000	122.63821	697.28932	122.63821
39250.00000	122.62528	691.75030	122.62528
39300.00000	122.60281	686.32120	122.60281
39350.00000	122.50610	681.50782	122.50610
39400.00000	122.40347	675.70668	122.40347
39450.00000	122.24983	670.50439	122.24983
39500.00000	122.15625	665.28077	122.15625
39550.00000	121.91729	659.82705	121.91729
39600.00000	121.63874	654.61462	121.63874
39650.00000	121.46604	650.14111	121.46604
39700.00000	121.13902	645.27085	121.13902
39750.00000	120.89365	640.10916	120.89365
39800.00000	120.59894	635.52398	120.59894
39850.00000	120.22018	631.14899	120.22018
39900.00000	119.90800	627.07109	119.90800
39950.00000	119.58155	623.03319	119.58155
40000.00000	119.04302	620.57702	119.04302
40050.00000	118.83333	615.52518	118.83333
40100.00000	118.49827	612.06057	118.49827
40150.00000	118.07382	608.42726	118.07382
40200.00000	117.74157	604.94370	117.74157
40250.00000	117.35183	602.26474	117.35183
40300.00000	117.06139	599.80085	117.06139
40350.00000	116.53726	596.94754	116.53726
40400.00000	116.14548	594.59666	116.14548
40450.00000	115.83181	592.39730	115.83181
40500.00000	115.53662	590.61762	115.53662
40550.00000	115.19747	587.73126	115.19747
40600.00000	114.88966	586.35349	114.88966
40650.00000	114.49910	584.93762	114.49910
40700.00000	114.09004	583.84452	114.09004
40750.00000	113.94245	582.36022	113.94245
40800.00000	113.60444	580.41201	113.60444
40850.00000	113.31070	580.06306	113.31070
40900.00000	112.99558	578.76069	112.99558
40950.00000	112.61787	578.60783	112.61787
41000.00000	112.23231	578.03097	112.23231
41050.00000	112.25344	577.62236	112.25344
41100.00000	112.07087	576.63732	112.07087
41150.00000	111.98538	577.64528	111.98538
41200.00000	111.92310	577.07428	111.92310
41250.00000	111.75521	575.04417	111.75521
41300.00000	111.38760	575.79676	111.38760
41350.00000	111.46381	577.33791	111.46381
41400.00000	111.33288	572.18920	111.33288
41450.00000	111.42879	574.86115	111.42879
41500.00000	111.29581	574.23820	111.29581
41550.00000	111.18105	577.80516	111.18105
41600.00000	110.82275	575.28914	110.82275
41650.00000	111.28099	573.94339	111.28099
41700.00000	111.52758	574.34173	111.52758
41750.00000	111.25035	577.81637	111.25035
41800.00000	110.56983	572.42207	110.56983
41850.00000	110.22156	573.41519	110.22156
41900.00000	110.34755	573.96967	110.34755
41950.00000	111.51784	578.11698	111.51784
42000.00000	110.62391	571.07732	110.62391
42050.00000	109.74045	571.32972	109.74045
42100.00000	110.34032	570.67334	110.34032
42150.00000	109.96146	565.48792	109.96146
42200.00000	109.75162	572.23714	109.75162
42250.00000	109.87417	571.36302	109.87417
42300.00000	109.00826	566.77187	109.00826
42350.00000	109.66546	567.36220	109.66546
42400.00000	109.38234	568.66322	109.38234
42450.00000	109.94955	562.48982	109.94955
42500.00000	109.21306	560.70397	109.21306
42550.00000	109.66359	570.10295	109.66359
42600.00000	109.28416	563.01414	109.28416
42650.00000	108.83771	563.15062	108.83771
42700.00000	108.76257	559.85140	108.76257
42750.00000	109.49463	555.57170	109.49463
42800.00000	108.96953	550.22970	108.96953
42850.00000	108.66924	548.91310	108.66924
42900.00000	109.79495	551.68032	109.79495
42950.00000	108.83486	547.78990	108.83486
43000.00000	109.53683	536.84035	109.53683
43050.00000	108.96544	533.92398	108.96544
43100.00000	109.38555	539.22527	109.38555
43150.00000	107.81050	534.84422	107.81050
43200.00000	108.78661	528.15849	108.78661
43250.00000	109.00923	525.61867	109.00923
43300.00000	108.89523	519.36566	108.89523
43350.00000	109.89819	518.99801	109.89819
43400.00000	109.30461	514.19178	109.30461
43450.00000	110.11422	513.01764	110.11422
43500.00000	108.86748	504.94472	108.86748
43550.00000	109.42389	502.59410	109.42389
43600.00000	109.26398	496.48345	109.26398
43650.00000	109.54771	488.44846	109.54771
43700.00000	109.49555	488.77417	109.49555
43750.00000	108.77969	488.22534	108.77969
43800.00000	109.21047	479.69431	109.21047
43850.00000	110.04534	473.14267	110.04534
43900.00000	110.04129	471.78843	110.04129
43950.00000	110.07288	465.83457	110.07288
44000.00000	109.34200	462.14931	109.34200
44050.00000	109.82517	456.88771	109.82517
44100.00000	110.01807	444.86199	110.01807
44150.00000	109.63644	448.70646	109.63644
44200.00000	109.60061	447.31830	109.60061
44250.00000	110.03781	439.52720	110.03781
44300.00000	110.17669	433.33429	110.17669
44350.00000	109.09364	428.61199	109.09364
44400.00000	109.91556	424.56310	109.91556
44450.00000	109.89895	422.28927	109.89895
44500.00000	109.39685	418.62434	109.39685
44550.00000	110.85610	408.79277	110.85610
44600.00000	109.70458	410.87099	109.70458
44650.00000	108.98426	402.03610	108.98426
44700.00000	108.93398	397.71223	108.93398
44750.00000	109.03704	399.06410	109.03704
44800.00000	109.41354	390.49396	109.41354
44850.00000	108.92538	383.77746	108.92538
44900.00000	108.57655	383.90912	108.57655
44950.00000	108.97391	378.97561	108.97391
45000.00000	108.68860	369.34774	108.68860
45050.00000	107.21248	376.85034	107.21248
45100.00000	107.66454	367.94802	107.66454
45150.00000	107.60016	357.71271	107.60016
45200.00000	107.04864	361.68730	107.04864
45250.00000	107.08059	357.70983	107.08059
45300.00000	106.90173	352.05944	106.90173
45350.00000	106.37991	346.68013	106.37991
45400.00000	106.20779	344.54057	106.20779
45450.00000	106.21594	338.69830	106.21594
45500.00000	104.77927	332.78202	104.77927
45550.00000	104.53329	336.89163	104.53329
45600.00000	105.39226	327.95680	105.39226
45650.00000	103.64535	323.22545	103.64535
45700.00000	103.83368	323.39164	103.83368
45750.00000	104.71462	325.46743	104.71462
45800.00000	103.33560	317.88777	103.33560
45850.00000	103.44384	314.33769	103.44384
45900.00000	102.78157	313.74770	102.78157
45950.00000	102.52813	318.42817	102.52813
46000.00000	100.87913	301.50774	100.87913
46050.00000	101.24573	301.79039	101.24573
46100.00000	100.22421	305.25009	100.22421
46150.00000	99.95962	303.49897	99.95962
46200.00000	98.00993	294.23337	98.00993
46250.00000	98.84035	296.67202	98.84035
46300.00000	98.06628	297.70985	98.06628
46350.00000	99.41600	293.02295	99.41600
46400.00000	97.27171	288.77465	97.27171
46450.00000	95.72578	289.83144	95.72578
46500.00000	96.59580	293.97934	96.59580
46550.00000	96.17219	299.86589	96.17219
46600.00000	97.01552	299.73524	97.01552
46650.00000	94.79159	291.48727	94.79159
46700.00000	94.35610	301.24344	94.35610
46750.00000	94.63892	315.33128	94.63892
46800.00000	92.95595	302.57768	92.95595
46850.00000	94.43152	-40.51463	94.43152
46900.00000	94.31843	-48.85268	94.31843
46950.00000	95.16046	-49.13183	95.16046
47000.00000	94.44928	-43.88898	94.44928
47050.00000	96.14868	-53.14680	96.14868
47100.00000	95.32058	-52.79072	95.32058
47150.00000	96.36781	-53.64131	96.36781
47200.00000	95.22973	-51.73112	95.22973
47250.00000	96.75272	-53.66648	96.75272
47300.00000	96.42007	-63.66795	96.42007
47350.00000	96.07549	-414.62567	96.07549
47400.00000	95.03137	-414.03621	95.03137
47450.00000	96.95723	-414.70577	96.95723
47500.00000	94.71453	-428.97808	94.71453
47550.00000	94.52906	-778.67331	94.52906
47600.00000	94.68457	-781.26374	94.68457
47650.00000	96.67905	-787.01056	96.67905
47700.00000	95.30782	-782.48744	95.30782
47750.00000	93.61070	-783.49530	93.61070
47800.00000	93.93796	-799.61065	93.93796
47850.00000	94.91484	-1147.76622	94.91484
47900.00000	94.98617	-1501.29547	94.98617
47950.00000	94.13554	-1500.26507	94.13554
48000.00000	94.10961	-1497.35272	94.10961
48050.00000	94.82490	-1510.02058	94.82490
48100.00000	93.74350	-1510.18213	93.74350
48150.00000	94.62909	-1864.86686	94.62909
48200.00000	95.28812	-1861.51369	95.28812
48250.00000	94.53974	-1869.78171	94.53974
48300.00000	95.11267	-1870.88655	95.11267
48350.00000	95.47724	-1878.33199	95.47724
48400.00000	95.92556	-2220.79212	95.92556
48450.00000	96.40857	-2227.94471	96.40857
48500.00000	96.03969	-2232.09284	96.03969
48550.00000	94.73351	-2238.05626	94.73351
48600.00000	97.20505	-2592.36195	97.20505
48650.00000	97.31606	-2591.12310	97.31606
48700.00000	97.71585	-2603.39072	97.71585
48750.00000	96.38965	-2954.81550	96.38965
48800.00000	97.10195	-2961.88088	97.10195
48850.00000	97.31827	-2968.39968	97.31827
48900.00000	96.44899	-3325.66176	96.44899
48950.00000	97.31164	-3338.11854	97.31164
49000.00000	98.28559	-3339.06761	98.28559
49050.00000	97.13426	-3345.16428	97.13426
49100.00000	96.72818	-3707.02505	96.72818
49150.00000	98.07348	-4064.39968	98.07348
49200.00000	97.48963	-4078.26632	97.48963
49250.00000	96.67709	-4423.49325	96.67709
49300.00000	97.95175	-4084.88231	97.95175
49350.00000	95.23243	-4065.31234	95.23243
49400.00000	95.71452	-3725.17600	95.71452
49450.00000	93.84414	-3372.00330	93.84414
49500.00000	94.58685	-3018.94054	94.58685
49550.00000	95.50606	-2664.34915	95.50606
49600.00000	93.55488	-2660.40525	93.55488
49650.00000	94.40190	-2660.91041	94.40190
49700.00000	93.80786	-2322.71332	93.80786
49750.00000	93.01935	-2314.41924	93.01935
49800.00000	90.98519	-2323.28463	90.98519
49850.00000	88.38337	-2305.90932	88.38337
49900.00000	87.33826	-1959.92150	87.33826
49950.00000	86.91967	-1600.31596	86.91967
