---ACOUSTIC CALIBRATION---
Filename: C:\Data\AZH DATA\AZH81\RightPrimary.calib
Date: 8/27/2019 4:22:47 PM
Format: 4
Probe Tube Correction File: C:\Data\Probe Tube Calibrations\50_ProbeTube.calib
Experiment VIs: 850
EPL_CFTS.exe V12.0.1 (2012)
DAQmx V9.6

Attenuation (dB): 40.000000
Min Freq (Hz): 50.000000
Max Freq (Hz): 49950.000000
Freq Step (Hz): 50.000000
Sample Rate (Hz): 100000.000000
[Smoothing]
Method=None
MA.Iterations=0
MA.Length=0
Loess.Length=0
Loess.Type=Linear
Loess.Robust=FALSE


Freq(Hz)	Mag(dB)	Phase(deg)	Unsmoothed(dB)

50.00000	100.17793	411.72548	100.17793
100.00000	81.58005	491.39162	81.58005
150.00000	75.50425	433.62742	75.50425
200.00000	84.46462	448.06921	84.46462
250.00000	86.76822	459.52651	86.76822
300.00000	86.21493	403.43179	86.21493
350.00000	76.07083	434.29836	76.07083
400.00000	84.91584	379.54938	84.91584
450.00000	87.35582	371.53573	87.35582
500.00000	89.18914	388.58842	89.18914
550.00000	91.90382	369.47804	91.90382
600.00000	95.85286	371.94865	95.85286
650.00000	96.85828	351.76125	96.85828
700.00000	99.17872	337.77156	99.17872
750.00000	100.23709	320.12936	100.23709
800.00000	101.63102	295.96170	101.63102
850.00000	100.53256	281.07678	100.53256
900.00000	99.33407	265.49893	99.33407
950.00000	97.27089	260.34649	97.27089
1000.00000	95.61955	259.01117	95.61955
1050.00000	93.42566	271.76790	93.42566
1100.00000	95.34214	296.60182	95.34214
1150.00000	97.89505	299.44043	97.89505
1200.00000	100.82558	298.35839	100.82558
1250.00000	102.56026	292.26268	102.56026
1300.00000	104.23659	285.66642	104.23659
1350.00000	105.54159	276.64396	105.54159
1400.00000	106.38400	268.01890	106.38400
1450.00000	107.14650	262.66667	107.14650
1500.00000	108.27705	256.25785	108.27705
1550.00000	109.17306	248.21098	109.17306
1600.00000	110.63789	237.52000	110.63789
1650.00000	111.66353	221.55822	111.66353
1700.00000	110.52777	211.37405	110.52777
1750.00000	110.27436	205.07973	110.27436
1800.00000	110.06415	199.73145	110.06415
1850.00000	110.06527	199.16376	110.06527
1900.00000	111.17835	195.22431	111.17835
1950.00000	111.84510	182.41869	111.84510
2000.00000	111.04101	170.30846	111.04101
2050.00000	109.57553	173.53299	109.57553
2100.00000	111.37382	174.61493	111.37382
2150.00000	112.10259	163.74529	112.10259
2200.00000	112.04243	153.28680	112.04243
2250.00000	111.45923	146.43273	111.45923
2300.00000	111.58260	140.83092	111.58260
2350.00000	111.33751	134.39366	111.33751
2400.00000	111.13268	128.53777	111.13268
2450.00000	110.80979	122.39952	110.80979
2500.00000	110.48535	116.92221	110.48535
2550.00000	110.02369	111.78703	110.02369
2600.00000	109.54306	107.18333	109.54306
2650.00000	109.04134	103.66669	109.04134
2700.00000	108.54054	99.52357	108.54054
2750.00000	107.91850	96.14081	107.91850
2800.00000	107.40915	93.47951	107.40915
2850.00000	106.78094	91.14848	106.78094
2900.00000	106.27150	88.89880	106.27150
2950.00000	105.55628	87.54567	105.55628
3000.00000	105.04928	85.86609	105.04928
3050.00000	104.25238	84.89056	104.25238
3100.00000	103.56808	85.15557	103.56808
3150.00000	102.39673	84.14245	102.39673
3200.00000	101.06579	90.03359	101.06579
3250.00000	99.88259	98.54091	99.88259
3300.00000	99.18622	109.88076	99.18622
3350.00000	98.99463	127.04568	98.99463
3400.00000	100.58652	146.22509	100.58652
3450.00000	103.28510	156.07548	103.28510
3500.00000	105.98960	157.90146	105.98960
3550.00000	108.17510	155.11196	108.17510
3600.00000	110.01810	151.29316	110.01810
3650.00000	111.57212	145.63020	111.57212
3700.00000	112.84813	140.53034	112.84813
3750.00000	114.14586	135.06513	114.14586
3800.00000	115.32539	128.79060	115.32539
3850.00000	116.35749	122.09507	116.35749
3900.00000	117.31568	115.63993	117.31568
3950.00000	118.27712	108.68433	118.27712
4000.00000	119.12875	101.29003	119.12875
4050.00000	119.94709	93.97914	119.94709
4100.00000	120.80363	86.54997	120.80363
4150.00000	121.83164	78.09852	121.83164
4200.00000	122.59087	68.02908	122.59087
4250.00000	123.28146	56.77296	123.28146
4300.00000	123.74206	44.61797	123.74206
4350.00000	123.88140	31.99176	123.88140
4400.00000	123.72848	20.28359	123.72848
4450.00000	123.40280	 9.49391	123.40280
4500.00000	122.99993	-0.25942	122.99993
4550.00000	122.55209	-9.42008	122.55209
4600.00000	122.04584	-17.88713	122.04584
4650.00000	121.59386	-25.84368	121.59386
4700.00000	121.09588	-34.08987	121.09588
4750.00000	120.49345	-42.57321	120.49345
4800.00000	119.69863	-51.12453	119.69863
4850.00000	118.64727	-59.17115	118.64727
4900.00000	117.32730	-65.31922	117.32730
4950.00000	115.89417	-68.98739	115.89417
5000.00000	114.54848	-69.83823	114.54848
5050.00000	113.47990	-69.36629	113.47990
5100.00000	112.23499	-66.00224	112.23499
5150.00000	112.05798	-60.06511	112.05798
5200.00000	111.33526	-56.75413	111.33526
5250.00000	112.25821	-42.71920	112.25821
5300.00000	114.92382	-47.91174	114.92382
5350.00000	115.38867	-61.63926	115.38867
5400.00000	114.84231	-70.10879	114.84231
5450.00000	114.29401	-74.72619	114.29401
5500.00000	113.86958	-78.12782	113.86958
5550.00000	113.52329	-80.97981	113.52329
5600.00000	113.24915	-83.23392	113.24915
5650.00000	113.06535	-85.65738	113.06535
5700.00000	112.84787	-88.05231	112.84787
5750.00000	112.70405	-90.43259	112.70405
5800.00000	112.52628	-92.87320	112.52628
5850.00000	112.40834	-95.52500	112.40834
5900.00000	112.27980	-97.69348	112.27980
5950.00000	112.14787	-100.09071	112.14787
6000.00000	112.05521	-102.24066	112.05521
6050.00000	111.91950	-104.57272	111.91950
6100.00000	111.85249	-107.02686	111.85249
6150.00000	111.79680	-109.20169	111.79680
6200.00000	111.71877	-111.65198	111.71877
6250.00000	111.67529	-114.35817	111.67529
6300.00000	111.62416	-117.14007	111.62416
6350.00000	111.53591	-119.73933	111.53591
6400.00000	111.47422	-122.46431	111.47422
6450.00000	111.40743	-125.42904	111.40743
6500.00000	111.29454	-128.06554	111.29454
6550.00000	111.20418	-130.77343	111.20418
6600.00000	111.10619	-133.45079	111.10619
6650.00000	111.03480	-135.89379	111.03480
6700.00000	110.97034	-138.63719	110.97034
6750.00000	110.88337	-141.22729	110.88337
6800.00000	110.86264	-143.88943	110.86264
6850.00000	110.78678	-146.30796	110.78678
6900.00000	110.71858	-149.00135	110.71858
6950.00000	110.69032	-151.57515	110.69032
7000.00000	110.70491	-154.34063	110.70491
7050.00000	110.60377	-157.11203	110.60377
7100.00000	110.59880	-160.06403	110.59880
7150.00000	110.56594	-162.87381	110.56594
7200.00000	110.50804	-165.85230	110.50804
7250.00000	110.41622	-169.17723	110.41622
7300.00000	110.44038	-172.34594	110.44038
7350.00000	110.34701	-175.44225	110.34701
7400.00000	110.29470	-178.67098	110.29470
7450.00000	110.18802	-182.14689	110.18802
7500.00000	110.14716	-185.46336	110.14716
7550.00000	110.02501	-189.00844	110.02501
7600.00000	109.87547	-192.33558	109.87547
7650.00000	109.75915	-195.73267	109.75915
7700.00000	109.64637	-199.01525	109.64637
7750.00000	109.45779	-202.38919	109.45779
7800.00000	109.31205	-205.79903	109.31205
7850.00000	109.07048	-208.76507	109.07048
7900.00000	108.94922	-211.78470	108.94922
7950.00000	108.74370	-215.15985	108.74370
8000.00000	108.56979	-218.49758	108.56979
8050.00000	108.37242	-221.87413	108.37242
8100.00000	108.17744	-224.32488	108.17744
8150.00000	107.95008	-227.15386	107.95008
8200.00000	107.75307	-229.50279	107.75307
8250.00000	107.43907	-232.90367	107.43907
8300.00000	107.22573	-236.01136	107.22573
8350.00000	106.95132	-238.28854	106.95132
8400.00000	106.68770	-241.37560	106.68770
8450.00000	106.36786	-244.18442	106.36786
8500.00000	106.08078	-247.21779	106.08078
8550.00000	105.85677	-249.81910	105.85677
8600.00000	105.55712	-252.75027	105.55712
8650.00000	105.25453	-255.21834	105.25453
8700.00000	105.00996	-258.21338	105.00996
8750.00000	104.70005	-259.67551	104.70005
8800.00000	104.48229	-262.23705	104.48229
8850.00000	104.17503	-264.26677	104.17503
8900.00000	103.92513	-265.90112	103.92513
8950.00000	103.63816	-267.97759	103.63816
9000.00000	103.25848	-269.66448	103.25848
9050.00000	102.98136	-272.10235	102.98136
9100.00000	102.65660	-274.05571	102.65660
9150.00000	102.37211	-276.21285	102.37211
9200.00000	102.11104	-278.58397	102.11104
9250.00000	101.80002	-280.56849	101.80002
9300.00000	101.65601	-282.84225	101.65601
9350.00000	101.53759	-284.49667	101.53759
9400.00000	101.32356	-285.57226	101.32356
9450.00000	101.14968	-286.55578	101.14968
9500.00000	101.03964	-286.61869	101.03964
9550.00000	101.00954	-286.43579	101.00954
9600.00000	101.00635	-287.46913	101.00635
9650.00000	100.83732	-289.09298	100.83732
9700.00000	100.63695	-289.92187	100.63695
9750.00000	100.50703	-292.25320	100.50703
9800.00000	100.33216	-293.60160	100.33216
9850.00000	100.25588	-294.68518	100.25588
9900.00000	100.03259	-296.94556	100.03259
9950.00000	99.99243	-298.35326	99.99243
10000.00000	100.02515	-300.58250	100.02515
10050.00000	99.96988	-301.94439	99.96988
10100.00000	99.91457	-303.48352	99.91457
10150.00000	99.79751	-305.44402	99.79751
10200.00000	99.68469	-307.10131	99.68469
10250.00000	99.50401	-309.49459	99.50401
10300.00000	99.47405	-311.73642	99.47405
10350.00000	99.31584	-314.16990	99.31584
10400.00000	99.14672	-317.05487	99.14672
10450.00000	99.13922	-320.16289	99.13922
10500.00000	99.13206	-323.06266	99.13206
10550.00000	99.06994	-325.85326	99.06994
10600.00000	98.99965	-328.24586	98.99965
10650.00000	98.91087	-330.36543	98.91087
10700.00000	98.77702	-333.53581	98.77702
10750.00000	98.63058	-336.16992	98.63058
10800.00000	98.40207	-338.29840	98.40207
10850.00000	98.15774	-342.07133	98.15774
10900.00000	97.92899	-344.93153	97.92899
10950.00000	97.69618	-347.53621	97.69618
11000.00000	97.43950	-350.37678	97.43950
11050.00000	97.03571	-353.12773	97.03571
11100.00000	96.73973	-356.19381	96.73973
11150.00000	96.31580	-358.22569	96.31580
11200.00000	95.99847	-360.15627	95.99847
11250.00000	95.53848	-362.42987	95.53848
11300.00000	95.04719	-364.81750	95.04719
11350.00000	94.60904	-366.38362	94.60904
11400.00000	94.06639	-368.30479	94.06639
11450.00000	93.67330	-370.35181	93.67330
11500.00000	93.32904	-371.30527	93.32904
11550.00000	92.82839	-372.17392	92.82839
11600.00000	92.52515	-373.82173	92.52515
11650.00000	92.12665	-373.29604	92.12665
11700.00000	91.80873	-373.80296	91.80873
11750.00000	91.45340	-374.34988	91.45340
11800.00000	91.08071	-375.05959	91.08071
11850.00000	90.80060	-374.65690	90.80060
11900.00000	90.28971	-375.23459	90.28971
11950.00000	89.89035	-375.01039	89.89035
12000.00000	89.59543	-374.24989	89.59543
12050.00000	89.20206	-374.00847	89.20206
12100.00000	88.95852	-374.25556	88.95852
12150.00000	88.71184	-374.14908	88.71184
12200.00000	88.55684	-374.93483	88.55684
12250.00000	88.30865	-373.17618	88.30865
12300.00000	89.27514	-372.68974	89.27514
12350.00000	87.91997	-371.74693	87.91997
12400.00000	87.81061	-370.26154	87.81061
12450.00000	87.67952	-369.30961	87.67952
12500.00000	87.40141	-368.77083	87.40141
12550.00000	87.25751	-368.27374	87.25751
12600.00000	87.11497	-368.15140	87.11497
12650.00000	87.27893	-368.18211	87.27893
12700.00000	87.02509	-367.91372	87.02509
12750.00000	87.08358	-368.60958	87.08358
12800.00000	87.05334	-366.41593	87.05334
12850.00000	86.68497	-365.73225	86.68497
12900.00000	86.63113	-365.65702	86.63113
12950.00000	86.72368	-365.41209	86.72368
13000.00000	86.56893	-365.52089	86.56893
13050.00000	86.63217	-364.31667	86.63217
13100.00000	86.51840	-364.47594	86.51840
13150.00000	86.63364	-364.71282	86.63364
13200.00000	86.67482	-362.37724	86.67482
13250.00000	86.63302	-361.67749	86.63302
13300.00000	86.66158	-358.98595	86.66158
13350.00000	86.65971	-359.40961	86.65971
13400.00000	86.79237	-358.96753	86.79237
13450.00000	86.69705	-358.14839	86.69705
13500.00000	86.98343	-356.78408	86.98343
13550.00000	86.91312	-356.51058	86.91312
13600.00000	87.12999	-355.81693	87.12999
13650.00000	87.11623	-354.76500	87.11623
13700.00000	87.18439	-353.98069	87.18439
13750.00000	87.19738	-353.25902	87.19738
13800.00000	87.19969	-354.83971	87.19969
13850.00000	87.36480	-354.54545	87.36480
13900.00000	87.57538	-354.34193	87.57538
13950.00000	87.83999	-353.52604	87.83999
14000.00000	88.14062	-351.82723	88.14062
14050.00000	88.52097	-351.72328	88.52097
14100.00000	88.50769	-350.26246	88.50769
14150.00000	88.83164	-350.23899	88.83164
14200.00000	89.24621	-350.58964	89.24621
14250.00000	89.81045	-347.69506	89.81045
14300.00000	90.01737	-348.70122	90.01737
14350.00000	90.34938	-347.37049	90.34938
14400.00000	90.38533	-347.22715	90.38533
14450.00000	90.61953	-345.78851	90.61953
14500.00000	90.91691	-346.67064	90.91691
14550.00000	91.41080	-346.47901	91.41080
14600.00000	91.63987	-347.86261	91.63987
14650.00000	92.25108	-346.31497	92.25108
14700.00000	92.60916	-350.89223	92.60916
14750.00000	93.09561	-350.57591	93.09561
14800.00000	93.34989	-350.52414	93.34989
14850.00000	93.88680	-350.84613	93.88680
14900.00000	94.40759	-352.32732	94.40759
14950.00000	94.86418	-353.52349	94.86418
15000.00000	95.34635	-354.56023	95.34635
15050.00000	95.62944	-354.38710	95.62944
15100.00000	96.10010	-354.90290	96.10010
15150.00000	96.65731	-357.00438	96.65731
15200.00000	97.02099	-357.09708	97.02099
15250.00000	97.36874	-360.05667	97.36874
15300.00000	97.98462	-362.05273	97.98462
15350.00000	98.37658	-364.54399	98.37658
15400.00000	98.78452	-365.44833	98.78452
15450.00000	99.24044	-367.95323	99.24044
15500.00000	99.75989	-370.47798	99.75989
15550.00000	100.22684	-373.18278	100.22684
15600.00000	100.62972	-376.05881	100.62972
15650.00000	101.19515	-377.46730	101.19515
15700.00000	101.42235	-381.50597	101.42235
15750.00000	101.95872	-384.25434	101.95872
15800.00000	102.36735	-386.46378	102.36735
15850.00000	102.71930	-389.53456	102.71930
15900.00000	102.98274	-393.23665	102.98274
15950.00000	103.34940	-396.79039	103.34940
16000.00000	103.66106	-400.12881	103.66106
16050.00000	104.02417	-403.50448	104.02417
16100.00000	104.13182	-407.42274	104.13182
16150.00000	104.35627	-410.94984	104.35627
16200.00000	104.60376	-415.29027	104.60376
16250.00000	104.81081	-418.45579	104.81081
16300.00000	105.14362	-422.20008	105.14362
16350.00000	105.29011	-425.56458	105.29011
16400.00000	105.42855	-428.64615	105.42855
16450.00000	105.56174	-432.02896	105.56174
16500.00000	105.66801	-435.43022	105.66801
16550.00000	105.84672	-439.15361	105.84672
16600.00000	106.00164	-442.40943	106.00164
16650.00000	106.06009	-445.44850	106.06009
16700.00000	106.19351	-448.31690	106.19351
16750.00000	106.21683	-451.74659	106.21683
16800.00000	106.37786	-455.10779	106.37786
16850.00000	106.54524	-458.20954	106.54524
16900.00000	106.68705	-461.21309	106.68705
16950.00000	106.77015	-464.17459	106.77015
17000.00000	106.76810	-467.43086	106.76810
17050.00000	106.92007	-469.75009	106.92007
17100.00000	106.97635	-471.74718	106.97635
17150.00000	107.18819	-475.48230	107.18819
17200.00000	107.32039	-478.39902	107.32039
17250.00000	107.35629	-481.90658	107.35629
17300.00000	107.55834	-484.73391	107.55834
17350.00000	107.55188	-487.49585	107.55188
17400.00000	107.74212	-490.60762	107.74212
17450.00000	107.80871	-494.18920	107.80871
17500.00000	107.95822	-497.26594	107.95822
17550.00000	108.05942	-500.40458	108.05942
17600.00000	108.26457	-503.14876	108.26457
17650.00000	108.33254	-507.17354	108.33254
17700.00000	108.39036	-510.64057	108.39036
17750.00000	108.60752	-513.28511	108.60752
17800.00000	108.58399	-517.48902	108.58399
17850.00000	108.68803	-520.36282	108.68803
17900.00000	108.73452	-523.90989	108.73452
17950.00000	108.86870	-527.63889	108.86870
18000.00000	108.92121	-531.65312	108.92121
18050.00000	109.07389	-534.66634	109.07389
18100.00000	109.03830	-538.93429	109.03830
18150.00000	109.05222	-541.85861	109.05222
18200.00000	109.01129	-545.98736	109.01129
18250.00000	109.10754	-548.88561	109.10754
18300.00000	109.14906	-552.59230	109.14906
18350.00000	109.12810	-556.08228	109.12810
18400.00000	109.07391	-559.91533	109.07391
18450.00000	108.99387	-564.45297	108.99387
18500.00000	108.97645	-568.02801	108.97645
18550.00000	108.92509	-570.98819	108.92509
18600.00000	108.96403	-574.89993	108.96403
18650.00000	108.81265	-578.14622	108.81265
18700.00000	108.68729	-581.80957	108.68729
18750.00000	108.63777	-585.19965	108.63777
18800.00000	108.67987	-587.77253	108.67987
18850.00000	108.45925	-591.28552	108.45925
18900.00000	108.36652	-594.34526	108.36652
18950.00000	108.28007	-597.95648	108.28007
19000.00000	108.06864	-600.48645	108.06864
19050.00000	108.13332	-603.66150	108.13332
19100.00000	107.96032	-606.36848	107.96032
19150.00000	108.02178	-609.21659	108.02178
19200.00000	107.93934	-611.78069	107.93934
19250.00000	107.81488	-616.06862	107.81488
19300.00000	107.70982	-617.88942	107.70982
19350.00000	107.65649	-620.83988	107.65649
19400.00000	107.54392	-623.66890	107.54392
19450.00000	107.58459	-625.86434	107.58459
19500.00000	107.42997	-629.60970	107.42997
19550.00000	107.38999	-632.50047	107.38999
19600.00000	107.41278	-635.94480	107.41278
19650.00000	107.29112	-638.45716	107.29112
19700.00000	107.12653	-641.52785	107.12653
19750.00000	107.04402	-643.95054	107.04402
19800.00000	107.06006	-647.83572	107.06006
19850.00000	106.99898	-650.53556	106.99898
19900.00000	106.87435	-654.34596	106.87435
19950.00000	106.76220	-657.20488	106.76220
20000.00000	106.68258	-660.36041	106.68258
20050.00000	106.60057	-663.56790	106.60057
20100.00000	106.38556	-666.73187	106.38556
20150.00000	106.33282	-669.12454	106.33282
20200.00000	106.15584	-672.94353	106.15584
20250.00000	105.96400	-675.97632	105.96400
20300.00000	105.73889	-679.13583	105.73889
20350.00000	105.63586	-682.40169	105.63586
20400.00000	105.38960	-684.76094	105.38960
20450.00000	105.10655	-687.90488	105.10655
20500.00000	104.94010	-691.22468	104.94010
20550.00000	104.47572	-693.29629	104.47572
20600.00000	104.29635	-695.89558	104.29635
20650.00000	104.02609	-698.49594	104.02609
20700.00000	103.65943	-700.85126	103.65943
20750.00000	103.41633	-703.02738	103.41633
20800.00000	103.04767	-704.62130	103.04767
20850.00000	102.77126	-706.66721	102.77126
20900.00000	102.39972	-708.06826	102.39972
20950.00000	102.04379	-708.88652	102.04379
21000.00000	101.75346	-709.76664	101.75346
21050.00000	101.60516	-710.17524	101.60516
21100.00000	101.31631	-710.38710	101.31631
21150.00000	101.17659	-710.99574	101.17659
21200.00000	101.05966	-710.93195	101.05966
21250.00000	100.93205	-712.23898	100.93205
21300.00000	100.90302	-712.05064	100.90302
21350.00000	100.83078	-712.22252	100.83078
21400.00000	100.78259	-713.10145	100.78259
21450.00000	100.80995	-713.73487	100.80995
21500.00000	100.82306	-714.74148	100.82306
21550.00000	100.76578	-715.45754	100.76578
21600.00000	100.84430	-716.57898	100.84430
21650.00000	100.84290	-717.94191	100.84290
21700.00000	100.84311	-718.91478	100.84311
21750.00000	100.91108	-720.20577	100.91108
21800.00000	100.92338	-721.58024	100.92338
21850.00000	100.87376	-722.72477	100.87376
21900.00000	100.93953	-724.24641	100.93953
21950.00000	100.92227	-725.38968	100.92227
22000.00000	101.04299	-726.74392	101.04299
22050.00000	101.01200	-727.52974	101.01200
22100.00000	101.03888	-729.43737	101.03888
22150.00000	101.04731	-730.41014	101.04731
22200.00000	101.13278	-731.98361	101.13278
22250.00000	101.14748	-732.87931	101.14748
22300.00000	101.04820	-734.56221	101.04820
22350.00000	101.26264	-736.48051	101.26264
22400.00000	101.26660	-737.75993	101.26660
22450.00000	101.30619	-739.41989	101.30619
22500.00000	101.30700	-739.75750	101.30700
22550.00000	101.36535	-741.74200	101.36535
22600.00000	101.43467	-743.96288	101.43467
22650.00000	101.46024	-745.53316	101.46024
22700.00000	101.47406	-746.49679	101.47406
22750.00000	101.50121	-746.76515	101.50121
22800.00000	101.63351	-750.31073	101.63351
22850.00000	101.68172	-752.71237	101.68172
22900.00000	101.83292	-753.04629	101.83292
22950.00000	101.83381	-755.16328	101.83381
23000.00000	101.94893	-755.77933	101.94893
23050.00000	101.95333	-758.96308	101.95333
23100.00000	102.14716	-759.52771	102.14716
23150.00000	102.01325	-760.56815	102.01325
23200.00000	102.25986	-763.58588	102.25986
23250.00000	102.11706	-766.43504	102.11706
23300.00000	102.50474	-768.76882	102.50474
23350.00000	102.26195	-770.38309	102.26195
23400.00000	102.36040	-772.53565	102.36040
23450.00000	102.59023	-774.86988	102.59023
23500.00000	102.50179	-776.22819	102.50179
23550.00000	102.52425	-776.57746	102.52425
23600.00000	102.53937	-781.14900	102.53937
23650.00000	102.69247	-781.94251	102.69247
23700.00000	102.88380	-787.18798	102.88380
23750.00000	102.97286	-788.17736	102.97286
23800.00000	102.72015	-788.50173	102.72015
23850.00000	102.90048	-790.17850	102.90048
23900.00000	103.32447	-793.42433	103.32447
23950.00000	103.05164	-796.06099	103.05164
24000.00000	102.89297	-799.73910	102.89297
24050.00000	103.27249	-800.54299	103.27249
24100.00000	103.44284	-804.34859	103.44284
24150.00000	103.50357	-806.62656	103.50357
24200.00000	103.47952	-810.98548	103.47952
24250.00000	103.21097	-811.49294	103.21097
24300.00000	103.54870	-815.44912	103.54870
24350.00000	103.41200	-817.95781	103.41200
24400.00000	103.33055	-821.20140	103.33055
24450.00000	103.17248	-823.64714	103.17248
24500.00000	103.54195	-825.16004	103.54195
24550.00000	103.47135	-470.73629	103.47135
24600.00000	103.83845	-471.73647	103.83845
24650.00000	103.40574	-116.81755	103.40574
24700.00000	103.37594	242.84397	103.37594
24750.00000	103.31219	597.88221	103.31219
24800.00000	103.14938	955.46506	103.14938
24850.00000	102.83308	1313.81390	102.83308
24900.00000	102.82892	1672.33793	102.82892
24950.00000	102.94472	2029.01497	102.94472
25000.00000	102.81302	2020.15296	102.81302
25050.00000	102.84084	2021.76340	102.84084
25100.00000	102.30505	2017.77609	102.30505
25150.00000	102.66243	2016.93424	102.66243
25200.00000	102.29835	2012.84116	102.29835
25250.00000	102.34571	2012.06597	102.34571
25300.00000	102.27666	2010.54079	102.27666
25350.00000	102.13232	2004.63949	102.13232
25400.00000	102.08727	2000.38407	102.08727
25450.00000	102.08717	2000.33092	102.08717
25500.00000	101.72093	1997.27159	101.72093
25550.00000	101.69829	1994.94486	101.69829
25600.00000	101.78115	1992.68021	101.78115
25650.00000	101.55833	1991.41771	101.55833
25700.00000	101.52535	1988.14304	101.52535
25750.00000	101.23593	1986.15636	101.23593
25800.00000	101.20097	1982.25164	101.20097
25850.00000	101.03030	1980.53583	101.03030
25900.00000	100.98173	1977.08346	100.98173
25950.00000	100.74563	1978.68077	100.74563
26000.00000	100.73594	1973.67519	100.73594
26050.00000	100.56454	1971.92353	100.56454
26100.00000	100.47466	1969.79634	100.47466
26150.00000	100.20430	1967.37628	100.20430
26200.00000	100.29938	1965.47681	100.29938
26250.00000	100.12125	1963.18201	100.12125
26300.00000	100.21490	1960.54812	100.21490
26350.00000	99.64663	1959.39573	99.64663
26400.00000	99.58490	1957.83272	99.58490
26450.00000	99.74301	1954.48866	99.74301
26500.00000	99.46272	1952.59583	99.46272
26550.00000	99.19029	1947.58070	99.19029
26600.00000	98.93809	1946.27985	98.93809
26650.00000	99.08487	1947.17300	99.08487
26700.00000	98.95227	1945.21880	98.95227
26750.00000	98.64747	1942.55309	98.64747
26800.00000	98.44896	1938.74925	98.44896
26850.00000	98.70383	1939.08468	98.70383
26900.00000	98.45527	1937.86539	98.45527
26950.00000	98.55678	1935.44389	98.55678
27000.00000	98.06212	1934.82349	98.06212
27050.00000	98.19096	1932.55825	98.19096
27100.00000	97.75691	1931.76500	97.75691
27150.00000	97.66791	1930.26506	97.66791
27200.00000	97.90397	1929.08443	97.90397
27250.00000	97.28520	1929.76013	97.28520
27300.00000	97.02648	1927.06451	97.02648
27350.00000	97.31137	1927.91356	97.31137
27400.00000	96.87514	1926.49069	96.87514
27450.00000	96.81734	1926.04086	96.81734
27500.00000	96.93270	1926.02603	96.93270
27550.00000	97.03208	1923.87697	97.03208
27600.00000	97.21641	1922.45077	97.21641
27650.00000	96.93182	1923.57098	96.93182
27700.00000	96.97003	1919.58069	96.97003
27750.00000	97.04422	1918.49542	97.04422
27800.00000	97.24963	1916.13134	97.24963
27850.00000	97.66642	1919.82957	97.66642
27900.00000	97.22502	1916.97258	97.22502
27950.00000	96.90530	1916.38402	96.90530
28000.00000	97.15875	1915.35121	97.15875
28050.00000	97.83771	1913.20635	97.83771
28100.00000	97.43091	1912.05056	97.43091
28150.00000	97.48945	1911.39926	97.48945
28200.00000	97.98296	1906.87541	97.98296
28250.00000	97.70344	1904.81604	97.70344
28300.00000	97.62335	1905.90810	97.62335
28350.00000	97.97164	1904.12475	97.97164
28400.00000	98.02108	1903.25456	98.02108
28450.00000	98.75118	1899.09826	98.75118
28500.00000	98.23915	1898.46599	98.23915
28550.00000	98.33436	1899.61214	98.33436
28600.00000	98.39619	1896.04673	98.39619
28650.00000	98.82495	1892.08951	98.82495
28700.00000	98.85793	1891.82645	98.85793
28750.00000	99.31194	1891.27358	99.31194
28800.00000	99.31830	1889.51232	99.31830
28850.00000	98.60419	1884.28952	98.60419
28900.00000	99.01956	1882.92969	99.01956
28950.00000	98.95853	1882.17922	98.95853
29000.00000	99.19594	1880.02108	99.19594
29050.00000	98.88522	1879.26874	98.88522
29100.00000	99.04239	1878.07369	99.04239
29150.00000	98.80175	1876.11338	98.80175
29200.00000	98.68228	1872.13338	98.68228
29250.00000	99.24946	1871.67166	99.24946
29300.00000	99.03416	1868.85301	99.03416
29350.00000	99.32205	1865.44498	99.32205
29400.00000	99.16685	1864.28482	99.16685
29450.00000	99.09043	1863.18467	99.09043
29500.00000	99.39164	1861.64628	99.39164
29550.00000	99.23470	1856.77340	99.23470
29600.00000	99.00342	1856.24883	99.00342
29650.00000	99.18912	1853.83232	99.18912
29700.00000	99.04356	1853.87871	99.04356
29750.00000	98.98439	1853.18725	98.98439
29800.00000	98.71399	1850.00594	98.71399
29850.00000	98.85675	1847.86154	98.85675
29900.00000	99.18346	1847.80021	99.18346
29950.00000	98.22782	1846.33635	98.22782
30000.00000	98.65407	1846.89772	98.65407
30050.00000	98.89161	1843.19523	98.89161
30100.00000	98.45553	1844.19125	98.45553
30150.00000	98.60098	1840.39200	98.60098
30200.00000	98.64923	1838.25975	98.64923
30250.00000	98.35177	1838.64331	98.35177
30300.00000	98.19892	1837.97412	98.19892
30350.00000	98.26930	1839.21567	98.26930
30400.00000	98.32451	1836.95917	98.32451
30450.00000	97.98650	1836.48736	97.98650
30500.00000	98.07045	1835.73819	98.07045
30550.00000	98.02990	1837.02365	98.02990
30600.00000	98.04870	1836.68360	98.04870
30650.00000	98.17437	1836.88544	98.17437
30700.00000	98.31502	1835.85656	98.31502
30750.00000	98.17207	1837.24882	98.17207
30800.00000	98.43053	1837.53840	98.43053
30850.00000	98.66740	1838.85618	98.66740
30900.00000	98.62479	1840.22915	98.62479
30950.00000	99.09683	1839.10963	99.09683
31000.00000	99.42092	1838.22234	99.42092
31050.00000	99.76360	1839.25463	99.76360
31100.00000	100.35260	1839.34918	100.35260
31150.00000	100.37265	1838.23387	100.37265
31200.00000	101.23559	1837.42798	101.23559
31250.00000	101.58557	1836.76351	101.58557
31300.00000	102.00249	1834.75094	102.00249
31350.00000	102.53775	1833.55418	102.53775
31400.00000	102.87617	1830.49906	102.87617
31450.00000	103.34664	1828.78359	103.34664
31500.00000	103.78534	1825.46795	103.78534
31550.00000	104.19303	1823.16965	104.19303
31600.00000	104.75123	1819.59668	104.75123
31650.00000	105.12543	1816.50041	105.12543
31700.00000	105.40771	1813.56619	105.40771
31750.00000	105.84264	1811.29732	105.84264
31800.00000	106.11795	1806.51648	106.11795
31850.00000	106.50676	1802.54474	106.50676
31900.00000	106.52026	1799.59872	106.52026
31950.00000	107.00264	1796.05764	107.00264
32000.00000	107.16333	1792.19176	107.16333
32050.00000	107.41063	1788.11984	107.41063
32100.00000	107.58739	1783.92582	107.58739
32150.00000	107.80396	1780.55025	107.80396
32200.00000	107.99373	1776.62468	107.99373
32250.00000	108.21782	1772.15580	108.21782
32300.00000	108.29763	1768.46213	108.29763
32350.00000	108.35300	1765.51775	108.35300
32400.00000	108.52314	1761.75453	108.52314
32450.00000	108.56478	1757.57171	108.56478
32500.00000	108.75759	1754.06751	108.75759
32550.00000	108.88568	1749.14065	108.88568
32600.00000	108.91075	1745.81286	108.91075
32650.00000	109.01972	1741.56080	109.01972
32700.00000	108.90171	1737.01182	108.90171
32750.00000	108.88560	1733.09517	108.88560
32800.00000	109.12645	1729.89170	109.12645
32850.00000	109.08549	1725.28067	109.08549
32900.00000	108.85967	1720.64422	108.85967
32950.00000	108.70526	1716.45591	108.70526
33000.00000	108.67377	1713.86691	108.67377
33050.00000	108.53160	1709.48684	108.53160
33100.00000	108.56720	1706.15888	108.56720
33150.00000	108.38535	1702.39293	108.38535
33200.00000	108.32817	1700.12976	108.32817
33250.00000	108.02508	1696.66493	108.02508
33300.00000	107.93005	1692.83988	107.93005
33350.00000	107.65824	1689.09866	107.65824
33400.00000	107.45276	1687.07549	107.45276
33450.00000	107.43325	1683.15148	107.43325
33500.00000	107.32363	1682.08383	107.32363
33550.00000	106.78040	1677.84436	106.78040
33600.00000	106.91304	1674.50265	106.91304
33650.00000	106.63157	1671.88727	106.63157
33700.00000	106.37415	1670.64511	106.37415
33750.00000	106.11516	1667.14085	106.11516
33800.00000	105.99038	1664.66861	105.99038
33850.00000	105.51282	1663.86154	105.51282
33900.00000	105.55275	1661.17512	105.55275
33950.00000	105.22298	1658.85623	105.22298
34000.00000	105.02107	1657.31398	105.02107
34050.00000	104.80694	1655.99385	104.80694
34100.00000	104.48204	1655.74013	104.48204
34150.00000	104.26530	1651.82510	104.26530
34200.00000	104.21942	1654.08543	104.21942
34250.00000	104.02003	1649.49576	104.02003
34300.00000	103.61060	1648.69836	103.61060
34350.00000	103.60496	1649.07106	103.60496
34400.00000	103.24597	1648.41541	103.24597
34450.00000	103.05863	1645.67401	103.05863
34500.00000	102.77505	1646.56752	102.77505
34550.00000	103.04791	1647.15476	103.04791
34600.00000	102.50006	1645.30109	102.50006
34650.00000	102.80511	1646.30457	102.80511
34700.00000	102.32138	1646.14145	102.32138
34750.00000	102.70450	1641.59218	102.70450
34800.00000	102.62364	1645.54679	102.62364
34850.00000	102.68269	1646.76115	102.68269
34900.00000	102.78478	1642.93839	102.78478
34950.00000	102.48897	1644.84026	102.48897
35000.00000	102.59329	1644.70074	102.59329
35050.00000	102.84420	1644.27678	102.84420
35100.00000	103.02549	1643.32968	103.02549
35150.00000	102.68517	1645.12407	102.68517
35200.00000	102.90055	1643.42473	102.90055
35250.00000	102.96012	1641.34877	102.96012
35300.00000	103.12979	1641.94399	103.12979
35350.00000	103.40998	1642.20299	103.40998
35400.00000	103.50371	1639.33083	103.50371
35450.00000	103.44142	1639.93111	103.44142
35500.00000	103.18397	1640.00053	103.18397
35550.00000	103.87294	1639.47528	103.87294
35600.00000	103.78724	1639.95094	103.78724
35650.00000	104.27073	1638.90283	104.27073
35700.00000	104.40186	1638.27353	104.40186
35750.00000	104.37441	1637.21166	104.37441
35800.00000	104.53019	1636.12569	104.53019
35850.00000	104.70437	1635.05014	104.70437
35900.00000	104.82008	1635.65765	104.82008
35950.00000	105.48643	1632.21297	105.48643
36000.00000	105.19975	1632.86211	105.19975
36050.00000	105.92512	1631.14052	105.92512
36100.00000	106.08802	1629.12424	106.08802
36150.00000	106.06160	1627.93033	106.06160
36200.00000	106.02494	1630.04662	106.02494
36250.00000	106.39023	1626.63888	106.39023
36300.00000	106.28706	1625.63477	106.28706
36350.00000	106.73366	1624.83149	106.73366
36400.00000	106.98816	1623.49121	106.98816
36450.00000	106.99965	1623.42618	106.99965
36500.00000	107.67766	1622.20005	107.67766
36550.00000	107.52280	1618.35210	107.52280
36600.00000	107.88596	1617.56080	107.88596
36650.00000	108.20148	1616.05967	108.20148
36700.00000	108.56360	1612.46445	108.56360
36750.00000	108.48959	1611.19741	108.48959
36800.00000	108.79760	1611.68398	108.79760
36850.00000	108.89766	1608.60404	108.89766
36900.00000	109.39035	1606.65622	109.39035
36950.00000	109.37257	1604.56304	109.37257
37000.00000	109.42574	1603.48147	109.42574
37050.00000	109.66537	1601.23521	109.66537
37100.00000	109.98986	1598.23287	109.98986
37150.00000	110.14371	1595.50728	110.14371
37200.00000	110.79266	1595.02588	110.79266
37250.00000	110.67778	1591.58734	110.67778
37300.00000	110.94959	1589.10313	110.94959
37350.00000	111.32546	1585.37929	111.32546
37400.00000	111.36242	1584.55879	111.36242
37450.00000	111.54012	1582.70962	111.54012
37500.00000	112.19918	1579.20382	112.19918
37550.00000	112.17985	1576.20211	112.17985
37600.00000	112.47365	1573.27566	112.47365
37650.00000	112.72302	1570.78052	112.72302
37700.00000	113.06004	1566.46328	113.06004
37750.00000	113.35902	1564.09209	113.35902
37800.00000	113.52845	1560.14450	113.52845
37850.00000	113.95934	1555.47475	113.95934
37900.00000	114.23193	1552.19204	114.23193
37950.00000	114.54950	1549.18773	114.54950
38000.00000	114.62003	1545.70261	114.62003
38050.00000	115.04055	1541.36828	115.04055
38100.00000	115.43445	1537.08196	115.43445
38150.00000	115.62229	1532.19507	115.62229
38200.00000	116.05957	1527.15549	116.05957
38250.00000	116.22999	1523.17807	116.22999
38300.00000	116.57344	1518.06792	116.57344
38350.00000	116.72539	1513.79202	116.72539
38400.00000	116.97240	1508.80589	116.97240
38450.00000	117.18702	1503.38716	117.18702
38500.00000	117.49626	1498.11181	117.49626
38550.00000	117.79981	1493.49439	117.79981
38600.00000	118.04089	1488.06863	118.04089
38650.00000	118.20854	1482.31777	118.20854
38700.00000	118.33449	1476.87272	118.33449
38750.00000	118.47704	1471.60311	118.47704
38800.00000	118.67453	1466.47438	118.67453
38850.00000	118.87763	1460.56757	118.87763
38900.00000	118.99592	1454.95135	118.99592
38950.00000	119.02938	1448.86653	119.02938
39000.00000	119.15248	1443.28562	119.15248
39050.00000	119.25642	1437.77969	119.25642
39100.00000	119.15650	1432.26165	119.15650
39150.00000	119.17868	1426.48025	119.17868
39200.00000	119.25978	1420.98208	119.25978
39250.00000	119.23948	1415.04333	119.23948
39300.00000	119.20375	1409.05370	119.20375
39350.00000	119.06227	1403.93116	119.06227
39400.00000	119.00029	1398.24138	119.00029
39450.00000	118.85809	1392.85341	118.85809
39500.00000	118.77873	1387.69914	118.77873
39550.00000	118.58752	1382.13691	118.58752
39600.00000	118.36251	1376.77437	118.36251
39650.00000	118.18986	1371.94419	118.18986
39700.00000	117.91455	1366.81844	117.91455
39750.00000	117.75480	1361.71931	117.75480
39800.00000	117.48982	1356.76106	117.48982
39850.00000	117.19497	1352.05468	117.19497
39900.00000	116.90839	1347.31247	116.90839
39950.00000	116.63139	1342.99007	116.63139
40000.00000	116.13394	1340.10722	116.13394
40050.00000	115.92282	1334.39377	115.92282
40100.00000	115.62532	1330.30013	115.62532
40150.00000	115.17381	1326.34334	115.17381
40200.00000	114.80904	1322.05293	114.80904
40250.00000	114.40949	1318.83810	114.40949
40300.00000	114.08435	1315.89160	114.08435
40350.00000	113.43826	1312.30808	113.43826
40400.00000	113.01490	1308.94059	113.01490
40450.00000	112.60895	1306.05041	112.60895
40500.00000	112.32289	1303.83149	112.32289
40550.00000	111.77127	1300.47859	111.77127
40600.00000	111.31439	1298.43366	111.31439
40650.00000	110.80214	1296.83675	110.80214
40700.00000	110.18320	1295.60339	110.18320
40750.00000	109.96035	1293.53052	109.96035
40800.00000	109.42899	1291.96135	109.42899
40850.00000	108.94138	1291.01617	108.94138
40900.00000	108.60772	1290.04664	108.60772
40950.00000	108.00414	1290.07323	108.00414
41000.00000	107.46017	1289.45467	107.46017
41050.00000	107.23653	1289.16024	107.23653
41100.00000	106.79285	1288.27390	106.79285
41150.00000	106.67878	1291.10578	106.67878
41200.00000	106.20873	1290.35061	106.20873
41250.00000	105.94455	1288.34752	105.94455
41300.00000	105.46889	1289.98806	105.46889
41350.00000	105.38611	1291.09153	105.38611
41400.00000	104.98778	1286.86173	104.98778
41450.00000	104.99187	1290.49917	104.99187
41500.00000	104.57270	1292.29853	104.57270
41550.00000	104.40902	1296.55101	104.40902
41600.00000	104.05808	1294.33994	104.05808
41650.00000	104.19466	1293.95112	104.19466
41700.00000	104.25558	1293.67312	104.25558
41750.00000	103.73746	1297.98322	103.73746
41800.00000	103.10293	1294.82259	103.10293
41850.00000	102.95393	1300.62364	102.95393
41900.00000	102.83092	1295.39787	102.83092
41950.00000	103.73803	1299.41287	103.73803
42000.00000	102.65412	1295.69173	102.65412
42050.00000	101.38238	1294.27275	101.38238
42100.00000	101.83974	1301.88594	101.83974
42150.00000	101.58187	1291.32612	101.58187
42200.00000	101.22521	1298.35897	101.22521
42250.00000	101.11466	1298.94174	101.11466
42300.00000	100.21000	1293.13674	100.21000
42350.00000	100.27459	1295.47601	100.27459
42400.00000	100.69101	1294.36173	100.69101
42450.00000	100.81259	1289.93126	100.81259
42500.00000	100.19845	1290.26847	100.19845
42550.00000	100.04822	1298.12624	100.04822
42600.00000	100.22958	1290.24731	100.22958
42650.00000	100.03105	1293.98495	100.03105
42700.00000	99.90982	1290.06100	99.90982
42750.00000	101.19866	1286.12408	101.19866
42800.00000	99.88209	1276.97215	99.88209
42850.00000	99.70150	1277.76673	99.70150
42900.00000	101.32685	1282.08131	101.32685
42950.00000	100.76563	1276.44134	100.76563
43000.00000	100.81193	1258.84900	100.81193
43050.00000	100.95615	1260.99052	100.95615
43100.00000	102.17954	1263.39086	102.17954
43150.00000	101.43184	1258.86339	101.43184
43200.00000	102.36566	1253.04831	102.36566
43250.00000	102.70659	1249.94992	102.70659
43300.00000	103.06725	1245.22923	103.06725
43350.00000	104.05924	1240.51695	104.05924
43400.00000	103.28638	1233.49988	103.28638
43450.00000	104.70391	1238.06351	104.70391
43500.00000	103.54436	1224.92682	103.54436
43550.00000	104.79012	1222.28102	104.79012
43600.00000	104.44364	1219.32517	104.44364
43650.00000	105.20895	1210.54504	105.20895
43700.00000	105.42454	1209.30192	105.42454
43750.00000	104.97882	1206.74993	104.97882
43800.00000	105.47626	1201.04297	105.47626
43850.00000	106.12361	1195.63868	106.12361
43900.00000	106.51664	1191.84169	106.51664
43950.00000	106.56120	1187.19361	106.56120
44000.00000	106.40015	1183.20852	106.40015
44050.00000	106.71011	1176.87341	106.71011
44100.00000	107.28573	1165.46411	107.28573
44150.00000	107.06798	1167.61648	107.06798
44200.00000	107.07753	1166.48128	107.07753
44250.00000	107.31933	1158.47437	107.31933
44300.00000	107.53909	1152.21920	107.53909
44350.00000	106.69179	1147.69593	106.69179
44400.00000	107.62945	1144.98327	107.62945
44450.00000	107.92986	1141.44962	107.92986
44500.00000	107.61333	1138.23557	107.61333
44550.00000	108.72650	1128.80284	108.72650
44600.00000	107.57674	1131.42326	107.57674
44650.00000	107.07005	1122.64073	107.07005
44700.00000	107.09577	1118.40380	107.09577
44750.00000	107.26524	1117.65969	107.26524
44800.00000	107.66950	1111.23010	107.66950
44850.00000	107.37264	1104.44442	107.37264
44900.00000	106.90369	1103.84986	106.90369
44950.00000	106.95947	1099.12634	106.95947
45000.00000	107.17116	1090.10524	107.17116
45050.00000	105.61719	1096.22301	105.61719
45100.00000	105.71043	1088.99600	105.71043
45150.00000	105.99783	1079.08483	105.99783
45200.00000	105.39406	1083.70138	105.39406
45250.00000	105.91402	1078.82414	105.91402
45300.00000	105.18287	1075.38639	105.18287
45350.00000	104.86400	1067.98413	104.86400
45400.00000	104.80528	1069.24629	104.80528
45450.00000	104.75681	1061.41610	104.75681
45500.00000	103.33762	1055.92984	103.33762
45550.00000	103.47450	1058.24332	103.47450
45600.00000	104.31401	1049.47284	104.31401
45650.00000	102.75916	1045.33981	102.75916
45700.00000	102.23875	1046.50419	102.23875
45750.00000	103.30457	1049.11806	103.30457
45800.00000	102.21033	1040.40381	102.21033
45850.00000	102.36760	1040.24583	102.36760
45900.00000	101.80671	1038.99891	101.80671
45950.00000	101.30401	1040.86412	101.30401
46000.00000	99.95924	1020.26476	99.95924
46050.00000	100.07356	1022.17301	100.07356
46100.00000	99.03537	1026.99904	99.03537
46150.00000	99.03417	1028.60846	99.03417
46200.00000	96.82334	1020.96570	96.82334
46250.00000	98.30946	1019.09686	98.30946
46300.00000	97.24057	1021.67214	97.24057
46350.00000	98.78656	1014.42119	98.78656
46400.00000	96.44092	1012.74108	96.44092
46450.00000	95.22412	1016.46322	95.22412
46500.00000	95.90589	1017.97924	95.90589
46550.00000	95.52378	1023.31323	95.52378
46600.00000	96.46613	1022.06100	96.46613
46650.00000	93.38912	1017.51668	93.38912
46700.00000	93.56087	1024.23845	93.56087
46750.00000	94.48191	1034.60470	94.48191
46800.00000	92.38241	1025.56524	92.38241
46850.00000	93.81008	680.23652	93.81008
46900.00000	94.09099	666.44345	94.09099
46950.00000	94.23635	673.72005	94.23635
47000.00000	94.16108	678.92470	94.16108
47050.00000	95.66043	668.00172	95.66043
47100.00000	94.42825	665.98514	94.42825
47150.00000	95.60629	669.24981	95.60629
47200.00000	93.90331	666.07519	93.90331
47250.00000	95.93497	666.94924	95.93497
47300.00000	95.74562	657.72000	95.74562
47350.00000	95.22521	308.66726	95.22521
47400.00000	94.51668	306.57139	94.51668
47450.00000	95.78628	303.67521	95.78628
47500.00000	93.97060	295.79695	93.97060
47550.00000	93.89718	-59.62081	93.89718
47600.00000	95.97913	-63.53609	95.97913
47650.00000	95.56371	-65.66890	95.56371
47700.00000	94.68179	-68.28846	94.68179
47750.00000	93.03843	-61.46143	93.03843
47800.00000	93.48220	-79.20906	93.48220
47850.00000	94.18757	-428.56935	94.18757
47900.00000	94.16488	-777.74155	94.16488
47950.00000	93.40831	-779.89022	93.40831
48000.00000	93.46109	-775.63663	93.46109
48050.00000	95.41605	-788.69112	95.41605
48100.00000	92.94694	-787.75585	92.94694
48150.00000	94.14612	-1141.62534	94.14612
48200.00000	93.91787	-1139.97451	93.91787
48250.00000	93.75524	-1147.18501	93.75524
48300.00000	94.11816	-1147.40939	94.11816
48350.00000	94.58828	-1149.24929	94.58828
48400.00000	94.50178	-1494.36009	94.50178
48450.00000	96.02310	-1504.83693	96.02310
48500.00000	94.86323	-1507.13706	94.86323
48550.00000	94.23901	-1514.46327	94.23901
48600.00000	96.30957	-1867.97297	96.30957
48650.00000	96.55463	-1867.74235	96.55463
48700.00000	96.97020	-1878.63227	96.97020
48750.00000	95.55512	-2228.06540	95.55512
48800.00000	96.65514	-2237.20330	96.65514
48850.00000	96.80049	-2239.50297	96.80049
48900.00000	95.48756	-2598.94519	95.48756
48950.00000	97.23854	-2611.09115	97.23854
49000.00000	97.68550	-2614.94095	97.68550
49050.00000	96.83899	-2617.44628	96.83899
49100.00000	96.55814	-2975.66692	96.55814
49150.00000	97.90832	-3337.09338	97.90832
49200.00000	97.00434	-3349.38485	97.00434
49250.00000	97.40752	-3699.53356	97.40752
49300.00000	98.21279	-3355.56015	98.21279
49350.00000	95.69170	-3341.03305	95.69170
49400.00000	95.64758	-2997.75549	95.64758
49450.00000	94.87949	-2642.83241	94.87949
49500.00000	94.58342	-2293.97805	94.58342
49550.00000	94.22561	-1946.56412	94.22561
49600.00000	93.53179	-1933.46681	93.53179
49650.00000	95.02776	-1928.16171	95.02776
49700.00000	93.13205	-1598.37909	93.13205
49750.00000	93.19856	-1595.90089	93.19856
49800.00000	91.16716	-1594.35703	91.16716
49850.00000	90.09890	-1584.99840	90.09890
49900.00000	87.84836	-1214.29133	87.84836
49950.00000	83.14632	-886.14177	83.14632
