---ACOUSTIC CALIBRATION---
Filename: C:\Data\AZH DATA\AZH81\RightPrimary.calib
Date: 8/27/2019 4:24:55 PM
Format: 4
Probe Tube Correction File: C:\Data\Probe Tube Calibrations\50_ProbeTube.calib
Experiment VIs: 850
EPL_CFTS.exe V12.0.1 (2012)
DAQmx V9.6

Attenuation (dB): 40.000000
Min Freq (Hz): 50.000000
Max Freq (Hz): 49950.000000
Freq Step (Hz): 50.000000
Sample Rate (Hz): 100000.000000
[Smoothing]
Method=None
MA.Iterations=0
MA.Length=0
Loess.Length=0
Loess.Type=Linear
Loess.Robust=FALSE


Freq(Hz)	Mag(dB)	Phase(deg)	Unsmoothed(dB)

50.00000	109.38729	494.67878	109.38729
100.00000	81.52935	556.02923	81.52935
150.00000	82.48597	481.87453	82.48597
200.00000	84.10159	458.37712	84.10159
250.00000	93.38949	439.90035	93.38949
300.00000	90.97812	388.34112	90.97812
350.00000	87.86778	393.40228	87.86778
400.00000	87.18918	390.26563	87.18918
450.00000	89.72418	367.47427	89.72418
500.00000	93.03758	368.46986	93.03758
550.00000	94.15565	377.52342	94.15565
600.00000	97.83716	365.15986	97.83716
650.00000	99.30493	354.34335	99.30493
700.00000	101.72407	337.20516	101.72407
750.00000	103.10487	318.85011	103.10487
800.00000	104.20421	295.72292	104.20421
850.00000	103.42541	279.17652	103.42541
900.00000	102.08107	261.97051	102.08107
950.00000	100.15654	258.40323	100.15654
1000.00000	98.84946	257.00438	98.84946
1050.00000	96.63439	269.29344	96.63439
1100.00000	97.48270	289.80293	97.48270
1150.00000	100.16887	300.67742	100.16887
1200.00000	103.15443	298.40358	103.15443
1250.00000	104.98866	291.92032	104.98866
1300.00000	106.78637	285.99612	106.78637
1350.00000	108.11608	277.21505	108.11608
1400.00000	109.12844	268.57070	109.12844
1450.00000	110.07687	262.75023	110.07687
1500.00000	111.14483	255.45983	111.14483
1550.00000	111.86934	247.37584	111.86934
1600.00000	113.43468	237.88752	113.43468
1650.00000	114.46605	221.82678	114.46605
1700.00000	113.38682	211.42350	113.38682
1750.00000	113.20481	205.14033	113.20481
1800.00000	113.01273	199.92427	113.01273
1850.00000	113.04475	197.97301	113.04475
1900.00000	114.11084	194.16239	114.11084
1950.00000	114.88645	181.24848	114.88645
2000.00000	114.06635	168.42134	114.06635
2050.00000	112.51015	170.67691	112.51015
2100.00000	114.09522	172.57848	114.09522
2150.00000	114.97452	162.12286	114.97452
2200.00000	114.95913	151.23130	114.95913
2250.00000	114.36722	144.35336	114.36722
2300.00000	114.48587	138.15015	114.48587
2350.00000	114.20361	131.97623	114.20361
2400.00000	113.99196	126.07605	113.99196
2450.00000	113.62858	119.81688	113.62858
2500.00000	113.31010	114.33479	113.31010
2550.00000	112.83928	109.20636	112.83928
2600.00000	112.35634	104.92414	112.35634
2650.00000	111.85354	100.89636	111.85354
2700.00000	111.41809	97.06982	111.41809
2750.00000	110.83341	93.68319	110.83341
2800.00000	110.25822	91.08041	110.25822
2850.00000	109.70659	88.76967	109.70659
2900.00000	109.17725	86.40606	109.17725
2950.00000	108.61462	85.38687	108.61462
3000.00000	108.06961	83.96383	108.06961
3050.00000	107.42401	82.93243	107.42401
3100.00000	106.85338	82.74075	106.85338
3150.00000	105.99279	81.17340	105.99279
3200.00000	104.82901	83.73021	104.82901
3250.00000	103.80802	89.99785	103.80802
3300.00000	102.96322	97.77225	102.96322
3350.00000	102.26382	110.48714	102.26382
3400.00000	102.84697	129.55081	102.84697
3450.00000	104.94367	142.67590	104.94367
3500.00000	107.53299	148.26774	107.53299
3550.00000	109.73165	147.64971	109.73165
3600.00000	111.73952	145.13609	111.73952
3650.00000	113.35721	140.57767	113.35721
3700.00000	114.71657	135.96571	114.71657
3750.00000	116.07719	131.10026	116.07719
3800.00000	117.32873	125.24320	117.32873
3850.00000	118.40565	118.83313	118.40565
3900.00000	119.44458	112.51105	119.44458
3950.00000	120.44544	105.63688	120.44544
4000.00000	121.33363	98.25866	121.33363
4050.00000	122.16329	91.09961	122.16329
4100.00000	123.02986	83.82244	123.02986
4150.00000	124.08799	75.63245	124.08799
4200.00000	124.90818	66.01700	124.90818
4250.00000	125.67786	55.02742	125.67786
4300.00000	126.25187	42.84751	126.25187
4350.00000	126.48671	29.98994	126.48671
4400.00000	126.42895	17.75315	126.42895
4450.00000	126.15968	 6.16306	126.15968
4500.00000	125.75449	-4.21835	125.75449
4550.00000	125.28907	-13.98618	125.28907
4600.00000	124.74781	-22.93052	124.74781
4650.00000	124.24617	-31.18668	124.24617
4700.00000	123.67516	-39.64923	123.67516
4750.00000	123.00932	-48.15504	123.00932
4800.00000	122.17133	-56.56700	122.17133
4850.00000	121.08391	-64.36953	121.08391
4900.00000	119.75924	-70.43390	119.75924
4950.00000	118.36308	-73.89458	118.36308
5000.00000	117.00765	-74.88152	117.00765
5050.00000	115.90182	-74.68767	115.90182
5100.00000	114.69027	-71.60855	114.69027
5150.00000	114.42737	-65.41896	114.42737
5200.00000	113.62968	-63.25664	113.62968
5250.00000	114.00106	-47.70340	114.00106
5300.00000	117.02119	-48.18478	117.02119
5350.00000	118.03897	-62.51670	118.03897
5400.00000	117.64689	-72.77493	117.64689
5450.00000	117.10431	-78.30882	117.10431
5500.00000	116.64711	-82.19069	116.64711
5550.00000	116.31997	-85.09257	116.31997
5600.00000	116.04931	-87.83147	116.04931
5650.00000	115.83865	-90.28700	115.83865
5700.00000	115.65675	-92.99491	115.65675
5750.00000	115.51270	-95.55573	115.51270
5800.00000	115.33975	-98.14148	115.33975
5850.00000	115.22621	-100.78799	115.22621
5900.00000	115.09083	-103.26903	115.09083
5950.00000	114.99028	-105.80438	114.99028
6000.00000	114.88071	-108.20262	114.88071
6050.00000	114.78667	-110.68774	114.78667
6100.00000	114.70194	-113.16521	114.70194
6150.00000	114.63589	-115.66910	114.63589
6200.00000	114.57257	-118.20469	114.57257
6250.00000	114.54368	-120.82767	114.54368
6300.00000	114.51542	-123.52976	114.51542
6350.00000	114.46960	-126.40048	114.46960
6400.00000	114.42240	-129.25508	114.42240
6450.00000	114.39371	-132.17201	114.39371
6500.00000	114.31987	-135.12104	114.31987
6550.00000	114.25640	-138.05745	114.25640
6600.00000	114.19992	-140.89391	114.19992
6650.00000	114.16582	-143.59992	114.16582
6700.00000	114.14256	-146.67149	114.14256
6750.00000	114.11347	-149.58729	114.11347
6800.00000	114.08656	-152.49966	114.08656
6850.00000	114.06030	-155.54615	114.06030
6900.00000	114.05622	-158.56854	114.05622
6950.00000	114.03302	-161.62121	114.03302
7000.00000	114.04755	-164.82836	114.04755
7050.00000	114.03022	-168.22489	114.03022
7100.00000	114.04324	-171.68882	114.04324
7150.00000	114.03511	-175.15643	114.03511
7200.00000	114.01818	-178.93125	114.01818
7250.00000	113.97389	-182.84088	113.97389
7300.00000	113.96278	-186.75886	113.96278
7350.00000	113.89380	-190.74311	113.89380
7400.00000	113.81928	-194.99369	113.81928
7450.00000	113.72860	-199.30778	113.72860
7500.00000	113.62732	-203.83557	113.62732
7550.00000	113.46375	-208.03617	113.46375
7600.00000	113.27131	-212.42932	113.27131
7650.00000	113.06881	-216.79026	113.06881
7700.00000	112.88598	-221.17334	112.88598
7750.00000	112.58106	-225.59979	112.58106
7800.00000	112.29541	-229.88058	112.29541
7850.00000	111.98047	-233.97571	111.98047
7900.00000	111.65758	-237.84567	111.65758
7950.00000	111.30520	-241.72285	111.30520
8000.00000	110.92688	-245.48589	110.92688
8050.00000	110.54461	-249.33603	110.54461
8100.00000	110.13926	-252.29109	110.13926
8150.00000	109.67234	-255.40183	109.67234
8200.00000	109.26808	-258.09729	109.26808
8250.00000	108.79466	-261.21171	108.79466
8300.00000	108.32792	-263.92226	108.32792
8350.00000	107.85569	-266.27662	107.85569
8400.00000	107.40075	-269.26048	107.40075
8450.00000	106.90617	-271.91077	106.90617
8500.00000	106.45227	-274.45947	106.45227
8550.00000	106.06755	-276.63007	106.06755
8600.00000	105.69234	-279.07452	105.69234
8650.00000	105.29475	-280.88670	105.29475
8700.00000	105.00935	-282.93478	105.00935
8750.00000	104.61886	-283.47687	104.61886
8800.00000	104.32438	-284.74272	104.32438
8850.00000	103.93279	-285.83725	103.93279
8900.00000	103.56338	-286.28828	103.56338
8950.00000	103.16566	-287.40889	103.16566
9000.00000	102.69046	-288.52364	102.69046
9050.00000	102.29624	-290.19523	102.29624
9100.00000	101.82411	-291.75748	101.82411
9150.00000	101.46728	-293.76731	101.46728
9200.00000	101.20404	-295.86231	101.20404
9250.00000	100.90796	-298.17536	100.90796
9300.00000	100.80332	-299.78706	100.80332
9350.00000	100.73967	-301.36110	100.73967
9400.00000	100.56967	-301.73829	100.56967
9450.00000	100.45197	-302.14366	100.45197
9500.00000	100.35181	-301.14562	100.35181
9550.00000	100.24770	-300.05527	100.24770
9600.00000	100.20367	-300.31741	100.20367
9650.00000	99.94867	-301.11830	99.94867
9700.00000	99.64071	-301.41895	99.64071
9750.00000	99.42570	-303.64785	99.42570
9800.00000	99.16699	-305.05366	99.16699
9850.00000	99.05094	-306.44235	99.05094
9900.00000	98.88788	-308.48279	98.88788
9950.00000	98.91726	-309.57815	98.91726
10000.00000	98.98093	-311.14149	98.98093
10050.00000	98.98759	-311.90564	98.98759
10100.00000	98.93339	-312.36673	98.93339
10150.00000	98.77203	-313.50137	98.77203
10200.00000	98.64755	-314.43778	98.64755
10250.00000	98.39274	-316.07823	98.39274
10300.00000	98.24060	-317.86051	98.24060
10350.00000	98.04137	-319.99813	98.04137
10400.00000	97.82841	-322.81506	97.82841
10450.00000	97.84632	-325.85308	97.84632
10500.00000	97.88695	-328.39253	97.88695
10550.00000	97.89961	-330.71119	97.89961
10600.00000	97.87148	-332.27974	97.87148
10650.00000	97.81578	-333.56372	97.81578
10700.00000	97.70063	-335.78270	97.70063
10750.00000	97.60446	-337.43424	97.60446
10800.00000	97.34180	-339.05153	97.34180
10850.00000	97.07953	-342.15965	97.07953
10900.00000	96.88290	-344.68211	96.88290
10950.00000	96.68722	-347.00159	96.68722
11000.00000	96.52800	-349.45602	96.52800
11050.00000	96.24185	-351.78521	96.24185
11100.00000	96.02878	-354.16571	96.02878
11150.00000	95.71851	-355.82710	95.71851
11200.00000	95.48287	-357.22559	95.48287
11250.00000	95.08670	-359.43719	95.08670
11300.00000	94.66690	-361.30117	94.66690
11350.00000	94.30361	-362.72505	94.30361
11400.00000	93.82425	-364.45721	93.82425
11450.00000	93.48255	-366.58393	93.48255
11500.00000	93.26557	-367.46568	93.26557
11550.00000	92.82895	-368.60218	92.82895
11600.00000	92.59825	-370.13934	92.59825
11650.00000	92.25410	-369.88650	92.25410
11700.00000	92.03819	-370.44796	92.03819
11750.00000	91.74926	-371.17704	91.74926
11800.00000	91.49579	-372.01707	91.49579
11850.00000	91.13646	-371.40125	91.13646
11900.00000	90.72092	-371.90436	90.72092
11950.00000	90.42938	-371.77050	90.42938
12000.00000	90.00377	-371.25955	90.00377
12050.00000	89.64018	-370.89109	89.64018
12100.00000	89.37073	-371.65742	89.37073
12150.00000	89.23708	-372.36666	89.23708
12200.00000	89.09077	-372.38222	89.09077
12250.00000	88.97336	-371.43450	88.97336
12300.00000	89.91644	-370.85035	89.91644
12350.00000	88.78326	-369.53001	88.78326
12400.00000	88.63785	-368.23775	88.63785
12450.00000	88.45767	-366.70868	88.45767
12500.00000	88.11124	-366.56274	88.11124
12550.00000	87.99158	-366.42607	87.99158
12600.00000	87.78255	-366.48785	87.78255
12650.00000	87.99166	-367.17194	87.99166
12700.00000	87.92887	-367.69853	87.92887
12750.00000	88.00207	-367.93213	88.00207
12800.00000	88.03041	-366.79852	88.03041
12850.00000	87.76696	-365.13792	87.76696
12900.00000	87.73966	-364.59521	87.73966
12950.00000	87.71443	-364.60178	87.71443
13000.00000	87.47734	-364.67057	87.47734
13050.00000	87.42773	-364.25322	87.42773
13100.00000	87.44013	-364.72792	87.44013
13150.00000	87.63273	-364.82624	87.63273
13200.00000	87.66447	-364.02111	87.66447
13250.00000	87.70182	-363.26398	87.70182
13300.00000	87.77007	-360.12336	87.77007
13350.00000	87.61879	-360.72566	87.61879
13400.00000	87.69723	-360.05594	87.69723
13450.00000	87.70108	-360.11720	87.70108
13500.00000	87.90671	-359.11875	87.90671
13550.00000	87.88826	-359.44450	87.88826
13600.00000	88.05107	-357.80743	88.05107
13650.00000	88.26370	-356.42211	88.26370
13700.00000	88.10167	-356.20118	88.10167
13750.00000	87.94359	-355.68498	87.94359
13800.00000	88.00141	-358.01121	88.00141
13850.00000	88.11011	-358.74738	88.11011
13900.00000	88.29320	-357.25108	88.29320
13950.00000	88.80725	-356.73010	88.80725
14000.00000	89.12617	-354.93073	89.12617
14050.00000	89.25882	-353.62426	89.25882
14100.00000	89.26902	-352.86290	89.26902
14150.00000	89.60720	-353.51989	89.60720
14200.00000	89.85725	-353.80402	89.85725
14250.00000	90.47258	-351.71500	90.47258
14300.00000	90.69002	-351.20985	90.69002
14350.00000	91.02872	-349.94712	91.02872
14400.00000	90.99715	-350.64947	90.99715
14450.00000	91.27717	-348.34205	91.27717
14500.00000	91.54617	-349.40711	91.54617
14550.00000	91.89229	-349.22481	91.89229
14600.00000	92.18541	-350.82576	92.18541
14650.00000	92.80044	-349.53595	92.80044
14700.00000	93.27977	-353.75033	93.27977
14750.00000	93.73686	-353.36148	93.73686
14800.00000	94.10946	-352.52426	94.10946
14850.00000	94.54964	-353.16319	94.54964
14900.00000	94.94927	-354.44599	94.94927
14950.00000	95.44875	-355.81060	95.44875
15000.00000	96.00693	-358.39123	96.00693
15050.00000	96.31646	-357.93462	96.31646
15100.00000	96.93647	-357.85753	96.93647
15150.00000	97.46965	-359.92791	97.46965
15200.00000	97.73983	-360.38126	97.73983
15250.00000	98.03997	-363.53332	98.03997
15300.00000	98.66014	-366.06884	98.66014
15350.00000	99.09175	-369.43762	99.09175
15400.00000	99.54145	-370.47141	99.54145
15450.00000	99.94509	-373.04500	99.94509
15500.00000	100.45661	-375.83045	100.45661
15550.00000	100.85747	-379.20042	100.85747
15600.00000	101.15354	-382.14041	101.15354
15650.00000	101.65593	-383.77410	101.65593
15700.00000	101.83464	-388.58054	101.83464
15750.00000	102.28414	-391.37970	102.28414
15800.00000	102.60539	-393.83591	102.60539
15850.00000	102.82842	-396.95069	102.82842
15900.00000	102.97347	-400.60724	102.97347
15950.00000	103.21270	-403.96925	103.21270
16000.00000	103.43946	-407.32150	103.43946
16050.00000	103.74113	-409.92918	103.74113
16100.00000	103.75900	-413.40292	103.75900
16150.00000	103.91172	-416.28363	103.91172
16200.00000	104.09626	-419.73445	104.09626
16250.00000	104.23057	-422.48447	104.23057
16300.00000	104.58691	-425.59992	104.58691
16350.00000	104.68832	-428.47490	104.68832
16400.00000	104.86693	-430.92487	104.86693
16450.00000	105.02512	-433.59641	105.02512
16500.00000	105.17223	-436.51220	105.17223
16550.00000	105.34618	-439.93698	105.34618
16600.00000	105.55071	-442.74448	105.55071
16650.00000	105.67106	-445.44327	105.67106
16700.00000	105.87698	-448.22279	105.87698
16750.00000	105.94211	-451.51973	105.94211
16800.00000	106.11842	-454.80366	106.11842
16850.00000	106.31333	-457.84162	106.31333
16900.00000	106.47046	-461.09481	106.47046
16950.00000	106.63193	-464.05155	106.63193
17000.00000	106.61564	-467.45889	106.61564
17050.00000	106.81595	-469.65986	106.81595
17100.00000	106.84548	-471.91262	106.84548
17150.00000	107.09365	-475.74867	107.09365
17200.00000	107.21127	-478.63437	107.21127
17250.00000	107.26507	-482.35286	107.26507
17300.00000	107.46459	-485.27456	107.46459
17350.00000	107.45412	-487.95177	107.45412
17400.00000	107.61584	-491.25066	107.61584
17450.00000	107.63513	-494.92603	107.63513
17500.00000	107.80036	-498.01860	107.80036
17550.00000	107.88008	-501.27284	107.88008
17600.00000	108.05115	-504.10128	108.05115
17650.00000	108.09732	-508.08269	108.09732
17700.00000	108.15866	-511.72712	108.15866
17750.00000	108.33154	-514.37371	108.33154
17800.00000	108.26431	-518.47258	108.26431
17850.00000	108.34344	-521.40698	108.34344
17900.00000	108.35541	-524.86684	108.35541
17950.00000	108.47263	-528.67868	108.47263
18000.00000	108.47331	-532.61335	108.47331
18050.00000	108.60378	-535.57252	108.60378
18100.00000	108.52482	-539.52755	108.52482
18150.00000	108.51306	-542.46947	108.51306
18200.00000	108.43096	-546.41327	108.43096
18250.00000	108.46224	-549.08425	108.46224
18300.00000	108.47485	-552.38995	108.47485
18350.00000	108.42306	-555.71175	108.42306
18400.00000	108.35674	-559.34721	108.35674
18450.00000	108.27068	-563.53551	108.27068
18500.00000	108.22623	-566.83012	108.22623
18550.00000	108.17304	-569.43368	108.17304
18600.00000	108.19473	-573.17727	108.19473
18650.00000	107.99156	-576.09973	107.99156
18700.00000	107.90167	-579.56048	107.90167
18750.00000	107.86460	-582.64370	107.86460
18800.00000	107.89687	-585.23050	107.89687
18850.00000	107.69213	-588.52554	107.69213
18900.00000	107.57227	-591.41361	107.57227
18950.00000	107.52101	-594.89505	107.52101
19000.00000	107.25608	-597.44363	107.25608
19050.00000	107.32101	-600.42099	107.32101
19100.00000	107.14132	-602.94881	107.14132
19150.00000	107.17510	-605.67217	107.17510
19200.00000	107.05790	-608.10294	107.05790
19250.00000	106.93409	-611.80646	106.93409
19300.00000	106.80524	-613.80454	106.80524
19350.00000	106.72230	-616.53731	106.72230
19400.00000	106.58820	-619.10896	106.58820
19450.00000	106.60377	-621.19357	106.60377
19500.00000	106.40754	-624.62821	106.40754
19550.00000	106.35431	-627.19748	106.35431
19600.00000	106.32609	-630.27123	106.32609
19650.00000	106.19233	-632.40579	106.19233
19700.00000	106.01163	-635.09355	106.01163
19750.00000	105.91395	-637.14340	105.91395
19800.00000	105.89787	-640.61779	105.89787
19850.00000	105.81742	-642.85853	105.81742
19900.00000	105.67255	-646.13634	105.67255
19950.00000	105.56490	-648.53409	105.56490
20000.00000	105.46014	-651.21455	105.46014
20050.00000	105.36149	-653.70180	105.36149
20100.00000	105.16226	-656.41709	105.16226
20150.00000	105.12344	-658.03408	105.12344
20200.00000	104.95140	-661.36739	104.95140
20250.00000	104.77867	-663.62125	104.77867
20300.00000	104.55565	-666.19249	104.55565
20350.00000	104.49006	-668.75318	104.49006
20400.00000	104.28201	-670.41047	104.28201
20450.00000	104.05293	-672.69256	104.05293
20500.00000	103.94247	-675.28203	103.94247
20550.00000	103.55778	-676.49954	103.55778
20600.00000	103.44581	-678.22436	103.44581
20650.00000	103.29248	-680.09376	103.29248
20700.00000	103.05115	-681.67668	103.05115
20750.00000	102.93021	-683.05695	102.93021
20800.00000	102.73293	-684.03245	102.73293
20850.00000	102.62108	-685.53543	102.62108
20900.00000	102.43876	-686.63299	102.43876
20950.00000	102.27397	-687.04359	102.27397
21000.00000	102.18474	-687.75965	102.18474
21050.00000	102.24538	-688.18777	102.24538
21100.00000	102.18244	-688.71263	102.18244
21150.00000	102.24554	-689.66316	102.24554
21200.00000	102.32905	-690.16598	102.32905
21250.00000	102.38173	-692.33478	102.38173
21300.00000	102.50142	-692.92309	102.50142
21350.00000	102.57678	-694.05561	102.57678
21400.00000	102.64243	-695.99126	102.64243
21450.00000	102.73162	-697.67449	102.73162
21500.00000	102.83404	-699.89333	102.83404
21550.00000	102.80443	-701.54510	102.80443
21600.00000	102.92767	-703.79487	102.92767
21650.00000	102.94043	-705.96498	102.94043
21700.00000	102.93117	-707.75378	102.93117
21750.00000	102.96018	-709.98992	102.96018
21800.00000	102.96939	-712.14504	102.96939
21850.00000	102.88799	-714.26118	102.88799
21900.00000	102.91370	-716.29262	102.91370
21950.00000	102.85648	-717.84205	102.85648
22000.00000	102.92229	-719.74006	102.92229
22050.00000	102.85249	-721.22904	102.85249
22100.00000	102.80971	-723.21343	102.80971
22150.00000	102.77307	-724.98667	102.77307
22200.00000	102.84063	-726.85529	102.84063
22250.00000	102.78259	-727.92769	102.78259
22300.00000	102.64619	-729.85789	102.64619
22350.00000	102.82012	-731.91587	102.82012
22400.00000	102.81789	-733.68880	102.81789
22450.00000	102.78134	-735.45190	102.78134
22500.00000	102.69817	-735.75337	102.69817
22550.00000	102.81109	-738.12901	102.81109
22600.00000	102.74476	-740.72735	102.74476
22650.00000	102.76961	-742.52452	102.76961
22700.00000	102.77189	-743.63976	102.77189
22750.00000	102.77871	-743.96867	102.77871
22800.00000	102.85327	-747.80225	102.85327
22850.00000	102.86842	-750.15041	102.86842
22900.00000	102.88971	-750.27484	102.88971
22950.00000	102.94028	-752.59744	102.94028
23000.00000	102.96362	-753.83422	102.96362
23050.00000	102.93195	-756.81286	102.93195
23100.00000	103.11267	-757.66470	103.11267
23150.00000	102.93315	-758.86588	102.93315
23200.00000	103.18241	-761.92169	103.18241
23250.00000	102.98183	-764.36846	102.98183
23300.00000	103.32981	-767.14363	103.32981
23350.00000	103.10580	-768.78053	103.10580
23400.00000	103.03814	-771.06846	103.03814
23450.00000	103.25457	-773.15743	103.25457
23500.00000	103.12879	-774.84102	103.12879
23550.00000	103.16889	-775.60985	103.16889
23600.00000	103.06216	-780.02191	103.06216
23650.00000	103.20129	-781.21638	103.20129
23700.00000	103.42996	-785.60956	103.42996
23750.00000	103.36504	-787.05387	103.36504
23800.00000	103.10609	-787.78649	103.10609
23850.00000	103.21241	-789.36111	103.21241
23900.00000	103.61437	-792.87395	103.61437
23950.00000	103.30145	-795.88055	103.30145
24000.00000	103.16618	-799.42297	103.16618
24050.00000	103.23201	-799.96793	103.23201
24100.00000	103.42090	-804.59309	103.42090
24150.00000	103.48347	-806.82681	103.48347
24200.00000	103.39480	-810.47470	103.39480
24250.00000	102.99650	-811.82133	102.99650
24300.00000	103.26032	-813.92022	103.26032
24350.00000	103.06644	-817.52670	103.06644
24400.00000	102.90134	-821.08841	102.90134
24450.00000	102.57427	-823.19450	102.57427
24500.00000	102.92156	-824.99166	102.92156
24550.00000	102.71758	-830.02189	102.71758
24600.00000	103.02356	-830.61208	103.02356
24650.00000	102.60132	-475.25802	102.60132
24700.00000	102.28176	-115.34801	102.28176
24750.00000	102.24862	240.14796	102.24862
24800.00000	102.08011	597.37588	102.08011
24850.00000	101.64557	957.48907	101.64557
24900.00000	101.55692	1316.56222	101.55692
24950.00000	101.46901	1671.64402	101.46901
25000.00000	101.43887	1665.92243	101.43887
25050.00000	101.67896	1667.06703	101.67896
25100.00000	100.98448	1663.46205	100.98448
25150.00000	101.20662	1664.62325	101.20662
25200.00000	100.88353	1659.96787	100.88353
25250.00000	100.98543	1659.47018	100.98543
25300.00000	101.00139	1658.98976	101.00139
25350.00000	100.77933	1652.49009	100.77933
25400.00000	100.65001	1650.83136	100.65001
25450.00000	100.80064	1650.15966	100.80064
25500.00000	100.46353	1648.85055	100.46353
25550.00000	100.35961	1645.42767	100.35961
25600.00000	100.47322	1643.65485	100.47322
25650.00000	100.29621	1643.02382	100.29621
25700.00000	100.30671	1639.53183	100.30671
25750.00000	99.92690	1638.20599	99.92690
25800.00000	100.00280	1634.68579	100.00280
25850.00000	99.80234	1633.45445	99.80234
25900.00000	99.75016	1629.60371	99.75016
25950.00000	99.38762	1631.86134	99.38762
26000.00000	99.55678	1627.78822	99.55678
26050.00000	99.40835	1625.54665	99.40835
26100.00000	99.32010	1624.26929	99.32010
26150.00000	99.23045	1622.91310	99.23045
26200.00000	99.38718	1620.82020	99.38718
26250.00000	99.11438	1618.77882	99.11438
26300.00000	99.28287	1616.20717	99.28287
26350.00000	98.80346	1615.85071	98.80346
26400.00000	98.86657	1613.66390	98.86657
26450.00000	99.07867	1611.28301	99.07867
26500.00000	98.70657	1610.03621	98.70657
26550.00000	98.73828	1605.22765	98.73828
26600.00000	98.51669	1604.55005	98.51669
26650.00000	98.57506	1604.91792	98.57506
26700.00000	98.53098	1602.82302	98.53098
26750.00000	98.38196	1601.28245	98.38196
26800.00000	98.31507	1595.85158	98.31507
26850.00000	98.48241	1596.34266	98.48241
26900.00000	98.50545	1596.63933	98.50545
26950.00000	98.59160	1592.84562	98.59160
27000.00000	97.96227	1593.19564	97.96227
27050.00000	98.33982	1590.40332	98.33982
27100.00000	98.11126	1590.47176	98.11126
27150.00000	98.01675	1587.44546	98.01675
27200.00000	98.12762	1585.85549	98.12762
27250.00000	97.81411	1586.35633	97.81411
27300.00000	97.66366	1582.89469	97.66366
27350.00000	97.93259	1583.57522	97.93259
27400.00000	97.60561	1581.95889	97.60561
27450.00000	97.55362	1580.37305	97.55362
27500.00000	97.55697	1579.93517	97.55697
27550.00000	97.71396	1577.45310	97.71396
27600.00000	98.00794	1574.79147	98.00794
27650.00000	97.56512	1575.41348	97.56512
27700.00000	97.71555	1571.91484	97.71555
27750.00000	97.66798	1570.15727	97.66798
27800.00000	97.82424	1566.96270	97.82424
27850.00000	98.18151	1570.54104	98.18151
27900.00000	97.63089	1567.51903	97.63089
27950.00000	97.09858	1566.82635	97.09858
28000.00000	97.35206	1565.85390	97.35206
28050.00000	97.91470	1564.01741	97.91470
28100.00000	97.35581	1562.31728	97.35581
28150.00000	97.61583	1563.19291	97.61583
28200.00000	97.83116	1558.92503	97.83116
28250.00000	97.47018	1556.05258	97.47018
28300.00000	97.31427	1557.37323	97.31427
28350.00000	97.63063	1556.38102	97.63063
28400.00000	97.52200	1556.35216	97.52200
28450.00000	98.26621	1553.27563	98.26621
28500.00000	97.73156	1553.15544	97.73156
28550.00000	97.79400	1555.03669	97.79400
28600.00000	98.02179	1552.56719	98.02179
28650.00000	98.29264	1548.85515	98.29264
28700.00000	98.27621	1549.71629	98.27621
28750.00000	98.91695	1550.72591	98.91695
28800.00000	98.74701	1548.22444	98.74701
28850.00000	98.19900	1544.34341	98.19900
28900.00000	98.61499	1544.15036	98.61499
28950.00000	98.53295	1543.16349	98.53295
29000.00000	98.95381	1542.05230	98.95381
29050.00000	98.78684	1541.80793	98.78684
29100.00000	98.89884	1541.85488	98.89884
29150.00000	98.82010	1540.21061	98.82010
29200.00000	98.72945	1537.74440	98.72945
29250.00000	99.30940	1536.98637	99.30940
29300.00000	99.19117	1534.20497	99.19117
29350.00000	99.61964	1531.58158	99.61964
29400.00000	99.69041	1530.95475	99.69041
29450.00000	99.67464	1528.97675	99.67464
29500.00000	100.16398	1528.58263	100.16398
29550.00000	99.91232	1524.11432	99.91232
29600.00000	99.87030	1523.95309	99.87030
29650.00000	100.06638	1520.70915	100.06638
29700.00000	100.00034	1521.57397	100.00034
29750.00000	99.98262	1520.27872	99.98262
29800.00000	99.86308	1517.29681	99.86308
29850.00000	99.95592	1514.85042	99.95592
29900.00000	100.27782	1515.15341	100.27782
29950.00000	99.46642	1512.91047	99.46642
30000.00000	99.90374	1513.71363	99.90374
30050.00000	99.98525	1510.82689	99.98525
30100.00000	99.73425	1511.70911	99.73425
30150.00000	99.88705	1507.63329	99.88705
30200.00000	99.85155	1506.31869	99.85155
30250.00000	99.57050	1506.72289	99.57050
30300.00000	99.38139	1506.54573	99.38139
30350.00000	99.51886	1507.65238	99.51886
30400.00000	99.52892	1505.42081	99.52892
30450.00000	99.18529	1505.09223	99.18529
30500.00000	99.22836	1504.57529	99.22836
30550.00000	99.29037	1506.15406	99.29037
30600.00000	99.30930	1506.61945	99.30930
30650.00000	99.32351	1506.78368	99.32351
30700.00000	99.49091	1505.92445	99.49091
30750.00000	99.37074	1507.92062	99.37074
30800.00000	99.59366	1508.41974	99.59366
30850.00000	99.89271	1510.01265	99.89271
30900.00000	99.82023	1511.84975	99.82023
30950.00000	100.38382	1511.10069	100.38382
31000.00000	100.66076	1510.59306	100.66076
31050.00000	101.02567	1512.05168	101.02567
31100.00000	101.61239	1512.21919	101.61239
31150.00000	101.63915	1511.83637	101.63915
31200.00000	102.49613	1511.05305	102.49613
31250.00000	102.88210	1510.00699	102.88210
31300.00000	103.37283	1509.15583	103.37283
31350.00000	103.98868	1507.49501	103.98868
31400.00000	104.28205	1504.79903	104.28205
31450.00000	104.84907	1502.93925	104.84907
31500.00000	105.27335	1499.65368	105.27335
31550.00000	105.73715	1497.20523	105.73715
31600.00000	106.31653	1493.29573	106.31653
31650.00000	106.66386	1489.76142	106.66386
31700.00000	107.01161	1486.87889	107.01161
31750.00000	107.45834	1484.41739	107.45834
31800.00000	107.78029	1479.59150	107.78029
31850.00000	108.15733	1475.20111	108.15733
31900.00000	108.22403	1472.13052	108.22403
31950.00000	108.52229	1468.21563	108.52229
32000.00000	108.77006	1464.11887	108.77006
32050.00000	109.02276	1460.39660	109.02276
32100.00000	109.17284	1455.64425	109.17284
32150.00000	109.36406	1452.35441	109.36406
32200.00000	109.59940	1448.28624	109.59940
32250.00000	109.67334	1443.38928	109.67334
32300.00000	109.78284	1440.28578	109.78284
32350.00000	109.81416	1436.70677	109.81416
32400.00000	110.07330	1432.87362	110.07330
32450.00000	110.10481	1428.44172	110.10481
32500.00000	110.25506	1425.58100	110.25506
32550.00000	110.42841	1420.28454	110.42841
32600.00000	110.42370	1417.44714	110.42370
32650.00000	110.61706	1413.27626	110.61706
32700.00000	110.44612	1408.72842	110.44612
32750.00000	110.58543	1404.72159	110.58543
32800.00000	110.78154	1401.47520	110.78154
32850.00000	110.80872	1396.86070	110.80872
32900.00000	110.72156	1392.19105	110.72156
32950.00000	110.61404	1387.57323	110.61404
33000.00000	110.59301	1385.26691	110.59301
33050.00000	110.47896	1380.71384	110.47896
33100.00000	110.57465	1376.74142	110.57465
33150.00000	110.48817	1373.17701	110.48817
33200.00000	110.54450	1370.88540	110.54450
33250.00000	110.33990	1367.05583	110.33990
33300.00000	110.19195	1361.99908	110.19195
33350.00000	109.93963	1359.41184	109.93963
33400.00000	109.83369	1356.21170	109.83369
33450.00000	109.84797	1351.69807	109.84797
33500.00000	109.78245	1350.57771	109.78245
33550.00000	109.34185	1345.91848	109.34185
33600.00000	109.47404	1343.57949	109.47404
33650.00000	109.14762	1340.82335	109.14762
33700.00000	109.02604	1337.70358	109.02604
33750.00000	108.73813	1334.53420	108.73813
33800.00000	108.66625	1332.11178	108.66625
33850.00000	108.13315	1330.70060	108.13315
33900.00000	108.30188	1327.56890	108.30188
33950.00000	107.96961	1326.34347	107.96961
34000.00000	107.87898	1324.36540	107.87898
34050.00000	107.68745	1322.16065	107.68745
34100.00000	107.23372	1321.24790	107.23372
34150.00000	107.33447	1319.40599	107.33447
34200.00000	107.21376	1320.06840	107.21376
34250.00000	107.23542	1317.18177	107.23542
34300.00000	106.76628	1316.71792	106.76628
34350.00000	106.82137	1315.61236	106.82137
34400.00000	106.68852	1315.90357	106.68852
34450.00000	106.50223	1313.06772	106.50223
34500.00000	106.33686	1313.90064	106.33686
34550.00000	106.54201	1313.29344	106.54201
34600.00000	106.30899	1312.06182	106.30899
34650.00000	106.49414	1313.14437	106.49414
34700.00000	106.35336	1314.97545	106.35336
34750.00000	106.49788	1309.58003	106.49788
34800.00000	106.79382	1312.79297	106.79382
34850.00000	107.11186	1312.47787	107.11186
34900.00000	107.35379	1310.71602	107.35379
34950.00000	107.26096	1312.28359	107.26096
35000.00000	107.46396	1311.41839	107.46396
35050.00000	107.85246	1311.05552	107.85246
35100.00000	108.12627	1308.89648	108.12627
35150.00000	108.06035	1309.75734	108.06035
35200.00000	108.52502	1307.92380	108.52502
35250.00000	108.58835	1306.34719	108.58835
35300.00000	109.00494	1304.97056	109.00494
35350.00000	109.27267	1302.92966	109.27267
35400.00000	109.46515	1301.77446	109.46515
35450.00000	109.94665	1301.97507	109.94665
35500.00000	109.76201	1300.53929	109.76201
35550.00000	110.44802	1299.45476	110.44802
35600.00000	110.33975	1297.38408	110.33975
35650.00000	110.86137	1296.33541	110.86137
35700.00000	111.16029	1293.48886	111.16029
35750.00000	111.27818	1292.63418	111.27818
35800.00000	111.69790	1291.73853	111.69790
35850.00000	112.06056	1289.17150	112.06056
35900.00000	112.42881	1287.48403	112.42881
35950.00000	112.72856	1285.16626	112.72856
36000.00000	112.88180	1282.89963	112.88180
36050.00000	113.37617	1281.65382	113.37617
36100.00000	113.45769	1278.24836	113.45769
36150.00000	113.67220	1276.65389	113.67220
36200.00000	113.91955	1275.14083	113.91955
36250.00000	114.12771	1273.06066	114.12771
36300.00000	114.24694	1270.80011	114.24694
36350.00000	114.64682	1268.86968	114.64682
36400.00000	115.00556	1267.11153	115.00556
36450.00000	115.09215	1264.62634	115.09215
36500.00000	115.55888	1263.27485	115.55888
36550.00000	115.69520	1259.63965	115.69520
36600.00000	116.01188	1257.70763	116.01188
36650.00000	116.34352	1255.23923	116.34352
36700.00000	116.71286	1251.85898	116.71286
36750.00000	116.86978	1249.54974	116.86978
36800.00000	117.15694	1247.57018	117.15694
36850.00000	117.34864	1244.55622	117.34864
36900.00000	117.82207	1241.21217	117.82207
36950.00000	117.81976	1237.74977	117.81976
37000.00000	117.82218	1236.00919	117.82218
37050.00000	118.17821	1233.65768	118.17821
37100.00000	118.56000	1229.08128	118.56000
37150.00000	118.75840	1225.50933	118.75840
37200.00000	119.21613	1223.90310	119.21613
37250.00000	119.09569	1219.46545	119.09569
37300.00000	119.34550	1216.02373	119.34550
37350.00000	119.80135	1212.74483	119.80135
37400.00000	119.75815	1209.83892	119.75815
37450.00000	119.82776	1206.27398	119.82776
37500.00000	120.32667	1201.75001	120.32667
37550.00000	120.15113	1198.52723	120.15113
37600.00000	120.31928	1194.87173	120.31928
37650.00000	120.38259	1191.67476	120.38259
37700.00000	120.66751	1186.49871	120.66751
37750.00000	120.68663	1184.30573	120.68663
37800.00000	120.68111	1179.38692	120.68111
37850.00000	120.73520	1174.97606	120.73520
37900.00000	120.86400	1171.44921	120.86400
37950.00000	120.88950	1168.47021	120.88950
38000.00000	120.83742	1164.91309	120.83742
38050.00000	120.97219	1160.88445	120.97219
38100.00000	121.10738	1157.35816	121.10738
38150.00000	121.05516	1152.39364	121.05516
38200.00000	121.17612	1148.25430	121.17612
38250.00000	121.15662	1145.10167	121.15662
38300.00000	121.30832	1140.70402	121.30832
38350.00000	121.28525	1137.51073	121.28525
38400.00000	121.31256	1133.39361	121.31256
38450.00000	121.30748	1129.12906	121.30748
38500.00000	121.43848	1124.96976	121.43848
38550.00000	121.56634	1121.37494	121.56634
38600.00000	121.66796	1117.18510	121.66796
38650.00000	121.74724	1112.60664	121.74724
38700.00000	121.73739	1108.38277	121.73739
38750.00000	121.84694	1104.48704	121.84694
38800.00000	121.99969	1100.13079	121.99969
38850.00000	122.04841	1095.13435	122.04841
38900.00000	122.16350	1090.69090	122.16350
38950.00000	122.18206	1085.62323	122.18206
39000.00000	122.26573	1080.77378	122.26573
39050.00000	122.42758	1076.12954	122.42758
39100.00000	122.34793	1070.95076	122.34793
39150.00000	122.33253	1065.80464	122.33253
39200.00000	122.36156	1060.81114	122.36156
39250.00000	122.38164	1055.23810	122.38164
39300.00000	122.35208	1049.86984	122.35208
39350.00000	122.25360	1045.04169	122.25360
39400.00000	122.17028	1039.26628	122.17028
39450.00000	121.99640	1034.24905	121.99640
39500.00000	121.88641	1028.92412	121.88641
39550.00000	121.67127	1023.37432	121.67127
39600.00000	121.40182	1018.08602	121.40182
39650.00000	121.20238	1013.67574	121.20238
39700.00000	120.89328	1008.67717	120.89328
39750.00000	120.66189	1003.54965	120.66189
39800.00000	120.37139	999.08311	120.37139
39850.00000	120.00815	994.40258	120.00815
39900.00000	119.68321	990.32667	119.68321
39950.00000	119.34958	986.42006	119.34958
40000.00000	118.86957	983.79021	118.86957
40050.00000	118.63326	978.83000	118.63326
40100.00000	118.25344	975.36192	118.25344
40150.00000	117.88843	972.12187	117.88843
40200.00000	117.53385	968.45176	117.53385
40250.00000	117.10899	965.64456	117.10899
40300.00000	116.87765	963.17130	116.87765
40350.00000	116.33745	960.80421	116.33745
40400.00000	115.97306	958.14379	115.97306
40450.00000	115.64962	955.73691	115.64962
40500.00000	115.39190	954.18907	115.39190
40550.00000	115.07281	951.32379	115.07281
40600.00000	114.66739	950.04537	114.66739
40650.00000	114.37356	948.31218	114.37356
40700.00000	113.88565	947.43879	113.88565
40750.00000	113.81011	945.85268	113.81011
40800.00000	113.47926	944.68630	113.47926
40850.00000	113.19850	943.66382	113.19850
40900.00000	112.90033	942.50955	112.90033
40950.00000	112.50640	942.76415	112.50640
41000.00000	112.21273	942.14498	112.21273
41050.00000	112.14811	940.94036	112.14811
41100.00000	112.02706	940.24635	112.02706
41150.00000	111.98201	942.04327	111.98201
41200.00000	111.94563	940.63613	111.94563
41250.00000	111.71379	938.54137	111.71379
41300.00000	111.40516	939.85757	111.40516
41350.00000	111.40855	941.06542	111.40855
41400.00000	111.28173	935.83768	111.28173
41450.00000	111.49789	938.39322	111.49789
41500.00000	111.35249	938.39985	111.35249
41550.00000	111.15757	941.49287	111.15757
41600.00000	110.89706	939.41534	110.89706
41650.00000	111.31402	937.68422	111.31402
41700.00000	111.35763	937.90668	111.35763
41750.00000	111.27082	941.93695	111.27082
41800.00000	110.67254	935.71407	110.67254
41850.00000	110.66975	938.21860	110.66975
41900.00000	110.47183	936.67112	110.47183
41950.00000	111.65080	941.85438	111.65080
42000.00000	110.82512	935.99745	110.82512
42050.00000	109.89592	936.22237	109.89592
42100.00000	110.46222	935.29259	110.46222
42150.00000	110.05111	929.68908	110.05111
42200.00000	109.99982	935.81772	109.99982
42250.00000	110.04722	933.66109	110.04722
42300.00000	109.13618	929.49727	109.13618
42350.00000	109.54692	931.32917	109.54692
42400.00000	109.42866	932.72727	109.42866
42450.00000	109.98579	926.70906	109.98579
42500.00000	109.34711	925.43262	109.34711
42550.00000	109.74330	934.55627	109.74330
42600.00000	109.34698	924.92692	109.34698
42650.00000	109.33284	927.14206	109.33284
42700.00000	108.79501	922.25516	108.79501
42750.00000	109.95072	920.12303	109.95072
42800.00000	109.04976	913.80816	109.04976
42850.00000	108.71972	910.73610	108.71972
42900.00000	109.69289	915.83711	109.69289
42950.00000	108.83078	909.80862	108.83078
43000.00000	109.95730	900.19539	109.95730
43050.00000	109.21087	895.72593	109.21087
43100.00000	109.39698	900.04502	109.39698
43150.00000	108.49162	897.56738	108.49162
43200.00000	109.22468	891.92003	109.22468
43250.00000	109.09554	886.96370	109.09554
43300.00000	109.36441	883.47444	109.36441
43350.00000	110.17761	878.79542	110.17761
43400.00000	109.44817	876.70180	109.44817
43450.00000	110.39823	875.74610	110.39823
43500.00000	109.09774	866.73607	109.09774
43550.00000	109.60053	862.08924	109.60053
43600.00000	109.51801	858.42389	109.51801
43650.00000	109.98721	850.92332	109.98721
43700.00000	109.42904	849.84935	109.42904
43750.00000	109.15246	848.64928	109.15246
43800.00000	109.53216	840.29023	109.53216
43850.00000	110.27376	834.52046	110.27376
43900.00000	110.35934	831.70323	110.35934
43950.00000	110.34356	826.34118	110.34356
44000.00000	109.77709	822.50711	109.77709
44050.00000	110.06946	818.28291	110.06946
44100.00000	110.25877	806.28721	110.25877
44150.00000	109.88882	808.09687	109.88882
44200.00000	109.96203	805.30825	109.96203
44250.00000	110.19314	801.30391	110.19314
44300.00000	110.38345	792.18539	110.38345
44350.00000	109.31642	785.93020	109.31642
44400.00000	110.24734	783.99908	110.24734
44450.00000	110.35000	780.05583	110.35000
44500.00000	109.75840	776.40990	109.75840
44550.00000	110.99512	767.66251	110.99512
44600.00000	109.72695	769.52382	109.72695
44650.00000	109.35994	759.79633	109.35994
44700.00000	109.14992	757.75319	109.14992
44750.00000	109.26679	755.86244	109.26679
44800.00000	109.57193	748.99271	109.57193
44850.00000	109.12010	743.30568	109.12010
44900.00000	108.70078	742.54840	108.70078
44950.00000	108.89975	736.78145	108.89975
45000.00000	108.53621	728.78225	108.53621
45050.00000	106.97395	734.53434	106.97395
45100.00000	107.50086	727.41030	107.50086
45150.00000	107.39220	715.77319	107.39220
45200.00000	107.20388	720.56833	107.20388
45250.00000	106.95756	716.46466	106.95756
45300.00000	106.91087	712.17363	106.91087
45350.00000	105.91935	705.04721	105.91935
45400.00000	106.34937	704.30127	106.34937
45450.00000	106.03699	696.66159	106.03699
45500.00000	104.46153	690.72856	104.46153
45550.00000	104.29118	697.33869	104.29118
45600.00000	105.42565	687.52063	105.42565
45650.00000	103.43465	683.02608	103.43465
45700.00000	103.41994	681.79991	103.41994
45750.00000	104.31848	689.04983	104.31848
45800.00000	103.16372	678.34506	103.16372
45850.00000	103.18519	676.98508	103.18519
45900.00000	102.77183	675.64586	102.77183
45950.00000	102.31886	676.09408	102.31886
46000.00000	100.99935	659.10003	100.99935
46050.00000	101.48349	660.98412	101.48349
46100.00000	100.03754	667.54756	100.03754
46150.00000	100.12180	666.49020	100.12180
46200.00000	98.09298	657.29296	98.09298
46250.00000	98.76711	655.36606	98.76711
46300.00000	97.98862	655.66059	97.98862
46350.00000	98.76055	655.61427	98.76055
46400.00000	97.39267	650.90567	97.39267
46450.00000	95.63165	650.57576	95.63165
46500.00000	96.95209	654.26530	96.95209
46550.00000	96.23953	660.10814	96.23953
46600.00000	96.77230	660.74308	96.77230
46650.00000	94.04112	654.36726	94.04112
46700.00000	93.79404	663.36351	93.79404
46750.00000	94.82776	671.31384	94.82776
46800.00000	92.56817	661.89862	92.56817
46850.00000	94.69162	319.52984	94.69162
46900.00000	94.35310	308.46808	94.35310
46950.00000	94.48391	311.19521	94.48391
47000.00000	94.63957	314.00413	94.63957
47050.00000	96.48486	308.06017	96.48486
47100.00000	95.30859	308.26994	95.30859
47150.00000	96.03316	309.86695	96.03316
47200.00000	95.00351	307.93633	95.00351
47250.00000	96.88823	305.53307	96.88823
47300.00000	96.07848	294.63681	96.07848
47350.00000	95.79852	-53.88307	95.79852
47400.00000	95.27083	-58.10843	95.27083
47450.00000	96.44264	-54.03801	96.44264
47500.00000	94.47521	-66.56314	94.47521
47550.00000	94.30197	-418.64549	94.30197
47600.00000	94.92400	-422.06567	94.92400
47650.00000	96.46900	-424.65976	96.46900
47700.00000	94.54234	-430.88135	94.54234
47750.00000	93.25450	-421.33598	93.25450
47800.00000	94.28925	-442.31318	94.28925
47850.00000	95.08969	-790.54581	95.08969
47900.00000	95.37774	-1140.71124	95.37774
47950.00000	93.93141	-1139.66802	93.93141
48000.00000	94.61838	-1137.35722	94.61838
48050.00000	95.63534	-1145.77836	95.63534
48100.00000	93.95880	-1146.76101	93.95880
48150.00000	94.55071	-1502.70041	94.55071
48200.00000	94.79594	-1500.44258	94.79594
48250.00000	94.67418	-1510.29908	94.67418
48300.00000	95.25503	-1507.68836	95.25503
48350.00000	95.48419	-1512.98631	95.48419
48400.00000	95.78087	-1862.56380	95.78087
48450.00000	96.94953	-1866.78082	96.94953
48500.00000	96.10604	-1869.98689	96.10604
48550.00000	95.21043	-1876.98297	95.21043
48600.00000	97.00617	-2232.77572	97.00617
48650.00000	97.42519	-2234.34610	97.42519
48700.00000	98.12859	-2241.79003	98.12859
48750.00000	96.42827	-2591.46514	96.42827
48800.00000	97.42250	-2599.89308	97.42250
48850.00000	97.78974	-2607.32810	97.78974
48900.00000	96.93702	-2964.37314	96.93702
48950.00000	97.24323	-2977.48624	97.24323
49000.00000	97.94230	-2980.61702	97.94230
49050.00000	97.67319	-2981.62364	97.67319
49100.00000	96.86632	-3340.86665	96.86632
49150.00000	98.56789	-3702.97251	98.56789
49200.00000	97.71710	-3710.22147	97.71710
49250.00000	97.23788	-4065.39670	97.23788
49300.00000	97.89181	-3723.56070	97.89181
49350.00000	94.62734	-3709.44749	94.62734
49400.00000	96.20009	-3360.79875	96.20009
49450.00000	95.03110	-3012.33601	95.03110
49500.00000	94.92877	-2661.02717	94.92877
49550.00000	95.51823	-2305.22082	95.51823
49600.00000	94.20797	-2300.06452	94.20797
49650.00000	94.85016	-2298.00656	94.85016
49700.00000	93.78885	-1961.32587	93.78885
49750.00000	92.99567	-1957.50474	92.99567
49800.00000	92.24894	-1961.64519	92.24894
49850.00000	89.40337	-1942.43342	89.40337
49900.00000	85.18654	-1592.72488	85.18654
49950.00000	86.80127	-1241.88700	86.80127
