---ACOUSTIC CALIBRATION---
Filename: C:\Data\AZH DATA\AZH81\RightPrimary.calib
Date: 8/27/2019 4:24:02 PM
Format: 4
Probe Tube Correction File: C:\Data\Probe Tube Calibrations\50_ProbeTube.calib
Experiment VIs: 850
EPL_CFTS.exe V12.0.1 (2012)
DAQmx V9.6

Attenuation (dB): 40.000000
Min Freq (Hz): 50.000000
Max Freq (Hz): 49950.000000
Freq Step (Hz): 50.000000
Sample Rate (Hz): 100000.000000
[Smoothing]
Method=None
MA.Iterations=0
MA.Length=0
Loess.Length=0
Loess.Type=Linear
Loess.Robust=FALSE


Freq(Hz)	Mag(dB)	Phase(deg)	Unsmoothed(dB)

50.00000	108.56148	575.02668	108.56148
100.00000	65.69528	664.50757	65.69528
150.00000	81.92925	512.78519	81.92925
200.00000	81.74410	460.08891	81.74410
250.00000	91.59347	452.25354	91.59347
300.00000	87.96223	422.22037	87.96223
350.00000	77.11433	396.54636	77.11433
400.00000	87.29592	405.89265	87.29592
450.00000	85.39542	364.91887	85.39542
500.00000	87.51925	375.14640	87.51925
550.00000	92.05763	370.42821	92.05763
600.00000	96.40827	362.12170	96.40827
650.00000	97.53510	351.30410	97.53510
700.00000	99.45073	334.98552	99.45073
750.00000	101.38166	317.06218	101.38166
800.00000	102.49185	292.49374	102.49185
850.00000	101.84407	278.12406	101.84407
900.00000	100.34582	260.88207	100.34582
950.00000	98.50951	257.90751	98.50951
1000.00000	96.99531	256.82423	96.99531
1050.00000	95.08845	270.36921	95.08845
1100.00000	96.10580	293.06740	96.10580
1150.00000	98.83843	299.12999	98.83843
1200.00000	101.74155	298.79626	101.74155
1250.00000	103.58086	291.49659	103.58086
1300.00000	105.27710	286.20064	105.27710
1350.00000	106.54435	276.47158	106.54435
1400.00000	107.44180	268.22466	107.44180
1450.00000	108.31863	261.48960	108.31863
1500.00000	109.37253	255.53194	109.37253
1550.00000	110.24332	246.93621	110.24332
1600.00000	111.75103	237.26324	111.75103
1650.00000	112.77306	220.97749	112.77306
1700.00000	111.65173	210.98909	111.65173
1750.00000	111.47513	204.66702	111.47513
1800.00000	111.29634	198.59075	111.29634
1850.00000	111.30682	197.37721	111.30682
1900.00000	112.40106	193.36260	112.40106
1950.00000	113.14652	181.08765	113.14652
2000.00000	112.27001	168.03262	112.27001
2050.00000	110.75792	170.84668	110.75792
2100.00000	112.47829	172.96939	112.47829
2150.00000	113.21880	161.89913	113.21880
2200.00000	113.17919	151.41938	113.17919
2250.00000	112.60667	144.52784	112.60667
2300.00000	112.71988	138.73994	112.71988
2350.00000	112.47055	132.12620	112.47055
2400.00000	112.21442	126.50869	112.21442
2450.00000	111.94556	120.08960	111.94556
2500.00000	111.54743	114.98351	111.54743
2550.00000	111.16343	109.55801	111.16343
2600.00000	110.62101	104.97337	110.62101
2650.00000	110.18604	101.32888	110.18604
2700.00000	109.65308	97.35634	109.65308
2750.00000	109.15277	94.11909	109.15277
2800.00000	108.60407	91.60842	108.60407
2850.00000	108.01811	88.82267	108.01811
2900.00000	107.43203	86.80912	107.43203
2950.00000	106.83549	85.47286	106.83549
3000.00000	106.23975	84.24956	106.23975
3050.00000	105.61211	82.68307	105.61211
3100.00000	105.00803	82.69426	105.00803
3150.00000	104.00900	81.03474	104.00900
3200.00000	102.71759	84.78696	102.71759
3250.00000	101.56994	90.74604	101.56994
3300.00000	100.70146	100.46248	100.70146
3350.00000	100.04440	114.82460	100.04440
3400.00000	100.95636	135.29795	100.95636
3450.00000	103.35182	147.74536	103.35182
3500.00000	106.11179	152.38070	106.11179
3550.00000	108.36736	150.57235	108.36736
3600.00000	110.30362	147.94475	110.30362
3650.00000	111.91895	142.48180	111.91895
3700.00000	113.23984	137.65975	113.23984
3750.00000	114.56104	132.67416	114.56104
3800.00000	115.79220	126.41320	115.79220
3850.00000	116.85013	120.22794	116.85013
3900.00000	117.86904	113.86645	117.86904
3950.00000	118.85933	106.87883	118.85933
4000.00000	119.74977	99.61269	119.74977
4050.00000	120.57524	92.33974	120.57524
4100.00000	121.44711	85.06119	121.44711
4150.00000	122.50465	76.80247	122.50465
4200.00000	123.30154	66.87905	123.30154
4250.00000	124.05669	55.82333	124.05669
4300.00000	124.58763	43.58197	124.58763
4350.00000	124.78312	30.72845	124.78312
4400.00000	124.69752	18.59046	124.69752
4450.00000	124.39299	 7.30288	124.39299
4500.00000	123.98022	-2.96152	123.98022
4550.00000	123.51196	-12.51021	123.51196
4600.00000	122.96621	-21.19361	122.96621
4650.00000	122.47895	-29.32195	122.47895
4700.00000	121.92843	-37.73821	121.92843
4750.00000	121.29784	-46.27990	121.29784
4800.00000	120.46866	-54.88963	120.46866
4850.00000	119.38055	-62.72720	119.38055
4900.00000	118.03160	-68.82335	118.03160
4950.00000	116.61984	-72.34950	116.61984
5000.00000	115.26766	-73.01127	115.26766
5050.00000	114.12309	-72.82702	114.12309
5100.00000	112.91761	-69.79631	112.91761
5150.00000	112.67980	-63.60620	112.67980
5200.00000	111.89434	-60.85522	111.89434
5250.00000	112.44946	-45.80580	112.44946
5300.00000	115.38703	-47.87774	115.38703
5350.00000	116.20087	-62.12483	116.20087
5400.00000	115.76067	-71.80326	115.76067
5450.00000	115.19288	-77.06931	115.19288
5500.00000	114.73609	-80.81661	114.73609
5550.00000	114.40040	-83.57864	114.40040
5600.00000	114.12423	-86.20722	114.12423
5650.00000	113.89658	-88.64494	113.89658
5700.00000	113.70176	-91.31928	113.70176
5750.00000	113.54600	-93.70058	113.54600
5800.00000	113.36534	-96.25904	113.36534
5850.00000	113.21156	-98.84725	113.21156
5900.00000	113.09216	-101.24021	113.09216
5950.00000	112.98213	-103.76728	112.98213
6000.00000	112.86247	-106.09937	112.86247
6050.00000	112.72663	-108.51308	112.72663
6100.00000	112.64613	-110.82846	112.64613
6150.00000	112.57855	-113.25112	112.57855
6200.00000	112.48325	-115.75377	112.48325
6250.00000	112.45229	-118.41366	112.45229
6300.00000	112.39904	-121.10661	112.39904
6350.00000	112.31274	-123.84100	112.31274
6400.00000	112.26826	-126.75204	112.26826
6450.00000	112.18979	-129.58617	112.18979
6500.00000	112.10207	-132.56564	112.10207
6550.00000	111.99560	-135.35477	111.99560
6600.00000	111.94251	-138.04845	111.94251
6650.00000	111.85608	-140.85304	111.85608
6700.00000	111.79829	-143.76031	111.79829
6750.00000	111.72992	-146.56646	111.72992
6800.00000	111.67922	-149.33863	111.67922
6850.00000	111.60045	-152.34030	111.60045
6900.00000	111.55232	-155.21131	111.55232
6950.00000	111.48976	-158.10824	111.48976
7000.00000	111.42609	-161.14080	111.42609
7050.00000	111.36035	-164.31181	111.36035
7100.00000	111.31982	-167.53430	111.31982
7150.00000	111.26876	-170.64608	111.26876
7200.00000	111.18735	-174.14103	111.18735
7250.00000	111.08056	-177.64944	111.08056
7300.00000	111.01352	-181.16443	111.01352
7350.00000	110.86451	-184.68873	110.86451
7400.00000	110.76012	-188.35612	110.76012
7450.00000	110.58638	-192.13012	110.58638
7500.00000	110.41976	-195.64239	110.41976
7550.00000	110.25140	-199.48150	110.25140
7600.00000	110.00103	-203.08258	110.00103
7650.00000	109.79141	-206.77284	109.79141
7700.00000	109.57418	-210.18039	109.57418
7750.00000	109.28236	-213.59943	109.28236
7800.00000	108.98364	-217.14734	108.98364
7850.00000	108.66904	-220.23988	108.66904
7900.00000	108.39465	-223.35330	108.39465
7950.00000	108.06002	-226.22463	108.06002
8000.00000	107.75375	-228.98584	107.75375
8050.00000	107.40416	-232.01645	107.40416
8100.00000	107.11861	-234.10519	107.11861
8150.00000	106.69682	-236.45253	106.69682
8200.00000	106.39009	-238.28846	106.39009
8250.00000	106.02767	-240.49258	106.02767
8300.00000	105.66758	-242.58673	105.66758
8350.00000	105.32422	-244.31418	105.32422
8400.00000	104.93764	-246.52993	104.93764
8450.00000	104.55447	-248.16383	104.55447
8500.00000	104.19648	-250.38063	104.19648
8550.00000	103.91655	-251.92093	103.91655
8600.00000	103.66239	-254.16646	103.66239
8650.00000	103.35766	-255.80449	103.35766
8700.00000	103.17343	-257.56992	103.17343
8750.00000	102.93511	-258.24556	102.93511
8800.00000	102.73858	-259.36726	102.73858
8850.00000	102.55344	-260.37056	102.55344
8900.00000	102.33285	-260.91365	102.33285
8950.00000	102.13609	-261.67851	102.13609
9000.00000	101.82048	-262.66553	101.82048
9050.00000	101.58343	-263.96036	101.58343
9100.00000	101.33597	-265.38815	101.33597
9150.00000	101.04089	-267.13394	101.04089
9200.00000	100.90096	-268.63888	100.90096
9250.00000	100.70514	-270.81441	100.70514
9300.00000	100.60493	-272.31946	100.60493
9350.00000	100.65183	-274.14888	100.65183
9400.00000	100.52369	-275.20641	100.52369
9450.00000	100.59037	-275.73763	100.59037
9500.00000	100.60458	-275.70302	100.60458
9550.00000	100.66524	-275.27737	100.66524
9600.00000	100.89475	-276.14947	100.89475
9650.00000	100.77802	-277.54818	100.77802
9700.00000	100.70516	-277.78822	100.70516
9750.00000	100.71048	-280.30108	100.71048
9800.00000	100.54474	-281.73910	100.54474
9850.00000	100.56110	-283.53687	100.56110
9900.00000	100.41484	-286.18852	100.41484
9950.00000	100.47553	-287.88984	100.47553
10000.00000	100.59109	-290.76639	100.59109
10050.00000	100.62647	-292.78939	100.62647
10100.00000	100.68221	-294.36314	100.68221
10150.00000	100.59234	-297.07126	100.59234
10200.00000	100.54789	-299.12995	100.54789
10250.00000	100.44402	-301.74746	100.44402
10300.00000	100.38857	-304.68770	100.38857
10350.00000	100.23814	-307.37394	100.23814
10400.00000	100.08508	-310.81844	100.08508
10450.00000	100.03007	-314.69184	100.03007
10500.00000	100.01976	-317.96037	100.01976
10550.00000	99.97227	-321.31585	99.97227
10600.00000	99.86471	-324.22385	99.86471
10650.00000	99.74982	-326.52308	99.74982
10700.00000	99.60290	-330.15588	99.60290
10750.00000	99.42144	-332.75887	99.42144
10800.00000	99.14652	-335.37890	99.14652
10850.00000	98.82471	-339.39237	98.82471
10900.00000	98.54870	-342.17488	98.54870
10950.00000	98.24943	-345.06102	98.24943
11000.00000	97.93550	-348.12155	97.93550
11050.00000	97.47656	-350.69309	97.47656
11100.00000	97.15764	-353.57734	97.15764
11150.00000	96.66581	-355.70538	96.66581
11200.00000	96.30070	-357.23526	96.30070
11250.00000	95.78973	-359.65596	95.78973
11300.00000	95.20174	-361.49175	95.20174
11350.00000	94.73947	-362.95995	94.73947
11400.00000	94.16272	-364.69160	94.16272
11450.00000	93.68017	-366.40084	93.68017
11500.00000	93.35603	-366.76154	93.35603
11550.00000	92.86726	-367.16979	92.86726
11600.00000	92.50067	-368.25648	92.50067
11650.00000	92.06138	-367.36833	92.06138
11700.00000	91.77165	-367.53641	91.77165
11750.00000	91.38284	-367.27647	91.38284
11800.00000	91.02643	-367.10191	91.02643
11850.00000	90.79200	-366.37912	90.79200
11900.00000	90.26135	-366.45697	90.26135
11950.00000	89.99683	-365.16624	89.99683
12000.00000	89.70277	-364.59009	89.70277
12050.00000	89.31457	-362.79740	89.31457
12100.00000	89.20264	-363.27944	89.20264
12150.00000	88.95256	-363.20487	88.95256
12200.00000	88.79113	-362.64910	88.79113
12250.00000	88.74866	-361.28422	88.74866
12300.00000	89.77531	-360.73104	89.77531
12350.00000	88.60445	-359.11993	88.60445
12400.00000	88.58790	-357.57077	88.58790
12450.00000	88.57291	-356.13421	88.57291
12500.00000	88.45570	-355.42625	88.45570
12550.00000	88.34378	-354.46229	88.34378
12600.00000	88.25785	-355.26946	88.25785
12650.00000	88.35237	-354.97125	88.35237
12700.00000	88.41477	-355.00314	88.41477
12750.00000	88.44244	-355.20253	88.44244
12800.00000	88.49941	-353.98397	88.49941
12850.00000	88.36645	-353.62495	88.36645
12900.00000	88.44246	-353.37758	88.44246
12950.00000	88.36520	-352.45630	88.36520
13000.00000	88.39122	-352.87931	88.39122
13050.00000	88.39167	-352.49656	88.39167
13100.00000	88.39276	-352.27744	88.39276
13150.00000	88.60503	-352.89830	88.60503
13200.00000	88.71590	-352.37055	88.71590
13250.00000	88.86327	-351.76976	88.86327
13300.00000	88.84768	-348.63157	88.84768
13350.00000	88.91757	-349.45609	88.91757
13400.00000	89.20833	-349.13905	89.20833
13450.00000	89.01681	-348.20196	89.01681
13500.00000	89.29081	-347.29242	89.29081
13550.00000	89.29300	-347.90224	89.29300
13600.00000	89.54499	-347.04459	89.54499
13650.00000	89.62341	-346.63758	89.62341
13700.00000	89.72921	-345.97214	89.72921
13750.00000	89.89585	-345.62527	89.89585
13800.00000	90.00087	-347.34835	90.00087
13850.00000	90.08906	-347.94956	90.08906
13900.00000	90.30106	-347.36132	90.30106
13950.00000	90.62817	-347.32595	90.62817
14000.00000	91.14677	-346.10129	91.14677
14050.00000	91.42250	-345.41157	91.42250
14100.00000	91.54180	-345.23409	91.54180
14150.00000	91.85997	-345.53736	91.85997
14200.00000	92.26746	-345.54721	92.26746
14250.00000	92.92805	-343.65267	92.92805
14300.00000	93.16671	-344.95278	93.16671
14350.00000	93.49869	-343.89473	93.49869
14400.00000	93.52508	-344.78419	93.52508
14450.00000	93.96574	-343.92686	93.96574
14500.00000	94.28242	-344.96742	94.28242
14550.00000	94.75396	-345.53162	94.75396
14600.00000	95.05047	-347.82065	95.05047
14650.00000	95.70044	-347.23485	95.70044
14700.00000	96.16309	-351.92127	96.16309
14750.00000	96.63621	-352.78627	96.63621
14800.00000	96.92602	-353.30350	96.92602
14850.00000	97.46002	-354.32545	97.46002
14900.00000	97.95997	-356.31825	97.95997
14950.00000	98.43668	-358.78640	98.43668
15000.00000	98.89770	-361.13388	98.89770
15050.00000	99.19104	-361.56372	99.19104
15100.00000	99.64416	-363.13384	99.64416
15150.00000	100.18003	-366.36479	100.18003
15200.00000	100.43785	-367.28729	100.43785
15250.00000	100.73040	-370.75877	100.73040
15300.00000	101.33131	-373.92598	101.33131
15350.00000	101.58561	-377.76526	101.58561
15400.00000	101.88802	-379.48701	101.88802
15450.00000	102.21215	-382.99281	102.21215
15500.00000	102.59479	-386.16195	102.59479
15550.00000	102.90450	-389.75491	102.90450
15600.00000	103.15476	-392.89920	103.15476
15650.00000	103.53994	-394.71759	103.53994
15700.00000	103.59009	-399.47746	103.59009
15750.00000	103.89628	-402.35802	103.89628
15800.00000	104.15180	-404.76644	104.15180
15850.00000	104.34022	-407.90252	104.34022
15900.00000	104.42280	-411.63070	104.42280
15950.00000	104.60203	-414.67028	104.60203
16000.00000	104.75318	-417.40423	104.75318
16050.00000	105.02337	-420.56303	105.02337
16100.00000	104.99013	-423.84575	104.99013
16150.00000	105.07710	-426.64511	105.07710
16200.00000	105.24779	-430.01684	105.24779
16250.00000	105.42425	-432.72428	105.42425
16300.00000	105.67377	-435.64244	105.67377
16350.00000	105.73359	-438.27396	105.73359
16400.00000	105.89568	-440.66919	105.89568
16450.00000	106.01220	-443.44656	106.01220
16500.00000	106.11052	-446.40876	106.11052
16550.00000	106.28909	-449.62305	106.28909
16600.00000	106.46549	-452.12733	106.46549
16650.00000	106.57749	-455.08358	106.57749
16700.00000	106.72237	-457.59981	106.72237
16750.00000	106.74952	-460.65170	106.74952
16800.00000	106.93834	-463.75964	106.93834
16850.00000	107.13706	-466.55655	107.13706
16900.00000	107.28346	-469.88439	107.28346
16950.00000	107.41448	-472.79231	107.41448
17000.00000	107.40424	-475.69908	107.40424
17050.00000	107.62501	-478.12638	107.62501
17100.00000	107.63826	-480.27184	107.63826
17150.00000	107.92016	-483.86108	107.92016
17200.00000	108.01137	-486.78676	108.01137
17250.00000	108.08572	-490.27391	108.08572
17300.00000	108.29466	-493.39891	108.29466
17350.00000	108.25590	-496.24024	108.25590
17400.00000	108.45119	-499.21579	108.45119
17450.00000	108.39628	-502.91017	108.39628
17500.00000	108.63793	-505.94062	108.63793
17550.00000	108.73546	-509.17169	108.73546
17600.00000	108.91517	-512.05979	108.91517
17650.00000	108.98309	-516.12245	108.98309
17700.00000	109.04929	-519.56653	109.04929
17750.00000	109.25792	-522.51909	109.25792
17800.00000	109.19700	-526.62302	109.19700
17850.00000	109.25205	-529.45650	109.25205
17900.00000	109.29639	-533.01950	109.29639
17950.00000	109.43283	-536.91352	109.43283
18000.00000	109.44525	-541.01495	109.44525
18050.00000	109.62967	-543.89173	109.62967
18100.00000	109.49301	-548.03519	109.49301
18150.00000	109.52494	-551.04812	109.52494
18200.00000	109.45639	-555.18589	109.45639
18250.00000	109.50771	-558.06528	109.50771
18300.00000	109.51726	-561.57536	109.51726
18350.00000	109.48060	-564.81181	109.48060
18400.00000	109.41477	-568.59727	109.41477
18450.00000	109.33582	-573.24555	109.33582
18500.00000	109.30243	-576.56233	109.30243
18550.00000	109.23264	-579.27821	109.23264
18600.00000	109.23826	-583.11304	109.23826
18650.00000	109.02683	-585.87854	109.02683
18700.00000	108.97388	-589.82654	108.97388
18750.00000	108.94410	-593.12848	108.94410
18800.00000	108.95105	-595.68599	108.95105
18850.00000	108.73843	-599.02984	108.73843
18900.00000	108.64800	-601.96352	108.64800
18950.00000	108.60916	-605.53139	108.60916
19000.00000	108.37472	-608.38181	108.37472
19050.00000	108.39926	-611.37795	108.39926
19100.00000	108.25193	-614.14831	108.25193
19150.00000	108.30635	-616.82599	108.30635
19200.00000	108.21003	-619.42805	108.21003
19250.00000	108.11482	-623.55560	108.11482
19300.00000	107.98105	-625.72292	107.98105
19350.00000	107.89783	-628.62432	107.89783
19400.00000	107.78980	-631.29180	107.78980
19450.00000	107.83549	-633.66779	107.83549
19500.00000	107.68398	-637.54137	107.68398
19550.00000	107.62627	-640.38023	107.62627
19600.00000	107.62144	-643.80319	107.62144
19650.00000	107.47496	-646.16690	107.47496
19700.00000	107.32424	-649.24770	107.32424
19750.00000	107.25894	-651.73971	107.25894
19800.00000	107.26099	-655.80831	107.26099
19850.00000	107.18132	-658.60826	107.18132
19900.00000	107.02670	-662.35560	107.02670
19950.00000	106.91589	-665.27690	106.91589
20000.00000	106.84857	-668.41637	106.84857
20050.00000	106.77170	-671.77570	106.77170
20100.00000	106.54841	-675.11918	106.54841
20150.00000	106.45638	-677.60696	106.45638
20200.00000	106.26783	-681.60020	106.26783
20250.00000	106.06186	-684.65335	106.06186
20300.00000	105.82179	-687.90192	105.82179
20350.00000	105.71241	-691.44844	105.71241
20400.00000	105.41913	-694.14471	105.41913
20450.00000	105.08522	-697.51718	105.08522
20500.00000	104.87785	-700.85093	104.87785
20550.00000	104.36343	-702.96694	104.36343
20600.00000	104.14843	-705.62563	104.14843
20650.00000	103.83169	-708.41949	103.83169
20700.00000	103.40794	-710.91732	103.40794
20750.00000	103.06529	-713.18353	103.06529
20800.00000	102.60521	-714.77087	102.60521
20850.00000	102.25733	-716.43145	102.25733
20900.00000	101.80880	-717.72563	101.80880
20950.00000	101.41890	-718.27104	101.41890
21000.00000	101.05798	-718.98948	101.05798
21050.00000	100.82154	-719.17699	100.82154
21100.00000	100.47594	-719.06649	100.47594
21150.00000	100.26380	-719.13473	100.26380
21200.00000	100.09355	-718.41103	100.09355
21250.00000	99.96591	-719.22556	99.96591
21300.00000	99.96632	-718.57483	99.96632
21350.00000	99.87219	-718.58000	99.87219
21400.00000	99.80316	-719.20903	99.80316
21450.00000	99.77845	-719.42853	99.77845
21500.00000	99.78973	-719.91001	99.78973
21550.00000	99.71010	-719.81289	99.71010
21600.00000	99.88609	-720.58033	99.88609
21650.00000	99.92071	-721.71116	99.92071
21700.00000	99.92937	-722.65206	99.92937
21750.00000	99.99810	-723.90459	99.99810
21800.00000	99.97656	-725.07188	99.97656
21850.00000	99.92475	-725.99366	99.92475
21900.00000	100.00934	-726.61782	100.00934
21950.00000	100.08148	-727.47857	100.08148
22000.00000	100.21250	-728.94848	100.21250
22050.00000	100.29241	-730.03927	100.29241
22100.00000	100.24280	-731.95656	100.24280
22150.00000	100.23064	-733.18416	100.23064
22200.00000	100.30010	-734.09934	100.30010
22250.00000	100.25944	-734.70020	100.25944
22300.00000	100.28845	-735.62950	100.28845
22350.00000	100.54095	-737.52838	100.54095
22400.00000	100.68476	-739.14990	100.68476
22450.00000	100.68962	-741.33969	100.68962
22500.00000	100.62256	-741.85251	100.62256
22550.00000	100.59289	-743.67463	100.59289
22600.00000	100.62850	-745.44114	100.62850
22650.00000	100.72623	-746.46489	100.72623
22700.00000	100.90251	-747.33872	100.90251
22750.00000	100.96563	-748.16293	100.96563
22800.00000	101.08721	-752.28733	101.08721
22850.00000	101.19531	-754.89988	101.19531
22900.00000	101.16794	-755.64798	101.16794
22950.00000	101.16632	-757.02585	101.16632
23000.00000	101.22047	-757.88020	101.22047
23050.00000	101.28956	-759.91288	101.28956
23100.00000	101.51066	-760.32320	101.51066
23150.00000	101.53283	-762.06831	101.53283
23200.00000	101.84066	-765.80355	101.84066
23250.00000	101.63704	-769.25712	101.63704
23300.00000	101.90617	-771.57541	101.90617
23350.00000	101.55107	-773.31380	101.55107
23400.00000	101.56304	-775.24701	101.56304
23450.00000	101.72258	-776.54142	101.72258
23500.00000	101.69199	-777.47129	101.69199
23550.00000	101.80440	-778.21894	101.80440
23600.00000	101.78751	-782.64121	101.78751
23650.00000	102.00964	-784.54719	102.00964
23700.00000	102.17036	-789.68670	102.17036
23750.00000	101.99744	-791.02220	101.99744
23800.00000	101.73750	-791.63951	101.73750
23850.00000	101.76567	-793.03024	101.76567
23900.00000	102.20010	-794.63040	102.20010
23950.00000	101.84907	-797.50943	101.84907
24000.00000	101.88864	-800.17272	101.88864
24050.00000	102.12134	-801.25256	102.12134
24100.00000	102.43456	-805.44793	102.43456
24150.00000	102.37272	-807.78057	102.37272
24200.00000	102.39245	-812.23287	102.39245
24250.00000	101.84265	-812.99718	101.84265
24300.00000	102.20995	-815.00353	102.20995
24350.00000	101.97305	-817.83891	101.97305
24400.00000	101.89630	-820.97804	101.89630
24450.00000	101.59520	-821.63869	101.59520
24500.00000	102.14947	-822.58428	102.14947
24550.00000	102.05253	-468.06888	102.05253
24600.00000	102.50077	-468.64044	102.50077
24650.00000	102.13954	-113.10859	102.13954
24700.00000	102.00838	246.48682	102.00838
24750.00000	102.08159	600.76578	102.08159
24800.00000	101.92605	959.07412	101.92605
24850.00000	101.54474	1317.45139	101.54474
24900.00000	101.61156	1677.25291	101.61156
24950.00000	101.46764	2032.54116	101.46764
25000.00000	101.62122	2026.13829	101.62122
25050.00000	102.02294	1670.88966	102.02294
25100.00000	101.27556	1664.46501	101.27556
25150.00000	101.48480	1664.53867	101.48480
25200.00000	101.37213	1661.11475	101.37213
25250.00000	101.50928	1659.60925	101.50928
25300.00000	101.51150	1657.86717	101.51150
25350.00000	101.36267	1650.83786	101.36267
25400.00000	101.47435	1647.11574	101.47435
25450.00000	101.28019	1645.67534	101.28019
25500.00000	101.03657	1643.36101	101.03657
25550.00000	101.14060	1640.97621	101.14060
25600.00000	101.05353	1638.40181	101.05353
25650.00000	100.90266	1637.08515	100.90266
25700.00000	100.78117	1634.92899	100.78117
25750.00000	100.59474	1632.11874	100.59474
25800.00000	100.62645	1629.51253	100.62645
25850.00000	100.66864	1627.12512	100.66864
25900.00000	100.53669	1623.21173	100.53669
25950.00000	100.22241	1625.08618	100.22241
26000.00000	100.21438	1620.71618	100.21438
26050.00000	100.13659	1618.38632	100.13659
26100.00000	100.06389	1615.51300	100.06389
26150.00000	99.97431	1614.10733	99.97431
26200.00000	99.83439	1611.49088	99.83439
26250.00000	99.64335	1609.21228	99.64335
26300.00000	99.54112	1606.53560	99.54112
26350.00000	99.02992	1606.34883	99.02992
26400.00000	98.95981	1603.98427	98.95981
26450.00000	99.09743	1602.36985	99.09743
26500.00000	98.81504	1600.60233	98.81504
26550.00000	98.76238	1596.28703	98.76238
26600.00000	98.59045	1595.93996	98.59045
26650.00000	98.61975	1596.75911	98.61975
26700.00000	98.56132	1594.35976	98.56132
26750.00000	98.25162	1593.22587	98.25162
26800.00000	98.26781	1588.51189	98.26781
26850.00000	98.59079	1589.06451	98.59079
26900.00000	98.47208	1588.03715	98.47208
26950.00000	98.52786	1584.48435	98.52786
27000.00000	98.02170	1585.06429	98.02170
27050.00000	98.32777	1582.75359	98.32777
27100.00000	97.96131	1582.34916	97.96131
27150.00000	97.99637	1579.30138	97.99637
27200.00000	98.02131	1578.55114	98.02131
27250.00000	97.64216	1577.97550	97.64216
27300.00000	97.44564	1576.45994	97.44564
27350.00000	97.62689	1577.13300	97.62689
27400.00000	97.29675	1575.82627	97.29675
27450.00000	97.31507	1575.02557	97.31507
27500.00000	97.49887	1573.97200	97.49887
27550.00000	97.58152	1573.26846	97.58152
27600.00000	98.01574	1570.45193	98.01574
27650.00000	97.54310	1572.20682	97.54310
27700.00000	97.73009	1567.86698	97.73009
27750.00000	97.85034	1566.34127	97.85034
27800.00000	97.94332	1564.42552	97.94332
27850.00000	98.34081	1566.79970	98.34081
27900.00000	98.09027	1566.28327	98.09027
27950.00000	97.62639	1563.77526	97.62639
28000.00000	98.00113	1562.78116	98.00113
28050.00000	98.71545	1560.01819	98.71545
28100.00000	98.32649	1559.09721	98.32649
28150.00000	98.50011	1559.30349	98.50011
28200.00000	98.87846	1554.96023	98.87846
28250.00000	98.72491	1551.73471	98.72491
28300.00000	98.58038	1553.15921	98.58038
28350.00000	99.04903	1551.19166	99.04903
28400.00000	98.95867	1550.57984	98.95867
28450.00000	99.78781	1547.25595	99.78781
28500.00000	99.50084	1545.86283	99.50084
28550.00000	99.52468	1546.70990	99.52468
28600.00000	99.83170	1543.38127	99.83170
28650.00000	100.04589	1538.78416	100.04589
28700.00000	100.06514	1538.65334	100.06514
28750.00000	100.70434	1537.43801	100.70434
28800.00000	100.69073	1534.84929	100.69073
28850.00000	100.11704	1529.21082	100.11704
28900.00000	100.48019	1527.59682	100.48019
28950.00000	100.52096	1526.24123	100.52096
29000.00000	100.69680	1523.70416	100.69680
29050.00000	100.47375	1523.35660	100.47375
29100.00000	100.57559	1520.92714	100.57559
29150.00000	100.49336	1518.86072	100.49336
29200.00000	100.50337	1514.91189	100.50337
29250.00000	100.81918	1513.19496	100.81918
29300.00000	100.55887	1510.61629	100.55887
29350.00000	100.94433	1507.45264	100.94433
29400.00000	100.65445	1505.37488	100.65445
29450.00000	100.57070	1502.79907	100.57070
29500.00000	101.06411	1501.59721	101.06411
29550.00000	100.62395	1496.18248	100.62395
29600.00000	100.50312	1495.84682	100.50312
29650.00000	100.56470	1492.22660	100.56470
29700.00000	100.37863	1492.70185	100.37863
29750.00000	100.21688	1491.29242	100.21688
29800.00000	99.96653	1487.73839	99.96653
29850.00000	100.09828	1484.89888	100.09828
29900.00000	100.23330	1485.03108	100.23330
29950.00000	99.44560	1483.57675	99.44560
30000.00000	99.73307	1483.21725	99.73307
30050.00000	99.73425	1480.43353	99.73425
30100.00000	99.33419	1480.81854	99.33419
30150.00000	99.52907	1477.14263	99.52907
30200.00000	99.42643	1475.06020	99.42643
30250.00000	99.15441	1474.76127	99.15441
30300.00000	98.83462	1474.88368	98.83462
30350.00000	98.97124	1475.99154	98.97124
30400.00000	98.98574	1472.97932	98.98574
30450.00000	98.54310	1472.54856	98.54310
30500.00000	98.63910	1471.58164	98.63910
30550.00000	98.46937	1472.96058	98.46937
30600.00000	98.47099	1473.50008	98.47099
30650.00000	98.59764	1473.07553	98.59764
30700.00000	98.64926	1472.08769	98.64926
30750.00000	98.52368	1473.85856	98.52368
30800.00000	98.71331	1473.63662	98.71331
30850.00000	98.91039	1475.64516	98.91039
30900.00000	98.85532	1476.30390	98.85532
30950.00000	99.27958	1475.33493	99.27958
31000.00000	99.53218	1474.53468	99.53218
31050.00000	99.86571	1475.48844	99.86571
31100.00000	100.32863	1475.72992	100.32863
31150.00000	100.37616	1474.99811	100.37616
31200.00000	101.15010	1473.87917	101.15010
31250.00000	101.44509	1473.02168	101.44509
31300.00000	101.82492	1470.80263	101.82492
31350.00000	102.35679	1469.46848	102.35679
31400.00000	102.59994	1466.83006	102.59994
31450.00000	103.09482	1465.31148	103.09482
31500.00000	103.41908	1461.64239	103.41908
31550.00000	103.82972	1459.68445	103.82972
31600.00000	104.30266	1456.13360	104.30266
31650.00000	104.54843	1453.08850	104.54843
31700.00000	104.84680	1450.10085	104.84680
31750.00000	105.15341	1448.31084	105.15341
31800.00000	105.32322	1443.45101	105.32322
31850.00000	105.60516	1439.64365	105.60516
31900.00000	105.62074	1436.82887	105.62074
31950.00000	105.94013	1432.84630	105.94013
32000.00000	106.14929	1429.34263	106.14929
32050.00000	106.32958	1426.02727	106.32958
32100.00000	106.51667	1421.55351	106.51667
32150.00000	106.66263	1418.89996	106.66263
32200.00000	106.81379	1414.82470	106.81379
32250.00000	106.86046	1410.83584	106.86046
32300.00000	106.91661	1408.23850	106.91661
32350.00000	106.96390	1404.92654	106.96390
32400.00000	107.10360	1401.61598	107.10360
32450.00000	106.99305	1397.92307	106.99305
32500.00000	106.99789	1395.30376	106.99789
32550.00000	107.04381	1390.37412	107.04381
32600.00000	107.06928	1387.28013	107.06928
32650.00000	107.14807	1383.35201	107.14807
32700.00000	106.99964	1379.40605	106.99964
32750.00000	107.05585	1375.58428	107.05585
32800.00000	107.12084	1372.90730	107.12084
32850.00000	107.14469	1369.53765	107.14469
32900.00000	107.02423	1365.82920	107.02423
32950.00000	106.81369	1362.48436	106.81369
33000.00000	106.75992	1361.85545	106.75992
33050.00000	106.45236	1357.40069	106.45236
33100.00000	106.37570	1354.34828	106.37570
33150.00000	106.13016	1351.88795	106.13016
33200.00000	106.17725	1350.03941	106.17725
33250.00000	105.91034	1346.12468	105.91034
33300.00000	105.72949	1342.88811	105.72949
33350.00000	105.62875	1339.35067	105.62875
33400.00000	105.58416	1338.45841	105.58416
33450.00000	105.49117	1337.04096	105.49117
33500.00000	105.55888	1336.75091	105.55888
33550.00000	105.22028	1333.33235	105.22028
33600.00000	105.15743	1332.28466	105.15743
33650.00000	104.86630	1330.63508	104.86630
33700.00000	104.69160	1328.70499	104.69160
33750.00000	104.31343	1327.12026	104.31343
33800.00000	104.20841	1324.60484	104.20841
33850.00000	103.96069	1322.94854	103.96069
33900.00000	104.28195	1320.19722	104.28195
33950.00000	104.24421	1319.60817	104.24421
34000.00000	104.15192	1317.79711	104.15192
34050.00000	104.02785	1318.20919	104.02785
34100.00000	103.70286	1319.57138	103.70286
34150.00000	103.67196	1317.56480	103.67196
34200.00000	103.42254	1319.65379	103.42254
34250.00000	103.42999	1315.88822	103.42999
34300.00000	103.34440	1313.40788	103.34440
34350.00000	103.39360	1311.80377	103.39360
34400.00000	103.40162	1313.83519	103.40162
34450.00000	103.71133	1310.91494	103.71133
34500.00000	103.76690	1312.49970	103.76690
34550.00000	103.95256	1313.22947	103.95256
34600.00000	103.29955	1312.82613	103.29955
34650.00000	103.72924	1314.47023	103.72924
34700.00000	103.34542	1314.55684	103.34542
34750.00000	103.52293	1309.12374	103.52293
34800.00000	104.01028	1310.23240	104.01028
34850.00000	104.13888	1312.04811	104.13888
34900.00000	104.78792	1312.41891	104.78792
34950.00000	104.89128	1310.84201	104.89128
35000.00000	104.96484	1311.48768	104.96484
35050.00000	105.17377	1312.94439	105.17377
35100.00000	105.30972	1311.17903	105.30972
35150.00000	105.13221	1310.97625	105.13221
35200.00000	105.63513	1308.36974	105.63513
35250.00000	105.86913	1305.44724	105.86913
35300.00000	106.49440	1304.15210	106.49440
35350.00000	106.91446	1304.26878	106.91446
35400.00000	107.07837	1305.48232	107.07837
35450.00000	107.35364	1304.97921	107.35364
35500.00000	107.05632	1303.75626	107.05632
35550.00000	107.51899	1301.88944	107.51899
35600.00000	107.98135	1298.85884	107.98135
35650.00000	108.21178	1297.56147	108.21178
35700.00000	108.65290	1296.16703	108.65290
35750.00000	108.86391	1297.15523	108.86391
35800.00000	109.28685	1295.89319	109.28685
35850.00000	109.50308	1293.38143	109.50308
35900.00000	109.60543	1291.62614	109.60543
35950.00000	110.14044	1288.83059	110.14044
36000.00000	110.54197	1286.28907	110.54197
36050.00000	110.91228	1284.61073	110.91228
36100.00000	111.19604	1283.96274	111.19604
36150.00000	111.27475	1283.15880	111.27475
36200.00000	111.53029	1281.23311	111.53029
36250.00000	111.60283	1278.50154	111.60283
36300.00000	111.77810	1276.68334	111.77810
36350.00000	112.48533	1274.07202	112.48533
36400.00000	112.91485	1272.59851	112.91485
36450.00000	112.84966	1271.08025	112.84966
36500.00000	113.31804	1270.70176	113.31804
36550.00000	113.42900	1267.23092	113.42900
36600.00000	113.72272	1263.90253	113.72272
36650.00000	114.17161	1262.01496	114.17161
36700.00000	114.60217	1258.71296	114.60217
36750.00000	114.92932	1257.38504	114.92932
36800.00000	115.11284	1256.09447	115.11284
36850.00000	115.16617	1253.28741	115.16617
36900.00000	115.61261	1249.80697	115.61261
36950.00000	115.90680	1245.42453	115.90680
37000.00000	116.02186	1243.64869	116.02186
37050.00000	116.40629	1242.35905	116.40629
37100.00000	116.86296	1238.77793	116.86296
37150.00000	117.08594	1235.57518	117.08594
37200.00000	117.54595	1232.72762	117.54595
37250.00000	117.49486	1228.52759	117.49486
37300.00000	117.90286	1225.33785	117.90286
37350.00000	118.52852	1222.42989	118.52852
37400.00000	118.43610	1220.14842	118.43610
37450.00000	118.57377	1216.58477	118.57377
37500.00000	119.24202	1211.25767	119.24202
37550.00000	119.19036	1207.67281	119.19036
37600.00000	119.56550	1204.39419	119.56550
37650.00000	119.80034	1201.23608	119.80034
37700.00000	119.92797	1196.66980	119.92797
37750.00000	120.10947	1192.67402	120.10947
37800.00000	120.26307	1187.28590	120.26307
37850.00000	120.55656	1181.87962	120.55656
37900.00000	120.72349	1179.27409	120.72349
37950.00000	120.84492	1175.75486	120.84492
38000.00000	120.77691	1171.38831	120.77691
38050.00000	121.08080	1166.15998	121.08080
38100.00000	121.27396	1161.41245	121.27396
38150.00000	121.34098	1156.58018	121.34098
38200.00000	121.55921	1152.73419	121.55921
38250.00000	121.52396	1148.44259	121.52396
38300.00000	121.66214	1142.33565	121.66214
38350.00000	121.79890	1138.47264	121.79890
38400.00000	121.92596	1134.15033	121.92596
38450.00000	121.97615	1129.24626	121.97615
38500.00000	122.04264	1124.33542	122.04264
38550.00000	122.16093	1119.91028	122.16093
38600.00000	122.34995	1115.06466	122.34995
38650.00000	122.51956	1110.26050	122.51956
38700.00000	122.53729	1105.71134	122.53729
38750.00000	122.55623	1100.75891	122.55623
38800.00000	122.68728	1095.77352	122.68728
38850.00000	122.84496	1089.96199	122.84496
38900.00000	123.00909	1085.38168	123.00909
38950.00000	123.02138	1080.35948	123.02138
39000.00000	123.03975	1074.69074	123.03975
39050.00000	123.20239	1068.87869	123.20239
39100.00000	123.19064	1063.08880	123.19064
39150.00000	123.23263	1057.88926	123.23263
39200.00000	123.21183	1052.74058	123.21183
39250.00000	123.15280	1046.32026	123.15280
39300.00000	123.19098	1040.01942	123.19098
39350.00000	123.15593	1034.71888	123.15593
39400.00000	123.04839	1028.83153	123.04839
39450.00000	122.80750	1023.30153	122.80750
39500.00000	122.73244	1016.83574	122.73244
39550.00000	122.54692	1010.54808	122.54692
39600.00000	122.33431	1005.11108	122.33431
39650.00000	122.06234	1000.14019	122.06234
39700.00000	121.66039	994.09360	121.66039
39750.00000	121.46395	987.86804	121.46395
39800.00000	121.18578	982.75778	121.18578
39850.00000	120.76848	977.97980	120.76848
39900.00000	120.32256	973.01608	120.32256
39950.00000	119.94535	967.76262	119.94535
40000.00000	119.44453	964.04057	119.44453
40050.00000	119.14469	959.01639	119.14469
40100.00000	118.63766	954.78600	118.63766
40150.00000	118.05523	949.97921	118.05523
40200.00000	117.68339	945.46458	117.68339
40250.00000	117.26375	942.51012	117.26375
40300.00000	116.76298	939.74484	116.76298
40350.00000	116.00627	935.89490	116.00627
40400.00000	115.53038	932.33117	115.53038
40450.00000	115.15572	929.87333	115.15572
40500.00000	114.66070	928.81316	114.66070
40550.00000	113.98354	925.08881	113.98354
40600.00000	113.53259	922.53075	113.53259
40650.00000	113.09437	921.25504	113.09437
40700.00000	112.44187	920.90550	112.44187
40750.00000	112.00050	919.16332	112.00050
40800.00000	111.54990	916.20802	111.54990
40850.00000	111.21123	916.41297	111.21123
40900.00000	110.76793	916.03071	110.76793
40950.00000	110.00651	916.70260	110.00651
41000.00000	109.43130	915.15612	109.43130
41050.00000	109.46136	914.94059	109.46136
41100.00000	109.18130	914.90184	109.18130
41150.00000	108.75911	916.93516	108.75911
41200.00000	108.39372	915.65088	108.39372
41250.00000	108.42782	913.54135	108.42782
41300.00000	108.06071	916.95597	108.06071
41350.00000	107.63645	918.24400	107.63645
41400.00000	107.48102	912.44658	107.48102
41450.00000	107.80243	915.96500	107.80243
41500.00000	107.49827	918.02060	107.49827
41550.00000	106.86444	922.40215	106.86444
41600.00000	106.26332	918.37178	106.26332
41650.00000	107.26359	916.43298	107.26359
41700.00000	107.29114	920.19934	107.29114
41750.00000	106.38934	924.53986	106.38934
41800.00000	105.79170	915.76352	105.79170
41850.00000	106.45315	918.75605	106.45315
41900.00000	106.19622	920.76995	106.19622
41950.00000	106.74362	924.78769	106.74362
42000.00000	105.81649	917.28184	105.81649
42050.00000	105.72433	915.71871	105.72433
42100.00000	105.99555	922.79539	105.99555
42150.00000	104.97342	915.98884	104.97342
42200.00000	105.37102	915.36645	105.37102
42250.00000	105.86439	917.55100	105.86439
42300.00000	104.37043	917.54459	104.37043
42350.00000	104.65492	913.01783	104.65492
42400.00000	104.93183	914.46168	104.93183
42450.00000	105.66043	912.54731	105.66043
42500.00000	104.60603	911.23747	104.60603
42550.00000	104.89356	917.09465	104.89356
42600.00000	105.35210	908.26986	105.35210
42650.00000	104.84073	913.32195	104.84073
42700.00000	104.20323	910.25101	104.20323
42750.00000	105.64938	905.13898	105.64938
42800.00000	105.46037	896.61046	105.46037
42850.00000	104.98540	900.06935	104.98540
42900.00000	106.19524	899.92613	106.19524
42950.00000	105.63980	893.81691	105.63980
43000.00000	106.32091	887.98079	106.32091
43050.00000	105.40994	882.62301	105.40994
43100.00000	106.04545	883.90193	106.04545
43150.00000	105.96719	885.59120	105.96719
43200.00000	106.26897	878.95927	106.26897
43250.00000	106.21644	873.63191	106.21644
43300.00000	106.77283	872.11473	106.77283
43350.00000	107.50429	873.51568	107.50429
43400.00000	106.32765	866.57526	106.32765
43450.00000	107.76937	863.00985	107.76937
43500.00000	107.29800	857.08796	107.29800
43550.00000	107.36698	856.35708	107.36698
43600.00000	107.11006	847.06332	107.11006
43650.00000	108.01527	839.29487	108.01527
43700.00000	107.84857	841.85942	107.84857
43750.00000	107.02720	839.12853	107.02720
43800.00000	108.01422	829.63763	108.01422
43850.00000	108.66130	828.86129	108.66130
43900.00000	108.04054	825.85836	108.04054
43950.00000	108.62309	817.51144	108.62309
44000.00000	108.62303	816.19546	108.62303
44050.00000	108.63084	814.32958	108.63084
44100.00000	108.70072	797.85560	108.70072
44150.00000	109.20175	801.65471	109.20175
44200.00000	108.51042	802.85623	108.51042
44250.00000	109.04712	794.14861	109.04712
44300.00000	109.50158	785.33169	109.50158
44350.00000	107.98135	783.54427	107.98135
44400.00000	108.79556	779.65945	108.79556
44450.00000	109.47280	774.70474	109.47280
44500.00000	108.97206	773.27400	108.97206
44550.00000	109.92346	764.97832	109.92346
44600.00000	108.97786	763.46617	108.97786
44650.00000	108.66383	754.87246	108.66383
44700.00000	108.18618	753.52506	108.18618
44750.00000	108.10002	748.77147	108.10002
44800.00000	109.13884	745.25242	109.13884
44850.00000	108.10052	741.38215	108.10052
44900.00000	107.79687	738.23027	107.79687
44950.00000	108.33772	731.98411	108.33772
45000.00000	107.76281	726.63953	107.76281
45050.00000	105.96207	728.34561	105.96207
45100.00000	107.17160	721.26998	107.17160
45150.00000	106.71735	713.64756	106.71735
45200.00000	106.11715	715.28880	106.11715
45250.00000	106.51836	710.30016	106.51836
45300.00000	106.02285	709.69505	106.02285
45350.00000	105.01888	699.71503	105.01888
45400.00000	105.74615	696.88358	105.74615
45450.00000	105.33567	695.71369	105.33567
45500.00000	103.56537	690.67455	103.56537
45550.00000	103.94507	691.86205	103.94507
45600.00000	104.79315	687.80723	104.79315
45650.00000	102.66173	682.14967	102.66173
45700.00000	103.01864	679.11513	103.01864
45750.00000	103.86070	687.84523	103.86070
45800.00000	101.74873	674.75768	101.74873
45850.00000	102.70540	672.21936	102.70540
45900.00000	102.35134	675.39123	102.35134
45950.00000	101.17289	675.07252	101.17289
46000.00000	100.20062	658.63822	100.20062
46050.00000	100.90272	663.60364	100.90272
46100.00000	98.53487	665.40969	98.53487
46150.00000	99.63247	662.93581	99.63247
46200.00000	97.67747	658.91024	97.67747
46250.00000	97.76245	656.28417	97.76245
46300.00000	97.80698	656.18860	97.80698
46350.00000	98.62020	654.98349	98.62020
46400.00000	96.26737	647.44926	96.26737
46450.00000	95.35028	648.93616	95.35028
46500.00000	96.06326	655.90201	96.06326
46550.00000	95.64184	653.07213	95.64184
46600.00000	96.93615	657.63045	96.93615
46650.00000	92.34927	661.46791	92.34927
46700.00000	93.30828	660.86260	93.30828
46750.00000	95.05347	671.76465	95.05347
46800.00000	92.25585	665.46651	92.25585
46850.00000	93.65829	315.90615	93.65829
46900.00000	94.23223	309.96879	94.23223
46950.00000	94.63083	312.65380	94.63083
47000.00000	94.57007	312.18140	94.57007
47050.00000	96.80353	309.77100	96.80353
47100.00000	94.44291	307.13825	94.44291
47150.00000	96.00722	301.03537	96.00722
47200.00000	94.48350	308.54550	94.48350
47250.00000	95.86375	302.62110	95.86375
47300.00000	96.23462	292.62529	96.23462
47350.00000	95.42599	-49.98444	95.42599
47400.00000	94.34490	-62.59536	94.34490
47450.00000	96.79025	-55.10708	96.79025
47500.00000	93.99789	-65.89757	93.99789
47550.00000	93.87515	-424.05530	93.87515
47600.00000	93.84661	-417.25771	93.84661
47650.00000	95.41691	-424.35066	95.41691
47700.00000	94.93420	-433.17351	94.93420
47750.00000	93.17731	-420.85287	93.17731
47800.00000	92.62015	-441.00942	92.62015
47850.00000	95.04827	-793.59148	95.04827
47900.00000	94.05182	-1133.42526	94.05182
47950.00000	93.37571	-1147.35609	93.37571
48000.00000	94.79790	-1139.53562	94.79790
48050.00000	94.48343	-1149.93156	94.48343
48100.00000	93.99052	-1156.21757	93.99052
48150.00000	94.74062	-1498.85163	94.74062
48200.00000	93.85211	-1503.76829	93.85211
48250.00000	94.89693	-1513.42036	94.89693
48300.00000	94.30909	-1503.31633	94.30909
48350.00000	95.17308	-1524.91339	95.17308
48400.00000	96.14966	-1860.74908	96.14966
48450.00000	95.59258	-1865.27594	95.59258
48500.00000	95.62606	-1875.68868	95.62606
48550.00000	94.72428	-1871.81638	94.72428
48600.00000	96.51737	-2235.52628	96.51737
48650.00000	96.77801	-2231.65508	96.77801
48700.00000	96.50664	-2238.37954	96.50664
48750.00000	96.45133	-2599.05031	96.45133
48800.00000	97.25967	-2595.40473	97.25967
48850.00000	95.89221	-2611.22839	95.89221
48900.00000	96.78821	-2963.88146	96.78821
48950.00000	96.48122	-2973.30794	96.48122
49000.00000	97.77097	-2985.79351	97.77097
49050.00000	97.19292	-2980.27123	97.19292
49100.00000	95.62970	-3346.58433	95.62970
49150.00000	98.84324	-3703.77665	98.84324
49200.00000	96.54803	-3707.70901	96.54803
49250.00000	97.01275	-4074.44728	97.01275
49300.00000	98.26986	-3718.14742	98.26986
49350.00000	94.33796	-3715.72445	94.33796
49400.00000	97.15000	-3365.50685	97.15000
49450.00000	93.36514	-3010.15216	93.36514
49500.00000	95.44684	-2669.02700	95.44684
49550.00000	95.33859	-2299.47874	95.33859
49600.00000	91.95979	-2314.44938	91.95979
49650.00000	95.30459	-2299.96447	95.30459
49700.00000	90.50835	-1970.65047	90.50835
49750.00000	94.65456	-1979.71387	94.65456
49800.00000	88.10358	-1952.07628	88.10358
49850.00000	87.57966	-2000.08401	87.57966
49900.00000	88.48225	-1594.46534	88.48225
49950.00000	77.14534	-1079.82821	77.14534
