---ACOUSTIC CALIBRATION---
Filename: C:\Data\AZH DATA\AZH81\RightPrimary.calib
Date: 8/27/2019 4:23:44 PM
Format: 4
Probe Tube Correction File: C:\Data\Probe Tube Calibrations\50_ProbeTube.calib
Experiment VIs: 850
EPL_CFTS.exe V12.0.1 (2012)
DAQmx V9.6

Attenuation (dB): 40.000000
Min Freq (Hz): 50.000000
Max Freq (Hz): 49950.000000
Freq Step (Hz): 50.000000
Sample Rate (Hz): 100000.000000
[Smoothing]
Method=None
MA.Iterations=0
MA.Length=0
Loess.Length=0
Loess.Type=Linear
Loess.Robust=FALSE


Freq(Hz)	Mag(dB)	Phase(deg)	Unsmoothed(dB)

50.00000	106.03064	441.53258	106.03064
100.00000	88.69564	561.84618	88.69564
150.00000	80.50463	493.05399	80.50463
200.00000	82.32726	475.31988	82.32726
250.00000	88.77552	438.67751	88.77552
300.00000	86.46019	392.40404	86.46019
350.00000	83.34099	402.06132	83.34099
400.00000	85.14272	379.81421	85.14272
450.00000	87.69066	349.68813	87.69066
500.00000	88.12859	374.91060	88.12859
550.00000	93.07244	365.24961	93.07244
600.00000	94.26821	357.69534	94.26821
650.00000	97.49138	351.73163	97.49138
700.00000	99.45875	335.10002	99.45875
750.00000	101.49762	317.25933	101.49762
800.00000	102.12163	292.02837	102.12163
850.00000	101.49546	277.84349	101.49546
900.00000	100.27361	259.21167	100.27361
950.00000	98.42592	258.52603	98.42592
1000.00000	97.05482	257.24805	97.05482
1050.00000	94.80644	270.33596	94.80644
1100.00000	96.17866	291.39689	96.17866
1150.00000	98.87734	299.90762	98.87734
1200.00000	101.85405	298.74565	101.85405
1250.00000	103.48414	290.57777	103.48414
1300.00000	105.41187	285.42404	105.41187
1350.00000	106.46375	275.85337	106.46375
1400.00000	107.46053	268.87689	107.46053
1450.00000	108.40967	260.83790	108.40967
1500.00000	109.40134	255.28986	109.40134
1550.00000	110.23627	246.76422	110.23627
1600.00000	111.65939	237.96211	111.65939
1650.00000	112.83266	220.45508	112.83266
1700.00000	111.67538	210.39114	111.67538
1750.00000	111.49423	204.22472	111.49423
1800.00000	111.23736	198.98636	111.23736
1850.00000	111.32727	197.41999	111.32727
1900.00000	112.37854	193.32144	112.37854
1950.00000	113.13597	180.89769	113.13597
2000.00000	112.31281	168.08079	112.31281
2050.00000	110.81656	170.89761	110.81656
2100.00000	112.44868	172.46233	112.44868
2150.00000	113.25974	161.68913	113.25974
2200.00000	113.20809	151.37856	113.20809
2250.00000	112.63236	144.05151	112.63236
2300.00000	112.73735	138.67427	112.73735
2350.00000	112.46749	131.87812	112.46749
2400.00000	112.22933	126.39949	112.22933
2450.00000	111.91859	119.80579	111.91859
2500.00000	111.55440	114.88032	111.55440
2550.00000	111.16560	109.08677	111.16560
2600.00000	110.62959	104.89807	110.62959
2650.00000	110.16372	101.03163	110.16372
2700.00000	109.65127	97.27302	109.65127
2750.00000	109.17097	94.11536	109.17097
2800.00000	108.57322	90.91892	108.57322
2850.00000	108.04221	88.69125	108.04221
2900.00000	107.46581	86.44512	107.46581
2950.00000	106.93924	85.37486	106.93924
3000.00000	106.25044	83.32046	106.25044
3050.00000	105.60525	82.60979	105.60525
3100.00000	105.07509	82.22865	105.07509
3150.00000	104.02859	80.96729	104.02859
3200.00000	102.64862	83.70787	102.64862
3250.00000	101.58139	90.50079	101.58139
3300.00000	100.78835	99.88220	100.78835
3350.00000	99.97862	113.98405	99.97862
3400.00000	100.96486	134.71688	100.96486
3450.00000	103.34137	148.16578	103.34137
3500.00000	106.04948	152.07351	106.04948
3550.00000	108.33390	150.47018	108.33390
3600.00000	110.29958	147.58754	110.29958
3650.00000	111.88087	142.49290	111.88087
3700.00000	113.20453	137.62298	113.20453
3750.00000	114.52696	132.62520	114.52696
3800.00000	115.74040	126.47519	115.74040
3850.00000	116.81873	120.23554	116.81873
3900.00000	117.85394	113.83741	117.85394
3950.00000	118.84661	106.97216	118.84661
4000.00000	119.72550	99.50682	119.72550
4050.00000	120.55293	92.32215	120.55293
4100.00000	121.43409	85.08855	121.43409
4150.00000	122.48545	76.78837	122.48545
4200.00000	123.28590	66.98580	123.28590
4250.00000	124.05224	55.88462	124.05224
4300.00000	124.58468	43.65664	124.58468
4350.00000	124.79035	30.73905	124.79035
4400.00000	124.70435	18.52036	124.70435
4450.00000	124.40606	 7.25482	124.40606
4500.00000	124.00538	-3.02396	124.00538
4550.00000	123.52601	-12.58498	123.52601
4600.00000	122.99101	-21.43839	122.99101
4650.00000	122.48120	-29.53186	122.48120
4700.00000	121.94614	-37.99628	121.94614
4750.00000	121.28094	-46.55752	121.28094
4800.00000	120.45064	-55.17707	120.45064
4850.00000	119.35907	-63.00957	119.35907
4900.00000	118.01489	-69.10303	118.01489
4950.00000	116.58616	-72.51488	116.58616
5000.00000	115.20910	-73.26615	115.20910
5050.00000	114.10107	-72.97184	114.10107
5100.00000	112.89019	-69.70637	112.89019
5150.00000	112.66499	-63.72580	112.66499
5200.00000	111.85775	-60.95487	111.85775
5250.00000	112.41154	-45.63468	112.41154
5300.00000	115.38147	-47.69252	115.38147
5350.00000	116.19905	-62.13277	116.19905
5400.00000	115.76315	-71.73721	115.76315
5450.00000	115.19949	-77.15837	115.19949
5500.00000	114.74402	-80.82013	114.74402
5550.00000	114.40141	-83.73253	114.40141
5600.00000	114.11214	-86.46241	114.11214
5650.00000	113.91128	-88.91086	113.91128
5700.00000	113.70918	-91.50686	113.70918
5750.00000	113.53394	-93.93459	113.53394
5800.00000	113.35270	-96.44882	113.35270
5850.00000	113.21107	-98.87602	113.21107
5900.00000	113.09866	-101.47669	113.09866
5950.00000	112.95669	-103.91192	112.95669
6000.00000	112.83790	-106.26727	112.83790
6050.00000	112.71438	-108.70651	112.71438
6100.00000	112.63825	-110.95848	112.63825
6150.00000	112.55675	-113.47757	112.55675
6200.00000	112.46263	-115.97523	112.46263
6250.00000	112.41776	-118.54198	112.41776
6300.00000	112.36072	-121.21135	112.36072
6350.00000	112.28850	-124.24712	112.28850
6400.00000	112.23536	-126.97280	112.23536
6450.00000	112.17923	-129.84514	112.17923
6500.00000	112.08899	-132.62578	112.08899
6550.00000	111.98074	-135.57833	111.98074
6600.00000	111.91303	-138.31950	111.91303
6650.00000	111.82477	-141.05621	111.82477
6700.00000	111.77300	-143.93497	111.77300
6750.00000	111.71528	-146.77351	111.71528
6800.00000	111.64900	-149.56431	111.64900
6850.00000	111.57898	-152.51678	111.57898
6900.00000	111.52383	-155.48295	111.52383
6950.00000	111.45981	-158.34049	111.45981
7000.00000	111.41654	-161.43327	111.41654
7050.00000	111.33482	-164.49319	111.33482
7100.00000	111.29233	-167.83285	111.29233
7150.00000	111.23285	-171.07945	111.23285
7200.00000	111.14706	-174.40294	111.14706
7250.00000	111.03921	-177.89105	111.03921
7300.00000	110.95779	-181.47932	110.95779
7350.00000	110.83125	-184.94731	110.83125
7400.00000	110.70607	-188.71425	110.70607
7450.00000	110.55662	-192.43512	110.55662
7500.00000	110.35091	-196.19476	110.35091
7550.00000	110.19113	-199.70561	110.19113
7600.00000	109.95298	-203.49235	109.95298
7650.00000	109.70999	-206.95768	109.70999
7700.00000	109.49081	-210.46776	109.49081
7750.00000	109.19840	-213.84265	109.19840
7800.00000	108.89291	-217.25559	108.89291
7850.00000	108.58984	-220.43935	108.58984
7900.00000	108.28772	-223.35011	108.28772
7950.00000	107.96926	-226.36612	107.96926
8000.00000	107.61800	-229.23712	107.61800
8050.00000	107.33126	-232.08053	107.33126
8100.00000	106.98933	-233.95646	106.98933
8150.00000	106.60224	-236.23602	106.60224
8200.00000	106.29680	-238.15582	106.29680
8250.00000	105.93423	-240.35641	105.93423
8300.00000	105.57215	-242.34050	105.57215
8350.00000	105.22223	-243.91523	105.22223
8400.00000	104.87008	-246.16276	104.87008
8450.00000	104.46365	-247.98912	104.46365
8500.00000	104.11025	-250.02372	104.11025
8550.00000	103.83238	-251.71820	103.83238
8600.00000	103.55946	-253.71806	103.55946
8650.00000	103.29658	-255.28033	103.29658
8700.00000	103.09994	-257.23141	103.09994
8750.00000	102.83148	-257.49755	102.83148
8800.00000	102.69726	-259.14368	102.69726
8850.00000	102.43582	-259.90257	102.43582
8900.00000	102.29947	-260.17282	102.29947
8950.00000	102.06672	-261.29936	102.06672
9000.00000	101.78374	-262.09371	101.78374
9050.00000	101.56656	-263.30549	101.56656
9100.00000	101.27865	-264.44720	101.27865
9150.00000	101.05669	-266.27697	101.05669
9200.00000	100.85945	-268.12273	100.85945
9250.00000	100.69049	-269.87387	100.69049
9300.00000	100.59904	-271.64358	100.59904
9350.00000	100.58843	-273.55868	100.58843
9400.00000	100.55377	-274.45929	100.55377
9450.00000	100.57582	-275.22153	100.57582
9500.00000	100.62697	-274.93548	100.62697
9550.00000	100.74479	-274.59280	100.74479
9600.00000	100.88588	-275.42810	100.88588
9650.00000	100.81583	-276.76256	100.81583
9700.00000	100.75931	-277.46566	100.75931
9750.00000	100.73209	-279.72385	100.73209
9800.00000	100.62201	-281.13956	100.62201
9850.00000	100.58934	-283.09271	100.58934
9900.00000	100.46418	-285.67714	100.46418
9950.00000	100.53453	-287.54849	100.53453
10000.00000	100.64808	-290.40763	100.64808
10050.00000	100.68409	-292.41589	100.68409
10100.00000	100.71982	-294.21948	100.71982
10150.00000	100.67473	-296.71301	100.67473
10200.00000	100.65429	-299.00117	100.65429
10250.00000	100.50109	-301.58078	100.50109
10300.00000	100.49123	-304.31822	100.49123
10350.00000	100.34164	-307.18084	100.34164
10400.00000	100.14521	-310.71256	100.14521
10450.00000	100.13023	-314.50954	100.13023
10500.00000	100.12023	-318.12903	100.12023
10550.00000	100.04241	-321.17775	100.04241
10600.00000	99.95149	-324.34042	99.95149
10650.00000	99.84239	-326.63779	99.84239
10700.00000	99.64389	-330.22740	99.64389
10750.00000	99.48478	-332.89374	99.48478
10800.00000	99.20202	-335.80671	99.20202
10850.00000	98.86735	-339.41487	98.86735
10900.00000	98.60054	-342.42110	98.60054
10950.00000	98.26788	-345.40802	98.26788
11000.00000	97.95901	-348.35192	97.95901
11050.00000	97.52275	-351.15510	97.52275
11100.00000	97.18466	-353.84254	97.18466
11150.00000	96.70783	-355.91623	96.70783
11200.00000	96.34155	-357.63768	96.34155
11250.00000	95.81281	-359.90602	95.81281
11300.00000	95.24823	-361.85357	95.24823
11350.00000	94.73275	-363.19870	94.73275
11400.00000	94.13268	-364.73535	94.13268
11450.00000	93.70605	-366.43700	93.70605
11500.00000	93.33570	-366.49166	93.33570
11550.00000	92.84131	-367.34677	92.84131
11600.00000	92.51734	-368.11732	92.51734
11650.00000	92.07012	-367.56132	92.07012
11700.00000	91.73375	-367.72547	91.73375
11750.00000	91.37601	-367.67236	91.37601
11800.00000	91.07236	-367.90292	91.07236
11850.00000	90.76079	-366.57026	90.76079
11900.00000	90.25283	-366.39029	90.25283
11950.00000	90.00729	-365.07349	90.00729
12000.00000	89.67009	-364.19597	89.67009
12050.00000	89.34854	-363.40615	89.34854
12100.00000	89.15726	-362.92666	89.15726
12150.00000	88.91310	-362.89151	88.91310
12200.00000	88.79343	-362.33846	88.79343
12250.00000	88.76935	-361.61619	88.76935
12300.00000	89.79872	-360.20269	89.79872
12350.00000	88.67381	-359.55454	88.67381
12400.00000	88.65354	-357.42725	88.65354
12450.00000	88.56294	-355.87899	88.56294
12500.00000	88.41410	-355.20531	88.41410
12550.00000	88.42644	-354.05586	88.42644
12600.00000	88.27946	-354.69341	88.27946
12650.00000	88.43192	-354.89838	88.43192
12700.00000	88.44493	-355.10375	88.44493
12750.00000	88.52252	-354.76279	88.52252
12800.00000	88.63650	-353.93212	88.63650
12850.00000	88.44559	-352.98042	88.44559
12900.00000	88.44318	-353.36949	88.44318
12950.00000	88.44767	-352.62646	88.44767
13000.00000	88.30422	-353.49089	88.30422
13050.00000	88.47687	-352.62348	88.47687
13100.00000	88.47803	-352.15475	88.47803
13150.00000	88.62601	-352.85277	88.62601
13200.00000	88.73377	-352.16584	88.73377
13250.00000	88.75983	-351.42525	88.75983
13300.00000	88.90880	-348.94079	88.90880
13350.00000	88.88269	-349.08273	88.88269
13400.00000	89.15701	-349.60826	89.15701
13450.00000	89.11252	-348.05202	89.11252
13500.00000	89.34470	-347.27083	89.34470
13550.00000	89.28039	-347.81939	89.28039
13600.00000	89.56793	-347.32537	89.56793
13650.00000	89.78182	-346.80327	89.78182
13700.00000	89.69671	-346.06871	89.69671
13750.00000	89.89596	-345.54302	89.89596
13800.00000	89.97456	-347.84866	89.97456
13850.00000	90.16495	-347.71925	90.16495
13900.00000	90.21648	-347.52203	90.21648
13950.00000	90.70857	-347.27717	90.70857
14000.00000	91.13445	-345.57594	91.13445
14050.00000	91.44941	-345.85575	91.44941
14100.00000	91.54645	-345.26441	91.54645
14150.00000	91.93470	-345.68326	91.93470
14200.00000	92.28685	-345.22112	92.28685
14250.00000	92.83330	-343.89331	92.83330
14300.00000	93.17711	-345.09033	93.17711
14350.00000	93.54165	-343.84553	93.54165
14400.00000	93.65130	-344.55169	93.65130
14450.00000	94.03051	-344.49476	94.03051
14500.00000	94.31671	-345.63017	94.31671
14550.00000	94.80738	-345.60314	94.80738
14600.00000	95.07182	-347.78607	95.07182
14650.00000	95.72949	-347.26391	95.72949
14700.00000	96.21369	-352.28261	96.21369
14750.00000	96.64345	-352.91635	96.64345
14800.00000	96.96480	-353.48690	96.96480
14850.00000	97.53112	-354.71000	97.53112
14900.00000	97.98072	-356.63308	97.98072
14950.00000	98.40126	-358.59955	98.40126
15000.00000	98.92085	-361.09852	98.92085
15050.00000	99.13568	-361.89626	99.13568
15100.00000	99.64630	-363.50723	99.64630
15150.00000	100.21781	-366.36311	100.21781
15200.00000	100.47750	-367.31390	100.47750
15250.00000	100.74960	-370.87271	100.74960
15300.00000	101.29188	-374.11658	101.29188
15350.00000	101.58431	-377.57468	101.58431
15400.00000	101.89251	-379.41732	101.89251
15450.00000	102.21185	-383.13020	102.21185
15500.00000	102.64162	-385.82822	102.64162
15550.00000	102.95519	-389.47337	102.95519
15600.00000	103.16597	-393.00733	103.16597
15650.00000	103.53808	-394.78681	103.53808
15700.00000	103.64182	-399.26762	103.64182
15750.00000	103.99862	-402.23960	103.99862
15800.00000	104.26036	-404.62322	104.26036
15850.00000	104.40549	-407.67324	104.40549
15900.00000	104.48834	-411.35228	104.48834
15950.00000	104.73115	-414.62107	104.73115
16000.00000	104.88784	-417.53859	104.88784
16050.00000	105.13819	-420.56492	105.13819
16100.00000	105.12296	-424.04045	105.12296
16150.00000	105.20841	-426.92840	105.20841
16200.00000	105.36846	-430.59547	105.36846
16250.00000	105.50890	-432.88317	105.50890
16300.00000	105.77918	-436.23946	105.77918
16350.00000	105.85045	-439.08675	105.85045
16400.00000	105.98300	-441.57726	105.98300
16450.00000	106.08477	-444.24983	106.08477
16500.00000	106.16327	-447.19863	106.16327
16550.00000	106.34767	-450.45614	106.34767
16600.00000	106.49601	-453.03698	106.49601
16650.00000	106.58050	-455.80255	106.58050
16700.00000	106.73586	-458.31870	106.73586
16750.00000	106.77605	-461.41662	106.77605
16800.00000	106.92948	-464.61113	106.92948
16850.00000	107.14570	-467.22162	107.14570
16900.00000	107.27302	-470.30958	107.27302
16950.00000	107.40362	-473.23932	107.40362
17000.00000	107.40972	-476.37380	107.40972
17050.00000	107.57957	-478.64423	107.57957
17100.00000	107.64019	-480.65003	107.64019
17150.00000	107.91159	-484.37561	107.91159
17200.00000	108.00113	-487.18107	108.00113
17250.00000	108.08181	-490.68094	108.08181
17300.00000	108.25369	-493.64582	108.25369
17350.00000	108.24064	-496.45633	108.24064
17400.00000	108.44137	-499.56057	108.44137
17450.00000	108.49571	-503.12704	108.49571
17500.00000	108.63090	-506.21836	108.63090
17550.00000	108.74615	-509.44193	108.74615
17600.00000	108.91867	-512.25849	108.91867
17650.00000	108.98736	-516.46793	108.98736
17700.00000	109.04700	-519.87484	109.04700
17750.00000	109.23902	-522.66189	109.23902
17800.00000	109.21625	-526.72258	109.21625
17850.00000	109.28605	-529.64839	109.28605
17900.00000	109.30232	-533.34588	109.30232
17950.00000	109.45303	-537.15153	109.45303
18000.00000	109.45670	-541.11691	109.45670
18050.00000	109.60510	-544.25492	109.60510
18100.00000	109.55108	-548.34164	109.55108
18150.00000	109.52379	-551.38853	109.52379
18200.00000	109.49690	-555.49348	109.49690
18250.00000	109.53144	-558.35936	109.53144
18300.00000	109.56445	-561.95037	109.56445
18350.00000	109.54181	-565.25725	109.54181
18400.00000	109.43624	-569.08461	109.43624
18450.00000	109.36413	-573.71160	109.36413
18500.00000	109.32968	-576.90110	109.32968
18550.00000	109.24749	-579.76518	109.24749
18600.00000	109.28940	-583.60943	109.28940
18650.00000	109.05910	-586.64683	109.05910
18700.00000	108.96854	-590.35148	108.96854
18750.00000	108.95349	-593.46817	108.95349
18800.00000	108.98791	-596.09580	108.98791
18850.00000	108.77274	-599.53437	108.77274
18900.00000	108.66851	-602.39921	108.66851
18950.00000	108.59788	-606.05815	108.59788
19000.00000	108.36923	-608.61710	108.36923
19050.00000	108.42489	-611.59361	108.42489
19100.00000	108.28796	-614.56913	108.28796
19150.00000	108.33674	-617.35225	108.33674
19200.00000	108.21487	-619.96789	108.21487
19250.00000	108.14691	-623.89544	108.14691
19300.00000	107.99398	-626.08371	107.99398
19350.00000	107.93330	-629.07647	107.93330
19400.00000	107.84099	-631.87848	107.84099
19450.00000	107.86772	-634.19873	107.86772
19500.00000	107.71672	-637.97620	107.71672
19550.00000	107.66688	-640.76360	107.66688
19600.00000	107.69961	-644.33365	107.69961
19650.00000	107.55959	-646.82214	107.55959
19700.00000	107.37614	-650.02017	107.37614
19750.00000	107.29677	-652.50661	107.29677
19800.00000	107.29726	-656.39284	107.29726
19850.00000	107.24066	-659.22591	107.24066
19900.00000	107.09779	-663.06083	107.09779
19950.00000	106.98343	-666.14101	106.98343
20000.00000	106.89045	-669.45239	106.89045
20050.00000	106.78815	-672.62240	106.78815
20100.00000	106.58144	-675.98606	106.58144
20150.00000	106.49682	-678.40274	106.49682
20200.00000	106.32185	-682.59149	106.32185
20250.00000	106.09960	-685.78884	106.09960
20300.00000	105.84173	-689.10966	105.84173
20350.00000	105.71003	-692.59877	105.71003
20400.00000	105.41308	-695.23799	105.41308
20450.00000	105.09915	-698.62608	105.09915
20500.00000	104.88228	-702.03585	104.88228
20550.00000	104.34929	-704.29594	104.34929
20600.00000	104.11887	-707.07014	104.11887
20650.00000	103.75917	-709.84159	103.75917
20700.00000	103.34178	-712.25784	103.34178
20750.00000	102.99980	-714.30923	102.99980
20800.00000	102.55216	-715.97509	102.55216
20850.00000	102.20338	-717.68539	102.20338
20900.00000	101.71494	-719.12859	101.71494
20950.00000	101.29167	-719.59482	101.29167
21000.00000	100.91961	-720.17309	100.91961
21050.00000	100.69266	-720.08037	100.69266
21100.00000	100.34200	-719.92609	100.34200
21150.00000	100.13505	-720.08991	100.13505
21200.00000	99.98318	-719.44307	99.98318
21250.00000	99.81495	-720.25459	99.81495
21300.00000	99.77757	-719.53012	99.77757
21350.00000	99.68203	-719.16973	99.68203
21400.00000	99.63982	-719.51168	99.63982
21450.00000	99.62354	-719.79637	99.62354
21500.00000	99.68164	-720.34561	99.68164
21550.00000	99.58344	-720.51971	99.58344
21600.00000	99.70732	-721.41399	99.70732
21650.00000	99.72950	-722.36025	99.72950
21700.00000	99.76274	-723.07000	99.76274
21750.00000	99.82509	-724.06554	99.82509
21800.00000	99.85724	-725.04579	99.85724
21850.00000	99.84948	-726.05870	99.84948
21900.00000	99.91431	-727.38849	99.91431
21950.00000	99.94021	-728.30699	99.94021
22000.00000	100.02843	-729.22076	100.02843
22050.00000	100.06712	-730.33584	100.06712
22100.00000	100.09832	-731.72728	100.09832
22150.00000	100.14512	-732.89871	100.14512
22200.00000	100.24921	-733.98480	100.24921
22250.00000	100.22992	-734.95797	100.22992
22300.00000	100.22520	-736.41200	100.22520
22350.00000	100.35027	-738.10457	100.35027
22400.00000	100.46203	-739.60198	100.46203
22450.00000	100.46620	-740.76307	100.46620
22500.00000	100.50459	-741.58140	100.50459
22550.00000	100.56737	-743.15811	100.56737
22600.00000	100.62489	-745.85998	100.62489
22650.00000	100.64150	-747.01509	100.64150
22700.00000	100.71318	-748.46814	100.71318
22750.00000	100.79185	-748.27800	100.79185
22800.00000	100.86915	-752.33005	100.86915
22850.00000	100.97974	-754.52712	100.97974
22900.00000	101.08032	-754.51143	101.08032
22950.00000	101.18231	-756.21847	101.18231
23000.00000	101.20546	-757.30869	101.20546
23050.00000	101.24842	-760.32141	101.24842
23100.00000	101.36489	-761.35842	101.36489
23150.00000	101.36510	-762.43170	101.36510
23200.00000	101.54199	-765.88569	101.54199
23250.00000	101.38394	-768.57196	101.38394
23300.00000	101.75768	-770.46198	101.75768
23350.00000	101.56717	-772.89906	101.56717
23400.00000	101.57180	-774.37581	101.57180
23450.00000	101.78704	-777.16171	101.78704
23500.00000	101.66125	-778.24655	101.66125
23550.00000	101.75584	-779.24878	101.75584
23600.00000	101.67072	-782.82491	101.67072
23650.00000	101.75414	-784.68241	101.75414
23700.00000	101.96033	-788.66410	101.96033
23750.00000	101.89668	-789.94591	101.89668
23800.00000	101.64204	-790.56831	101.64204
23850.00000	101.84689	-792.45278	101.84689
23900.00000	102.19602	-794.86992	102.19602
23950.00000	101.85082	-798.06687	101.85082
24000.00000	101.79737	-800.84007	101.79737
24050.00000	101.88938	-801.70897	101.88938
24100.00000	102.28092	-805.63172	102.28092
24150.00000	102.16668	-807.98588	102.16668
24200.00000	102.14011	-811.70761	102.14011
24250.00000	101.71701	-811.96206	101.71701
24300.00000	102.13514	-814.51627	102.13514
24350.00000	101.95207	-816.94367	101.95207
24400.00000	101.98154	-820.70476	101.98154
24450.00000	101.61701	-821.52871	101.61701
24500.00000	102.14509	-823.54069	102.14509
24550.00000	101.89955	-828.17735	101.89955
24600.00000	102.37984	-469.40535	102.37984
24650.00000	102.00523	-114.05918	102.00523
24700.00000	101.89473	246.19801	101.89473
24750.00000	101.83562	601.72779	101.83562
24800.00000	101.84021	960.23123	101.84021
24850.00000	101.51483	1318.71196	101.51483
24900.00000	101.65265	1676.97471	101.65265
24950.00000	101.92024	2032.28878	101.92024
25000.00000	101.66473	2026.83510	101.66473
25050.00000	101.46329	2027.29370	101.46329
25100.00000	101.24438	2023.71269	101.24438
25150.00000	101.54615	2024.07775	101.54615
25200.00000	101.40868	2019.66668	101.40868
25250.00000	101.44047	2019.09673	101.44047
25300.00000	101.27288	2017.24583	101.27288
25350.00000	101.26890	2011.51755	101.26890
25400.00000	101.18565	2008.60682	101.18565
25450.00000	101.21502	2006.48735	101.21502
25500.00000	101.08888	2005.33719	101.08888
25550.00000	101.07108	2001.32821	101.07108
25600.00000	101.08550	1999.61443	101.08550
25650.00000	100.77955	1997.06778	100.77955
25700.00000	100.96207	1995.28792	100.96207
25750.00000	100.61457	1992.18720	100.61457
25800.00000	100.60320	1989.22391	100.60320
25850.00000	100.45310	1985.94965	100.45310
25900.00000	100.39462	1984.15838	100.39462
25950.00000	100.15444	1984.41915	100.15444
26000.00000	100.08497	1980.14838	100.08497
26050.00000	100.03230	1978.86273	100.03230
26100.00000	99.80201	1976.55341	99.80201
26150.00000	99.73646	1974.29565	99.73646
26200.00000	99.56925	1972.70375	99.56925
26250.00000	99.58524	1970.77799	99.58524
26300.00000	99.59561	1967.33120	99.59561
26350.00000	99.01646	1967.76606	99.01646
26400.00000	99.01153	1964.77067	99.01153
26450.00000	99.25064	1962.64967	99.25064
26500.00000	98.84118	1960.56869	98.84118
26550.00000	98.75723	1956.29786	98.75723
26600.00000	98.53289	1954.89999	98.53289
26650.00000	98.60900	1956.45768	98.60900
26700.00000	98.56193	1954.31579	98.56193
26750.00000	98.26856	1952.66435	98.26856
26800.00000	98.22838	1948.65990	98.22838
26850.00000	98.32909	1949.55656	98.32909
26900.00000	98.36389	1948.47988	98.36389
26950.00000	98.32468	1945.59700	98.32468
27000.00000	97.82709	1945.85482	97.82709
27050.00000	98.28735	1943.74011	98.28735
27100.00000	97.97872	1943.50872	97.97872
27150.00000	97.96655	1940.59719	97.96655
27200.00000	98.07657	1940.26406	98.07657
27250.00000	97.55288	1940.38233	97.55288
27300.00000	97.43755	1938.40325	97.43755
27350.00000	97.68589	1938.84763	97.68589
27400.00000	97.51734	1936.89047	97.51734
27450.00000	97.44615	1937.00385	97.44615
27500.00000	97.54281	1935.63276	97.54281
27550.00000	97.72992	1934.97649	97.72992
27600.00000	98.01089	1931.69977	98.01089
27650.00000	97.71355	1933.43660	97.71355
27700.00000	97.89730	1928.64390	97.89730
27750.00000	98.01329	1927.63977	98.01329
27800.00000	98.27184	1924.80012	98.27184
27850.00000	98.64557	1927.62131	98.64557
27900.00000	98.30182	1925.40591	98.30182
27950.00000	97.78637	1923.45075	97.78637
28000.00000	98.20483	1923.92411	98.20483
28050.00000	98.89087	1920.64328	98.89087
28100.00000	98.45447	1919.09104	98.45447
28150.00000	98.59227	1918.58389	98.59227
28200.00000	99.01954	1913.50287	99.01954
28250.00000	98.90171	1911.77575	98.90171
28300.00000	98.63684	1910.35721	98.63684
28350.00000	99.16955	1911.40416	99.16955
28400.00000	99.14656	1910.10699	99.14656
28450.00000	99.87452	1905.57996	99.87452
28500.00000	99.57319	1905.51149	99.57319
28550.00000	99.64067	1905.56618	99.64067
28600.00000	99.66449	1902.99449	99.66449
28650.00000	100.17927	1897.35531	100.17927
28700.00000	100.21236	1897.78129	100.21236
28750.00000	100.95136	1897.06070	100.95136
28800.00000	100.70297	1893.93211	100.70297
28850.00000	100.29937	1888.81225	100.29937
28900.00000	100.39614	1886.65998	100.39614
28950.00000	100.54278	1885.94274	100.54278
29000.00000	100.91175	1882.87148	100.91175
29050.00000	100.59577	1882.43288	100.59577
29100.00000	100.74835	1880.73979	100.74835
29150.00000	100.70809	1878.23828	100.70809
29200.00000	100.60956	1874.19459	100.60956
29250.00000	100.91808	1871.80573	100.91808
29300.00000	100.58862	1868.88388	100.58862
29350.00000	101.08597	1865.21969	101.08597
29400.00000	100.82889	1863.68134	100.82889
29450.00000	100.65011	1861.67166	100.65011
29500.00000	100.96025	1859.61396	100.96025
29550.00000	100.66867	1855.09612	100.66867
29600.00000	100.49817	1853.85544	100.49817
29650.00000	100.61318	1850.70193	100.61318
29700.00000	100.43712	1851.20837	100.43712
29750.00000	100.31601	1850.12922	100.31601
29800.00000	99.95337	1846.11184	99.95337
29850.00000	100.12192	1843.95362	100.12192
29900.00000	100.31231	1843.62606	100.31231
29950.00000	99.43319	1842.18172	99.43319
30000.00000	99.83756	1842.20486	99.83756
30050.00000	99.77386	1839.77221	99.77386
30100.00000	99.40536	1840.21792	99.40536
30150.00000	99.44949	1835.44992	99.44949
30200.00000	99.47790	1834.49034	99.47790
30250.00000	99.21704	1834.14133	99.21704
30300.00000	98.80820	1833.66028	98.80820
30350.00000	98.99228	1835.01410	98.99228
30400.00000	98.93441	1832.25592	98.93441
30450.00000	98.54343	1832.01218	98.54343
30500.00000	98.61978	1830.61335	98.61978
30550.00000	98.55496	1832.10034	98.55496
30600.00000	98.54481	1832.76557	98.54481
30650.00000	98.55927	1832.09679	98.55927
30700.00000	98.67057	1831.25451	98.67057
30750.00000	98.42882	1832.87830	98.42882
30800.00000	98.64049	1832.34513	98.64049
30850.00000	98.85522	1834.01042	98.85522
30900.00000	98.80088	1835.52839	98.80088
30950.00000	99.19733	1834.14674	99.19733
31000.00000	99.58340	1834.17773	99.58340
31050.00000	99.88270	1834.38542	99.88270
31100.00000	100.31720	1834.35700	100.31720
31150.00000	100.36495	1833.91730	100.36495
31200.00000	101.12095	1832.62210	101.12095
31250.00000	101.34622	1832.02241	101.34622
31300.00000	101.81936	1830.67123	101.81936
31350.00000	102.28398	1828.75373	102.28398
31400.00000	102.49528	1826.19558	102.49528
31450.00000	103.04904	1824.21240	103.04904
31500.00000	103.30165	1820.73095	103.30165
31550.00000	103.69379	1818.66336	103.69379
31600.00000	104.12668	1815.10215	104.12668
31650.00000	104.45687	1811.94735	104.45687
31700.00000	104.80060	1809.29619	104.80060
31750.00000	105.10542	1806.54393	105.10542
31800.00000	105.33209	1802.69524	105.33209
31850.00000	105.63294	1798.72691	105.63294
31900.00000	105.66381	1795.23562	105.66381
31950.00000	105.89950	1792.06448	105.89950
32000.00000	106.09521	1788.40026	106.09521
32050.00000	106.27821	1784.75135	106.27821
32100.00000	106.37454	1780.77797	106.37454
32150.00000	106.49925	1778.01034	106.49925
32200.00000	106.57655	1773.96377	106.57655
32250.00000	106.67331	1769.60665	106.67331
32300.00000	106.78847	1766.46862	106.78847
32350.00000	106.72758	1763.34049	106.72758
32400.00000	106.84380	1760.59305	106.84380
32450.00000	106.78743	1756.52829	106.78743
32500.00000	106.90278	1753.80962	106.90278
32550.00000	106.96724	1749.71016	106.96724
32600.00000	107.03281	1746.85192	107.03281
32650.00000	107.03635	1742.54573	107.03635
32700.00000	106.87536	1739.87567	106.87536
32750.00000	106.84303	1735.86665	106.84303
32800.00000	106.91816	1732.63615	106.91816
32850.00000	106.82263	1730.02307	106.82263
32900.00000	106.71065	1725.77474	106.71065
32950.00000	106.44839	1722.33109	106.44839
33000.00000	106.35749	1722.09274	106.35749
33050.00000	106.35521	1716.61173	106.35521
33100.00000	106.28808	1714.13715	106.28808
33150.00000	106.05815	1712.01682	106.05815
33200.00000	106.12385	1710.29150	106.12385
33250.00000	105.88501	1707.60207	105.88501
33300.00000	105.69485	1704.46631	105.69485
33350.00000	105.47159	1701.95461	105.47159
33400.00000	105.38505	1700.22306	105.38505
33450.00000	105.24496	1698.06714	105.24496
33500.00000	105.36116	1697.62546	105.36116
33550.00000	104.92395	1693.10856	104.92395
33600.00000	104.86251	1691.96996	104.86251
33650.00000	104.97173	1690.63299	104.97173
33700.00000	104.75384	1688.47430	104.75384
33750.00000	104.34195	1686.89782	104.34195
33800.00000	104.46376	1685.53782	104.46376
33850.00000	104.19761	1685.35203	104.19761
33900.00000	104.12767	1682.54655	104.12767
33950.00000	104.17410	1683.50988	104.17410
34000.00000	104.04887	1679.92111	104.04887
34050.00000	103.76073	1678.92000	103.76073
34100.00000	103.64131	1679.31619	103.64131
34150.00000	103.64220	1678.20502	103.64220
34200.00000	103.55038	1678.91465	103.55038
34250.00000	103.69523	1675.94343	103.69523
34300.00000	103.74019	1675.05451	103.74019
34350.00000	103.69726	1674.81993	103.69726
34400.00000	103.37669	1676.32025	103.37669
34450.00000	103.60195	1673.54566	103.60195
34500.00000	103.49478	1674.17867	103.49478
34550.00000	103.53056	1674.98374	103.53056
34600.00000	103.60894	1673.12551	103.60894
34650.00000	103.85488	1673.59222	103.85488
34700.00000	103.40144	1674.09283	103.40144
34750.00000	103.94660	1670.61842	103.94660
34800.00000	104.18386	1672.28046	104.18386
34850.00000	104.34001	1674.01233	104.34001
34900.00000	104.67436	1672.12173	104.67436
34950.00000	104.65857	1671.49223	104.65857
35000.00000	104.88874	1670.35572	104.88874
35050.00000	105.16346	1671.82368	105.16346
35100.00000	105.53808	1670.39432	105.53808
35150.00000	105.49335	1670.85666	105.49335
35200.00000	105.65785	1668.31240	105.65785
35250.00000	106.23422	1668.43885	106.23422
35300.00000	106.62381	1665.90665	106.62381
35350.00000	106.85131	1664.90734	106.85131
35400.00000	106.98177	1664.01838	106.98177
35450.00000	107.19085	1662.88582	107.19085
35500.00000	107.23084	1662.22110	107.23084
35550.00000	107.84100	1661.90789	107.84100
35600.00000	108.12304	1659.64047	108.12304
35650.00000	108.43010	1657.98700	108.43010
35700.00000	108.65205	1656.00679	108.65205
35750.00000	108.82165	1656.98379	108.82165
35800.00000	109.28414	1655.65742	109.28414
35850.00000	109.68566	1651.94372	109.68566
35900.00000	109.95250	1651.36318	109.95250
35950.00000	110.36876	1649.32496	110.36876
36000.00000	110.51143	1647.39807	110.51143
36050.00000	110.83421	1644.70712	110.83421
36100.00000	111.15121	1642.84622	111.15121
36150.00000	111.36972	1641.74414	111.36972
36200.00000	111.63356	1639.83531	111.63356
36250.00000	111.87649	1637.72842	111.87649
36300.00000	112.02248	1635.92877	112.02248
36350.00000	112.49176	1634.25247	112.49176
36400.00000	112.82857	1632.11536	112.82857
36450.00000	112.80422	1630.23126	112.80422
36500.00000	113.37928	1629.62874	113.37928
36550.00000	113.60291	1625.35914	113.60291
36600.00000	113.92285	1622.96702	113.92285
36650.00000	114.26767	1621.81434	114.26767
36700.00000	114.60131	1618.81410	114.60131
36750.00000	114.90476	1616.77913	114.90476
36800.00000	115.12581	1614.80127	115.12581
36850.00000	115.37545	1612.22616	115.37545
36900.00000	115.87451	1609.21200	115.87451
36950.00000	116.03256	1605.58158	116.03256
37000.00000	116.07006	1603.93950	116.07006
37050.00000	116.37566	1601.58708	116.37566
37100.00000	116.88679	1597.52712	116.88679
37150.00000	117.23218	1593.99823	117.23218
37200.00000	117.70998	1591.90292	117.70998
37250.00000	117.57175	1588.28721	117.57175
37300.00000	117.92804	1584.99997	117.92804
37350.00000	118.51517	1581.68736	118.51517
37400.00000	118.49547	1578.61148	118.49547
37450.00000	118.66923	1575.46941	118.66923
37500.00000	119.30303	1570.74924	119.30303
37550.00000	119.27146	1567.35345	119.27146
37600.00000	119.55975	1563.20747	119.55975
37650.00000	119.76038	1559.61629	119.76038
37700.00000	120.02403	1554.76577	120.02403
37750.00000	120.25869	1551.63711	120.25869
37800.00000	120.33219	1546.72322	120.33219
37850.00000	120.58116	1541.32993	120.58116
37900.00000	120.68643	1537.36314	120.68643
37950.00000	120.87131	1534.22065	120.87131
38000.00000	120.88759	1530.13381	120.88759
38050.00000	121.14702	1525.11473	121.14702
38100.00000	121.31282	1520.41974	121.31282
38150.00000	121.33210	1515.63535	121.33210
38200.00000	121.54196	1510.87736	121.54196
38250.00000	121.59196	1506.52499	121.59196
38300.00000	121.76886	1501.37436	121.76886
38350.00000	121.74764	1497.78305	121.74764
38400.00000	121.86687	1493.06353	121.86687
38450.00000	121.97605	1487.93957	121.97605
38500.00000	122.09732	1483.07917	122.09732
38550.00000	122.25918	1478.99663	122.25918
38600.00000	122.37471	1474.25825	122.37471
38650.00000	122.46202	1469.24237	122.46202
38700.00000	122.51944	1464.03603	122.51944
38750.00000	122.65038	1459.49706	122.65038
38800.00000	122.77265	1454.65099	122.77265
38850.00000	122.84417	1449.34820	122.84417
38900.00000	122.99487	1444.36250	122.99487
38950.00000	123.03624	1438.79288	123.03624
39000.00000	123.13524	1433.46610	123.13524
39050.00000	123.23331	1428.03098	123.23331
39100.00000	123.19158	1422.56397	123.19158
39150.00000	123.20274	1416.73174	123.20274
39200.00000	123.26908	1411.16441	123.26908
39250.00000	123.25008	1404.96567	123.25008
39300.00000	123.22138	1399.04800	123.22138
39350.00000	123.13251	1393.64599	123.13251
39400.00000	123.04384	1387.42712	123.04384
39450.00000	122.87967	1381.74484	122.87967
39500.00000	122.78942	1375.64625	122.78942
39550.00000	122.54929	1369.51232	122.54929
39600.00000	122.23388	1363.71883	122.23388
39650.00000	122.05122	1358.30338	122.05122
39700.00000	121.74009	1352.74813	121.74009
39750.00000	121.46614	1346.85640	121.46614
39800.00000	121.10956	1341.48047	121.10956
39850.00000	120.70628	1336.27821	120.70628
39900.00000	120.34236	1331.48819	120.34236
39950.00000	119.96629	1326.54790	119.96629
40000.00000	119.35899	1323.04986	119.35899
40050.00000	119.06750	1317.29629	119.06750
40100.00000	118.60285	1312.98724	118.60285
40150.00000	118.09146	1308.88525	118.09146
40200.00000	117.63866	1304.55644	117.63866
40250.00000	117.11006	1301.16896	117.11006
40300.00000	116.71070	1297.66951	116.71070
40350.00000	116.00960	1294.73586	116.00960
40400.00000	115.44855	1291.46592	115.44855
40450.00000	114.95197	1288.80535	114.95197
40500.00000	114.52458	1286.80852	114.52458
40550.00000	113.98584	1283.24266	113.98584
40600.00000	113.44128	1281.65656	113.44128
40650.00000	112.92781	1280.12090	112.92781
40700.00000	112.30162	1279.17754	112.30162
40750.00000	111.97390	1277.64584	111.97390
40800.00000	111.48962	1276.11640	111.48962
40850.00000	111.01792	1275.92753	111.01792
40900.00000	110.42994	1274.27918	110.42994
40950.00000	109.92715	1274.57862	109.92715
41000.00000	109.38657	1274.50444	109.38657
41050.00000	109.18542	1274.43564	109.18542
41100.00000	108.93383	1274.50257	108.93383
41150.00000	108.78097	1275.19569	108.78097
41200.00000	108.39345	1274.97691	108.39345
41250.00000	107.98271	1273.22197	107.98271
41300.00000	107.56561	1275.41653	107.56561
41350.00000	107.74408	1276.78214	107.74408
41400.00000	107.45524	1273.53386	107.45524
41450.00000	107.48965	1276.36684	107.48965
41500.00000	107.01922	1274.89754	107.01922
41550.00000	106.81827	1280.20064	106.81827
41600.00000	106.42060	1278.29388	106.42060
41650.00000	106.76484	1277.15049	106.76484
41700.00000	107.07433	1278.07632	107.07433
41750.00000	106.64224	1282.13867	106.64224
41800.00000	105.86859	1276.99161	105.86859
41850.00000	105.64830	1277.65092	105.64830
41900.00000	105.64552	1278.91689	105.64552
41950.00000	106.76294	1283.42678	106.76294
42000.00000	105.97570	1277.62251	105.97570
42050.00000	104.79298	1278.37969	104.79298
42100.00000	105.52125	1278.62928	105.52125
42150.00000	105.30211	1271.88286	105.30211
42200.00000	105.14668	1278.87974	105.14668
42250.00000	104.94964	1276.84355	104.94964
42300.00000	104.19750	1273.07897	104.19750
42350.00000	104.59299	1273.76987	104.59299
42400.00000	104.94137	1274.74234	104.94137
42450.00000	105.05013	1268.91214	105.05013
42500.00000	104.75991	1267.38763	104.75991
42550.00000	104.99543	1277.04353	104.99543
42600.00000	104.59376	1269.48030	104.59376
42650.00000	104.23790	1270.75920	104.23790
42700.00000	103.96933	1267.84758	103.96933
42750.00000	105.31446	1262.94295	105.31446
42800.00000	104.92697	1258.38151	104.92697
42850.00000	104.96270	1257.94119	104.96270
42900.00000	106.35034	1260.45267	106.35034
42950.00000	104.91353	1252.35258	104.91353
43000.00000	105.77454	1245.38172	105.77454
43050.00000	105.35280	1244.02714	105.35280
43100.00000	106.02246	1249.20044	106.02246
43150.00000	105.68427	1242.07483	105.68427
43200.00000	105.98500	1240.47605	105.98500
43250.00000	105.76598	1233.78481	105.76598
43300.00000	106.55415	1229.75835	106.55415
43350.00000	107.14574	1226.06532	107.14574
43400.00000	106.76951	1223.48656	106.76951
43450.00000	107.71876	1223.78168	107.71876
43500.00000	106.47363	1216.78007	106.47363
43550.00000	107.25837	1210.67728	107.25837
43600.00000	107.20259	1208.73190	107.20259
43650.00000	107.76541	1198.69367	107.76541
43700.00000	107.62511	1201.84836	107.62511
43750.00000	107.15354	1199.48304	107.15354
43800.00000	107.67592	1191.68197	107.67592
43850.00000	108.36763	1187.81451	108.36763
43900.00000	108.44449	1186.69556	108.44449
43950.00000	108.73078	1179.00856	108.73078
44000.00000	108.38030	1174.86095	108.38030
44050.00000	108.83642	1170.71411	108.83642
44100.00000	108.76672	1159.39124	108.76672
44150.00000	108.77734	1160.68967	108.77734
44200.00000	108.49245	1160.48407	108.49245
44250.00000	108.90258	1152.99005	108.90258
44300.00000	109.21056	1147.58869	109.21056
44350.00000	108.07739	1142.29845	108.07739
44400.00000	109.07610	1139.64387	109.07610
44450.00000	109.32743	1137.11070	109.32743
44500.00000	108.98827	1132.03071	108.98827
44550.00000	110.07679	1121.19048	110.07679
44600.00000	108.80430	1124.70767	108.80430
44650.00000	108.34637	1114.83267	108.34637
44700.00000	108.29895	1111.63559	108.29895
44750.00000	108.14213	1111.23921	108.14213
44800.00000	108.72618	1105.78400	108.72618
44850.00000	108.27669	1100.09862	108.27669
44900.00000	107.77701	1098.43648	107.77701
44950.00000	108.08771	1093.78982	108.08771
45000.00000	108.00855	1083.92172	108.00855
45050.00000	106.47401	1091.10758	106.47401
45100.00000	106.84317	1082.05774	106.84317
45150.00000	107.04991	1071.97793	107.04991
45200.00000	105.98414	1076.28443	105.98414
45250.00000	106.19170	1071.44362	106.19170
45300.00000	105.80799	1065.98612	105.80799
45350.00000	105.20337	1060.92989	105.20337
45400.00000	105.43554	1061.87919	105.43554
45450.00000	105.45544	1055.92661	105.45544
45500.00000	103.85396	1050.92630	103.85396
45550.00000	103.80803	1055.39706	103.80803
45600.00000	104.88323	1044.13263	104.88323
45650.00000	102.84902	1039.35906	102.84902
45700.00000	103.05881	1039.49090	103.05881
45750.00000	103.71780	1039.97552	103.71780
45800.00000	102.22156	1034.06520	102.22156
45850.00000	102.37869	1034.99486	102.37869
45900.00000	101.57221	1033.90685	101.57221
45950.00000	101.36926	1037.14238	101.36926
46000.00000	100.19836	1021.20304	100.19836
46050.00000	100.46608	1018.98332	100.46608
46100.00000	99.25273	1025.73405	99.25273
46150.00000	99.33334	1025.56627	99.33334
46200.00000	97.35876	1015.43601	97.35876
46250.00000	98.63433	1015.62795	98.63433
46300.00000	97.67615	1014.54940	97.67615
46350.00000	98.80607	1006.59633	98.80607
46400.00000	96.67446	1008.45779	96.67446
46450.00000	95.25058	1011.64639	95.25058
46500.00000	96.17519	1013.38228	96.17519
46550.00000	95.63211	1017.74300	95.63211
46600.00000	96.48906	1020.00383	96.48906
46650.00000	93.10026	1017.88068	93.10026
46700.00000	93.65925	1025.85162	93.65925
46750.00000	94.61215	1032.76865	94.61215
46800.00000	92.53606	1022.95551	92.53606
46850.00000	94.24444	680.99324	94.24444
46900.00000	94.23260	669.40166	94.23260
46950.00000	94.59755	669.13169	94.59755
47000.00000	94.51357	675.56355	94.51357
47050.00000	96.17125	666.72892	96.17125
47100.00000	94.96165	664.47135	94.96165
47150.00000	95.93374	663.94553	95.93374
47200.00000	94.58846	664.94851	94.58846
47250.00000	96.78330	662.87745	96.78330
47300.00000	95.60587	656.02953	95.60587
47350.00000	95.34530	305.48081	95.34530
47400.00000	94.41159	303.23067	94.41159
47450.00000	96.16845	302.01306	96.16845
47500.00000	94.26424	292.45526	94.26424
47550.00000	93.49529	-56.79646	93.49529
47600.00000	94.25814	-65.26072	94.25814
47650.00000	96.16197	-64.85832	96.16197
47700.00000	95.03187	-64.21579	95.03187
47750.00000	93.34221	-63.82823	93.34221
47800.00000	94.18909	-83.42601	94.18909
47850.00000	94.35309	-428.89569	94.35309
47900.00000	94.58210	-779.88857	94.58210
47950.00000	94.22444	-783.55267	94.22444
48000.00000	93.84935	-778.69070	93.84935
48050.00000	95.81359	-790.09814	95.81359
48100.00000	94.04889	-794.03941	94.04889
48150.00000	93.82869	-1144.22451	93.82869
48200.00000	94.50922	-1143.83163	94.50922
48250.00000	93.99443	-1155.04236	93.99443
48300.00000	94.79700	-1152.37313	94.79700
48350.00000	94.45194	-1156.68233	94.45194
48400.00000	95.59406	-1504.03789	95.59406
48450.00000	96.26821	-1507.13956	96.26821
48500.00000	95.27062	-1514.09310	95.27062
48550.00000	94.54530	-1518.29164	94.54530
48600.00000	96.18488	-1870.78911	96.18488
48650.00000	96.88764	-1874.71005	96.88764
48700.00000	97.37589	-1883.86997	97.37589
48750.00000	96.14879	-2235.49319	96.14879
48800.00000	96.37730	-2240.58889	96.37730
48850.00000	96.70344	-2247.26108	96.70344
48900.00000	96.06133	-2601.18846	96.06133
48950.00000	96.45076	-2618.96706	96.45076
49000.00000	97.79683	-2617.08748	97.79683
49050.00000	96.89608	-2624.63794	96.89608
49100.00000	96.33825	-2984.40473	96.33825
49150.00000	97.76151	-3343.48315	97.76151
49200.00000	96.86508	-3353.73711	96.86508
49250.00000	97.22770	-3705.90443	97.22770
49300.00000	98.20268	-3360.56429	98.20268
49350.00000	95.29920	-3350.32924	95.29920
49400.00000	95.31601	-3010.83045	95.31601
49450.00000	94.54154	-2653.09959	94.54154
49500.00000	95.22913	-2297.87049	95.22913
49550.00000	94.47660	-1951.91230	94.47660
49600.00000	93.58269	-1942.17303	93.58269
49650.00000	94.21793	-1940.45905	94.21793
49700.00000	93.13539	-1617.84912	93.13539
49750.00000	92.54669	-1609.45714	92.54669
49800.00000	89.28749	-1611.34437	89.28749
49850.00000	84.92635	-1596.65853	84.92635
49900.00000	83.72418	-1289.80805	83.72418
49950.00000	82.36620	-954.89711	82.36620
