---ACOUSTIC CALIBRATION---
Filename: C:\Data\CL0809 DATA\CL0809300\RightSecondary.calib
Date: 8/9/2019 11:49:15 AM
Format: 4
Probe Tube Correction File: C:\Data\Probe Tube Calibrations\74_ProbeTube.calib
Experiment VIs: 2128
EPL_CFTS.exe V15.0.1f5 (2015)
DAQmx V15.1

Attenuation (dB): 40.000000
Min Freq (Hz): 50.000000
Max Freq (Hz): 99950.000000
Freq Step (Hz): 50.000000
Sample Rate (Hz): 200000.000000
[Smoothing]
Method=None
MA.Iterations=0
MA.Length=0
Loess.Length=0
Loess.Type=Linear
Loess.Robust=FALSE


Freq(Hz)	Mag(dB)	Phase(deg)	Unsmoothed(dB)

50.00000	87.83135	352.69774	87.83135
100.00000	68.18540	318.18838	68.18540
150.00000	60.60912	408.34514	60.60912
200.00000	61.72445	540.02657	61.72445
250.00000	56.04297	838.35290	56.04297
300.00000	67.77838	860.81645	67.77838
350.00000	64.80197	999.26064	64.80197
400.00000	51.10058	1091.55076	51.10058
450.00000	67.69023	1117.74716	67.69023
500.00000	71.55912	1216.89870	71.55912
550.00000	76.27348	1164.66244	76.27348
600.00000	76.96523	1117.59875	76.96523
650.00000	81.95367	1102.32518	81.95367
700.00000	82.81368	1111.49925	82.81368
750.00000	87.17204	1071.13444	87.17204
800.00000	87.96505	1051.89847	87.96505
850.00000	87.65079	1042.81503	87.65079
900.00000	88.08119	1033.52910	88.08119
950.00000	89.31169	1019.03608	89.31169
1000.00000	89.63093	1011.49062	89.63093
1050.00000	89.44903	995.22170	89.44903
1100.00000	88.50472	987.89901	88.50472
1150.00000	87.85257	985.18089	87.85257
1200.00000	86.91125	990.11557	86.91125
1250.00000	88.12331	996.14306	88.12331
1300.00000	89.16060	993.67028	89.16060
1350.00000	89.87350	992.78916	89.87350
1400.00000	90.80644	991.78698	90.80644
1450.00000	91.61807	990.82574	91.61807
1500.00000	93.02659	989.78921	93.02659
1550.00000	94.41526	982.99234	94.41526
1600.00000	95.69376	978.71213	95.69376
1650.00000	96.89258	974.39928	96.89258
1700.00000	101.04652	957.60670	101.04652
1750.00000	98.16687	936.65843	98.16687
1800.00000	97.96295	931.41290	97.96295
1850.00000	97.72955	923.97201	97.72955
1900.00000	97.74082	916.65395	97.74082
1950.00000	97.12088	909.39576	97.12088
2000.00000	96.26974	904.21403	96.26974
2050.00000	95.24138	904.49812	95.24138
2100.00000	95.45749	911.36207	95.45749
2150.00000	96.80035	907.94065	96.80035
2200.00000	97.07217	898.08174	97.07217
2250.00000	96.44715	892.12069	96.44715
2300.00000	96.07059	891.50646	96.07059
2350.00000	96.11099	888.44165	96.11099
2400.00000	96.18233	886.20227	96.18233
2450.00000	95.99147	881.90449	95.99147
2500.00000	95.45626	882.05960	95.45626
2550.00000	95.63656	882.11765	95.63656
2600.00000	95.75501	880.95375	95.75501
2650.00000	95.91265	880.53417	95.91265
2700.00000	96.11293	878.67310	96.11293
2750.00000	96.30928	877.00081	96.30928
2800.00000	96.54166	874.93993	96.54166
2850.00000	96.80131	873.49285	96.80131
2900.00000	97.10968	871.09290	97.10968
2950.00000	97.40667	869.08670	97.40667
3000.00000	97.64653	866.74970	97.64653
3050.00000	97.87482	864.04356	97.87482
3100.00000	98.11369	861.15847	98.11369
3150.00000	98.12284	858.57163	98.12284
3200.00000	98.28173	855.75480	98.28173
3250.00000	98.50961	853.61584	98.50961
3300.00000	98.53160	851.46331	98.53160
3350.00000	98.76232	849.87905	98.76232
3400.00000	98.84258	847.97593	98.84258
3450.00000	98.99281	847.14364	98.99281
3500.00000	99.20221	846.56216	99.20221
3550.00000	99.91149	844.44773	99.91149
3600.00000	99.98681	841.01521	99.98681
3650.00000	100.27851	840.44358	100.27851
3700.00000	100.52564	839.04849	100.52564
3750.00000	101.03057	836.46870	101.03057
3800.00000	101.83388	834.96738	101.83388
3850.00000	102.38522	826.16387	102.38522
3900.00000	102.78157	818.98244	102.78157
3950.00000	102.00116	816.09350	102.00116
4000.00000	101.66605	818.01077	101.66605
4050.00000	102.08082	819.38426	102.08082
4100.00000	102.77669	819.79406	102.77669
4150.00000	104.42803	817.09468	104.42803
4200.00000	105.40402	812.44687	105.40402
4250.00000	105.52513	799.83959	105.52513
4300.00000	105.63632	796.75100	105.63632
4350.00000	106.02506	791.99635	106.02506
4400.00000	106.36013	786.14642	106.36013
4450.00000	106.47871	779.24802	106.47871
4500.00000	106.60193	773.15307	106.60193
4550.00000	106.52052	767.92737	106.52052
4600.00000	106.56513	762.58992	106.56513
4650.00000	106.59418	757.86176	106.59418
4700.00000	106.58069	753.12982	106.58069
4750.00000	106.58392	748.49874	106.58392
4800.00000	106.61870	744.15391	106.61870
4850.00000	106.66530	739.40830	106.66530
4900.00000	106.70064	734.00080	106.70064
4950.00000	106.70237	728.86062	106.70237
5000.00000	106.64835	723.27722	106.64835
5050.00000	106.54511	717.63602	106.54511
5100.00000	106.37217	711.92042	106.37217
5150.00000	106.09170	706.15545	106.09170
5200.00000	105.60121	700.42117	105.60121
5250.00000	104.69146	697.69867	104.69146
5300.00000	104.84878	699.99808	104.84878
5350.00000	105.27016	694.39805	105.27016
5400.00000	105.12307	688.12702	105.12307
5450.00000	104.78432	683.10299	104.78432
5500.00000	104.46275	678.70378	104.46275
5550.00000	104.16570	674.80332	104.16570
5600.00000	103.83693	670.38633	103.83693
5650.00000	103.39465	666.86696	103.39465
5700.00000	102.98960	663.37522	102.98960
5750.00000	102.62396	660.33513	102.62396
5800.00000	102.24322	657.66584	102.24322
5850.00000	101.86433	655.05200	101.86433
5900.00000	101.50924	652.44491	101.50924
5950.00000	101.18219	650.20440	101.18219
6000.00000	100.88488	647.91739	100.88488
6050.00000	100.56218	645.48366	100.56218
6100.00000	100.25756	643.05622	100.25756
6150.00000	99.88294	640.83937	99.88294
6200.00000	99.53132	639.12228	99.53132
6250.00000	99.18533	637.35934	99.18533
6300.00000	98.85860	635.62982	98.85860
6350.00000	98.55299	634.19295	98.55299
6400.00000	98.21784	632.95732	98.21784
6450.00000	97.94639	631.85106	97.94639
6500.00000	97.62791	630.94485	97.62791
6550.00000	97.37246	630.38775	97.37246
6600.00000	97.18398	630.08392	97.18398
6650.00000	97.05440	629.82277	97.05440
6700.00000	96.97677	629.48516	96.97677
6750.00000	97.02190	628.73222	97.02190
6800.00000	97.09227	627.58069	97.09227
6850.00000	97.13325	625.37681	97.13325
6900.00000	97.09583	622.98839	97.09583
6950.00000	97.01974	620.45465	97.01974
7000.00000	96.85150	617.98368	96.85150
7050.00000	96.60925	615.66067	96.60925
7100.00000	96.37162	613.64118	96.37162
7150.00000	96.11966	611.85504	96.11966
7200.00000	95.78135	610.20125	95.78135
7250.00000	95.46597	609.11449	95.46597
7300.00000	95.12341	608.40046	95.12341
7350.00000	94.80964	608.16116	94.80964
7400.00000	94.54056	608.37760	94.54056
7450.00000	94.28587	609.00970	94.28587
7500.00000	94.19687	610.20522	94.19687
7550.00000	94.13513	610.73700	94.13513
7600.00000	94.18008	611.82328	94.18008
7650.00000	94.33038	612.36198	94.33038
7700.00000	94.48743	612.15015	94.48743
7750.00000	94.67850	612.26313	94.67850
7800.00000	94.88965	611.71564	94.88965
7850.00000	95.08799	610.44770	95.08799
7900.00000	95.27194	609.13421	95.27194
7950.00000	95.41248	607.70827	95.41248
8000.00000	95.55552	606.46458	95.55552
8050.00000	95.65330	604.91890	95.65330
8100.00000	95.76886	603.33380	95.76886
8150.00000	95.87033	601.87389	95.87033
8200.00000	96.01124	600.26454	96.01124
8250.00000	96.10467	598.46059	96.10467
8300.00000	96.23197	596.78765	96.23197
8350.00000	96.26751	594.91357	96.26751
8400.00000	96.29811	593.19181	96.29811
8450.00000	96.39026	591.52591	96.39026
8500.00000	96.43173	589.86259	96.43173
8550.00000	96.51311	588.39278	96.51311
8600.00000	96.56998	586.97335	96.56998
8650.00000	96.67155	585.34921	96.67155
8700.00000	96.72953	584.05371	96.72953
8750.00000	96.81656	582.39225	96.81656
8800.00000	96.88746	581.03633	96.88746
8850.00000	97.03796	579.41728	97.03796
8900.00000	97.11837	577.90117	97.11837
8950.00000	97.26134	576.55953	97.26134
9000.00000	97.34175	574.96495	97.34175
9050.00000	97.46701	573.11433	97.46701
9100.00000	97.57493	571.84273	97.57493
9150.00000	97.74992	570.17558	97.74992
9200.00000	97.90639	568.33556	97.90639
9250.00000	97.98687	566.40179	97.98687
9300.00000	98.18302	564.54321	98.18302
9350.00000	98.29916	562.45460	98.29916
9400.00000	98.42617	560.65343	98.42617
9450.00000	98.60681	558.53470	98.60681
9500.00000	98.82158	556.19034	98.82158
9550.00000	98.95482	553.64429	98.95482
9600.00000	99.09097	551.56005	99.09097
9650.00000	99.29133	549.39749	99.29133
9700.00000	99.48261	546.73297	99.48261
9750.00000	99.64938	544.02214	99.64938
9800.00000	99.76315	541.31872	99.76315
9850.00000	99.87915	538.78963	99.87915
9900.00000	100.07086	536.53247	100.07086
9950.00000	100.16728	534.12433	100.16728
10000.00000	100.42478	532.00808	100.42478
10050.00000	100.59487	528.63095	100.59487
10100.00000	100.72368	525.60571	100.72368
10150.00000	100.80048	522.59010	100.80048
10200.00000	100.93727	519.69781	100.93727
10250.00000	101.00510	516.70153	101.00510
10300.00000	101.10580	513.76251	101.10580
10350.00000	101.18717	510.74447	101.18717
10400.00000	101.24606	507.59003	101.24606
10450.00000	101.35132	504.31850	101.35132
10500.00000	101.42220	500.81790	101.42220
10550.00000	101.48069	497.51080	101.48069
10600.00000	101.60797	493.72038	101.60797
10650.00000	101.61653	490.05497	101.61653
10700.00000	101.64832	486.29080	101.64832
10750.00000	101.68266	482.85416	101.68266
10800.00000	101.70778	479.02100	101.70778
10850.00000	101.78781	475.28449	101.78781
10900.00000	101.81680	471.33498	101.81680
10950.00000	101.76379	467.23722	101.76379
11000.00000	101.73730	463.60853	101.73730
11050.00000	101.66336	459.78499	101.66336
11100.00000	101.60393	455.91226	101.60393
11150.00000	101.51175	452.04020	101.51175
11200.00000	101.43994	448.33304	101.43994
11250.00000	101.23991	443.97594	101.23991
11300.00000	101.05849	440.16511	101.05849
11350.00000	100.85134	436.06984	100.85134
11400.00000	100.56246	431.82615	100.56246
11450.00000	100.27132	427.96360	100.27132
11500.00000	100.00817	424.12594	100.00817
11550.00000	99.70783	420.15712	99.70783
11600.00000	99.35015	416.73267	99.35015
11650.00000	99.02095	413.36146	99.02095
11700.00000	98.69378	409.77706	98.69378
11750.00000	98.33814	407.06156	98.33814
11800.00000	98.04999	404.35003	98.04999
11850.00000	97.73816	401.71247	97.73816
11900.00000	97.36576	399.71946	97.36576
11950.00000	97.06887	397.42010	97.06887
12000.00000	96.77299	395.88520	96.77299
12050.00000	96.42541	394.47388	96.42541
12100.00000	96.02526	393.14224	96.02526
12150.00000	95.71478	391.57427	95.71478
12200.00000	95.35972	389.58248	95.35972
12250.00000	94.95775	388.21304	94.95775
12300.00000	94.44716	386.86210	94.44716
12350.00000	94.09732	385.96952	94.09732
12400.00000	93.71721	384.36318	93.71721
12450.00000	93.46316	382.94586	93.46316
12500.00000	93.24954	382.32214	93.24954
12550.00000	92.93270	381.09585	92.93270
12600.00000	92.74874	378.97451	92.74874
12650.00000	92.50860	378.89858	92.50860
12700.00000	92.22473	377.67623	92.22473
12750.00000	92.06533	377.21420	92.06533
12800.00000	91.98318	375.96647	91.98318
12850.00000	91.60738	374.91715	91.60738
12900.00000	91.28127	373.21927	91.28127
12950.00000	91.18686	371.49860	91.18686
13000.00000	90.83022	368.81379	90.83022
13050.00000	90.54341	366.62593	90.54341
13100.00000	90.42423	364.49854	90.42423
13150.00000	90.54928	362.24886	90.54928
13200.00000	90.59088	357.46341	90.59088
13250.00000	90.97548	351.92683	90.97548
13300.00000	91.41543	351.80791	91.41543
13350.00000	92.15067	350.57168	92.15067
13400.00000	93.08713	354.88738	93.08713
13450.00000	93.45386	364.60704	93.45386
13500.00000	92.75020	377.80274	92.75020
13550.00000	91.33266	385.93662	91.33266
13600.00000	89.37500	388.54550	89.37500
13650.00000	87.72907	386.66745	87.72907
13700.00000	86.01255	383.36446	86.01255
13750.00000	85.02814	375.85096	85.02814
13800.00000	84.51020	368.21156	84.51020
13850.00000	84.36736	361.04470	84.36736
13900.00000	84.25837	353.32037	84.25837
13950.00000	85.12901	347.46965	85.12901
14000.00000	86.16788	344.73866	86.16788
14050.00000	87.71742	346.98624	87.71742
14100.00000	89.69081	352.01193	89.69081
14150.00000	91.15953	367.15478	91.15953
14200.00000	90.83947	384.04241	90.83947
14250.00000	89.57707	397.81561	89.57707
14300.00000	88.10196	403.46665	88.10196
14350.00000	86.84994	403.25053	86.84994
14400.00000	85.84470	403.11397	85.84470
14450.00000	85.22907	399.64340	85.22907
14500.00000	85.08267	395.70265	85.08267
14550.00000	85.21889	389.98233	85.21889
14600.00000	85.31445	387.78170	85.31445
14650.00000	86.04377	385.28832	86.04377
14700.00000	86.93906	380.78142	86.93906
14750.00000	87.61658	378.97440	87.61658
14800.00000	88.84094	378.65719	88.84094
14850.00000	90.09346	378.26583	90.09346
14900.00000	91.16068	382.26560	91.16068
14950.00000	91.93520	386.75275	91.93520
15000.00000	92.29104	391.29677	92.29104
15050.00000	92.28514	396.36588	92.28514
15100.00000	92.34717	397.48710	92.34717
15150.00000	91.88253	396.55873	91.88253
15200.00000	92.02349	395.19560	92.02349
15250.00000	91.93224	392.33044	91.93224
15300.00000	92.04833	387.80681	92.04833
15350.00000	92.40180	384.15111	92.40180
15400.00000	92.90208	379.77356	92.90208
15450.00000	93.33935	374.94022	93.33935
15500.00000	94.07185	371.78981	94.07185
15550.00000	94.71822	369.04428	94.71822
15600.00000	95.52423	367.76269	95.52423
15650.00000	96.16020	365.97518	96.16020
15700.00000	96.55929	365.20298	96.55929
15750.00000	96.90220	365.09374	96.90220
15800.00000	97.00963	364.08764	97.00963
15850.00000	97.15572	363.72445	97.15572
15900.00000	97.14777	361.33144	97.14777
15950.00000	97.15008	358.40214	97.15008
16000.00000	97.20256	355.28466	97.20256
16050.00000	97.35733	351.50268	97.35733
16100.00000	97.45198	347.48977	97.45198
16150.00000	97.85818	343.40964	97.85818
16200.00000	98.20801	340.25468	98.20801
16250.00000	98.51003	336.99575	98.51003
16300.00000	98.94467	334.33271	98.94467
16350.00000	99.29440	331.81406	99.29440
16400.00000	99.50124	329.94561	99.50124
16450.00000	99.75923	327.59470	99.75923
16500.00000	99.90356	325.61445	99.90356
16550.00000	99.94915	323.04337	99.94915
16600.00000	99.99803	320.53491	99.99803
16650.00000	100.02107	317.57017	100.02107
16700.00000	100.13435	314.73651	100.13435
16750.00000	100.19861	311.54494	100.19861
16800.00000	100.30671	308.34613	100.30671
16850.00000	100.53087	304.95000	100.53087
16900.00000	100.65631	302.21212	100.65631
16950.00000	100.82632	299.45625	100.82632
17000.00000	100.98611	296.79845	100.98611
17050.00000	101.12749	294.65378	101.12749
17100.00000	101.21635	292.49257	101.21635
17150.00000	101.30520	290.29158	101.30520
17200.00000	101.36830	287.66166	101.36830
17250.00000	101.43878	284.90557	101.43878
17300.00000	101.52179	282.17998	101.52179
17350.00000	101.56761	279.15937	101.56761
17400.00000	101.69384	275.86642	101.69384
17450.00000	101.77368	272.95860	101.77368
17500.00000	101.84341	270.14388	101.84341
17550.00000	101.90111	267.22638	101.90111
17600.00000	102.07142	264.99941	102.07142
17650.00000	102.16646	262.45439	102.16646
17700.00000	102.26888	259.94706	102.26888
17750.00000	102.34944	257.66416	102.34944
17800.00000	102.44575	255.15486	102.44575
17850.00000	102.51221	252.64363	102.51221
17900.00000	102.60114	250.28400	102.60114
17950.00000	102.65562	247.69692	102.65562
18000.00000	102.75074	244.92053	102.75074
18050.00000	102.81879	241.95303	102.81879
18100.00000	102.89130	239.56031	102.89130
18150.00000	102.96008	236.58424	102.96008
18200.00000	103.03933	233.94752	103.03933
18250.00000	103.14121	231.06859	103.14121
18300.00000	103.22786	228.27747	103.22786
18350.00000	103.30737	225.47096	103.30737
18400.00000	103.37857	222.62416	103.37857
18450.00000	103.45619	219.77467	103.45619
18500.00000	103.52898	217.08225	103.52898
18550.00000	103.60965	214.05389	103.60965
18600.00000	103.62382	211.05635	103.62382
18650.00000	103.72589	208.07584	103.72589
18700.00000	103.75773	205.46348	103.75773
18750.00000	103.79386	202.42965	103.79386
18800.00000	103.80917	199.53632	103.80917
18850.00000	103.83089	196.53305	103.83089
18900.00000	103.81153	193.96680	103.81153
18950.00000	103.85180	190.71802	103.85180
19000.00000	103.80264	187.94037	103.80264
19050.00000	103.79561	184.88814	103.79561
19100.00000	103.77961	182.18760	103.77961
19150.00000	103.76941	179.55309	103.76941
19200.00000	103.75522	176.53538	103.75522
19250.00000	103.72675	174.03918	103.72675
19300.00000	103.72565	171.46035	103.72565
19350.00000	103.72059	168.75188	103.72059
19400.00000	103.65902	166.40492	103.65902
19450.00000	103.64252	163.45815	103.64252
19500.00000	103.64480	161.23983	103.64480
19550.00000	103.63364	158.76040	103.63364
19600.00000	103.59070	156.18432	103.59070
19650.00000	103.58133	153.86571	103.58133
19700.00000	103.58024	151.28347	103.58024
19750.00000	103.56938	148.93851	103.56938
19800.00000	103.59148	146.71521	103.59148
19850.00000	103.57124	144.09763	103.57124
19900.00000	103.60770	141.81632	103.60770
19950.00000	103.61999	139.34936	103.61999
20000.00000	103.60479	136.58824	103.60479
20050.00000	103.62810	134.29353	103.62810
20100.00000	103.65347	131.74473	103.65347
20150.00000	103.69287	128.98563	103.69287
20200.00000	103.69377	126.58069	103.69377
20250.00000	103.70592	124.04499	103.70592
20300.00000	103.75235	121.45304	103.75235
20350.00000	103.75469	118.91398	103.75469
20400.00000	103.79336	116.14718	103.79336
20450.00000	103.79852	113.41742	103.79852
20500.00000	103.82253	110.53048	103.82253
20550.00000	103.80974	107.69862	103.80974
20600.00000	103.79588	104.88884	103.79588
20650.00000	103.83148	101.92857	103.83148
20700.00000	103.82451	99.28005	103.82451
20750.00000	103.78505	96.33728	103.78505
20800.00000	103.75922	93.45675	103.75922
20850.00000	103.72511	90.38945	103.72511
20900.00000	103.68374	87.52741	103.68374
20950.00000	103.64911	84.51023	103.64911
21000.00000	103.62026	81.58212	103.62026
21050.00000	103.56055	78.57320	103.56055
21100.00000	103.51193	75.72037	103.51193
21150.00000	103.44120	72.92691	103.44120
21200.00000	103.35106	70.05351	103.35106
21250.00000	103.23680	67.08430	103.23680
21300.00000	103.14103	64.28336	103.14103
21350.00000	103.03387	61.37447	103.03387
21400.00000	102.93403	58.09819	102.93403
21450.00000	102.88090	55.56147	102.88090
21500.00000	102.78371	53.21107	102.78371
21550.00000	102.68338	50.34367	102.68338
21600.00000	102.52948	47.50958	102.52948
21650.00000	102.39143	44.99840	102.39143
21700.00000	102.23641	41.96692	102.23641
21750.00000	102.08689	39.34569	102.08689
21800.00000	101.94852	36.59212	101.94852
21850.00000	101.79022	34.17193	101.79022
21900.00000	101.65246	31.82770	101.65246
21950.00000	101.48097	29.26138	101.48097
22000.00000	101.27774	27.31833	101.27774
22050.00000	101.08637	25.39398	101.08637
22100.00000	100.91212	23.55881	100.91212
22150.00000	100.79947	21.62027	100.79947
22200.00000	100.65883	19.13246	100.65883
22250.00000	100.55251	17.20829	100.55251
22300.00000	100.45734	15.52103	100.45734
22350.00000	100.32759	13.37453	100.32759
22400.00000	100.26661	10.82300	100.26661
22450.00000	100.12731	 9.43504	100.12731
22500.00000	100.01674	 7.10664	100.01674
22550.00000	99.93303	 5.20967	99.93303
22600.00000	99.77953	 3.22287	99.77953
22650.00000	99.60826	 1.38300	99.60826
22700.00000	99.45665	-0.51653	99.45665
22750.00000	99.43954	-2.84170	99.43954
22800.00000	99.32558	-4.53969	99.32558
22850.00000	99.19609	-6.54684	99.19609
22900.00000	99.18902	-8.07113	99.18902
22950.00000	99.13386	-10.07685	99.13386
23000.00000	99.02247	-12.27790	99.02247
23050.00000	98.91253	-14.48865	98.91253
23100.00000	98.77594	-16.08026	98.77594
23150.00000	98.63405	-18.34485	98.63405
23200.00000	98.48260	-20.52914	98.48260
23250.00000	98.53082	-22.72710	98.53082
23300.00000	98.43426	-25.16647	98.43426
23350.00000	98.21550	-26.86428	98.21550
23400.00000	98.12812	-28.48234	98.12812
23450.00000	98.01196	-30.33186	98.01196
23500.00000	97.89931	-31.85616	97.89931
23550.00000	97.76516	-33.67065	97.76516
23600.00000	97.64595	-35.39737	97.64595
23650.00000	97.45049	-37.44784	97.45049
23700.00000	97.43668	-39.23720	97.43668
23750.00000	97.28320	-40.81908	97.28320
23800.00000	97.19248	-42.69339	97.19248
23850.00000	97.14455	-44.53622	97.14455
23900.00000	96.96352	-46.13479	96.96352
23950.00000	96.79138	-47.08337	96.79138
24000.00000	96.71349	-49.43407	96.71349
24050.00000	96.58498	-51.14084	96.58498
24100.00000	96.39589	-52.47116	96.39589
24150.00000	96.31844	-53.88513	96.31844
24200.00000	96.30362	-55.78188	96.30362
24250.00000	96.17940	-57.37499	96.17940
24300.00000	96.09665	-59.28536	96.09665
24350.00000	96.01710	-59.96878	96.01710
24400.00000	95.88335	-61.85782	95.88335
24450.00000	95.80006	-62.31974	95.80006
24500.00000	95.64448	-65.01196	95.64448
24550.00000	95.53636	-66.29661	95.53636
24600.00000	95.50861	-67.81919	95.50861
24650.00000	95.44078	-69.44500	95.44078
24700.00000	95.31107	-70.65264	95.31107
24750.00000	95.30411	-72.34093	95.30411
24800.00000	95.20038	-73.27270	95.20038
24850.00000	95.26557	-74.47664	95.26557
24900.00000	95.05803	-75.54517	95.05803
24950.00000	95.05681	-77.07254	95.05681
25000.00000	94.95701	-78.79022	94.95701
25050.00000	94.91507	-79.86079	94.91507
25100.00000	94.95127	-80.87056	94.95127
25150.00000	94.84625	-82.22193	94.84625
25200.00000	94.76585	-83.09707	94.76585
25250.00000	94.73118	-85.25714	94.73118
25300.00000	94.61499	-85.95384	94.61499
25350.00000	94.66936	-87.84538	94.66936
25400.00000	94.68153	-88.94063	94.68153
25450.00000	94.71910	-91.13986	94.71910
25500.00000	94.73169	-92.21542	94.73169
25550.00000	94.71457	-93.43348	94.71457
25600.00000	94.65313	-94.90786	94.65313
25650.00000	94.64422	-96.73069	94.64422
25700.00000	94.61605	-98.14484	94.61605
25750.00000	94.68988	-100.44806	94.68988
25800.00000	94.67085	-101.28439	94.67085
25850.00000	94.67349	-102.80320	94.67349
25900.00000	94.61472	-105.02144	94.61472
25950.00000	94.64830	-106.68313	94.64830
26000.00000	94.66913	-108.04158	94.66913
26050.00000	94.67651	-110.20087	94.67651
26100.00000	94.67199	-111.97385	94.67199
26150.00000	94.60405	-114.49139	94.60405
26200.00000	94.54040	-116.04835	94.54040
26250.00000	94.54874	-118.13467	94.54874
26300.00000	94.46751	-120.35414	94.46751
26350.00000	94.48087	-122.37981	94.48087
26400.00000	94.49484	-124.45056	94.49484
26450.00000	94.32935	-127.15747	94.32935
26500.00000	94.27930	-128.97740	94.27930
26550.00000	94.20037	-130.34013	94.20037
26600.00000	94.11934	-132.41204	94.11934
26650.00000	94.04920	-134.91953	94.04920
26700.00000	93.92684	-136.64751	93.92684
26750.00000	93.78816	-138.49424	93.78816
26800.00000	93.61695	-140.65184	93.61695
26850.00000	93.45648	-141.70281	93.45648
26900.00000	93.30483	-143.87718	93.30483
26950.00000	93.09004	-145.60895	93.09004
27000.00000	92.87168	-147.18026	92.87168
27050.00000	92.78137	-147.92568	92.78137
27100.00000	92.63478	-149.80502	92.63478
27150.00000	92.41831	-150.86281	92.41831
27200.00000	92.36753	-152.69548	92.36753
27250.00000	92.14971	-153.29457	92.14971
27300.00000	91.98958	-154.71559	91.98958
27350.00000	91.83677	-155.77023	91.83677
27400.00000	91.68336	-156.13357	91.68336
27450.00000	91.57976	-157.37263	91.57976
27500.00000	91.44146	-158.10456	91.44146
27550.00000	91.30726	-159.09592	91.30726
27600.00000	91.20284	-159.59987	91.20284
27650.00000	91.07043	-160.34903	91.07043
27700.00000	90.89746	-161.42728	90.89746
27750.00000	90.80844	-161.29916	90.80844
27800.00000	90.75220	-161.87490	90.75220
27850.00000	90.67340	-162.60857	90.67340
27900.00000	90.64890	-162.73481	90.64890
27950.00000	90.62374	-162.72820	90.62374
28000.00000	90.62831	-163.35337	90.62831
28050.00000	90.47566	-163.54594	90.47566
28100.00000	90.41886	-163.96455	90.41886
28150.00000	90.40408	-164.38877	90.40408
28200.00000	90.50043	-164.96464	90.50043
28250.00000	90.34244	-165.27148	90.34244
28300.00000	90.34367	-166.06587	90.34367
28350.00000	90.44407	-166.35120	90.44407
28400.00000	90.43838	-166.56966	90.43838
28450.00000	90.45062	-167.09770	90.45062
28500.00000	90.52419	-167.99674	90.52419
28550.00000	90.50495	-168.76016	90.50495
28600.00000	90.65466	-168.51264	90.65466
28650.00000	90.62567	-168.65216	90.62567
28700.00000	90.68172	-169.82922	90.68172
28750.00000	90.77998	-170.08779	90.77998
28800.00000	90.73091	-170.77848	90.73091
28850.00000	90.79499	-170.88766	90.79499
28900.00000	90.90496	-171.74453	90.90496
28950.00000	90.99496	-172.53620	90.99496
29000.00000	91.10019	-172.97207	91.10019
29050.00000	91.16006	-173.55831	91.16006
29100.00000	91.16094	-173.63378	91.16094
29150.00000	91.30770	-175.44500	91.30770
29200.00000	91.43941	-175.46888	91.43941
29250.00000	91.45111	-175.63353	91.45111
29300.00000	91.54848	-176.61420	91.54848
29350.00000	91.64192	-177.09556	91.64192
29400.00000	91.71181	-177.94187	91.71181
29450.00000	91.91013	-178.52158	91.91013
29500.00000	92.09396	-179.41458	92.09396
29550.00000	92.22699	-179.31757	92.22699
29600.00000	92.27319	-180.40292	92.27319
29650.00000	92.43286	-180.89745	92.43286
29700.00000	92.58747	-181.77349	92.58747
29750.00000	92.80294	-182.44505	92.80294
29800.00000	92.86022	-182.68911	92.86022
29850.00000	93.05338	-183.55115	93.05338
29900.00000	93.19335	-184.45179	93.19335
29950.00000	93.40275	-185.27331	93.40275
30000.00000	93.58883	-186.09595	93.58883
30050.00000	93.75611	-186.82480	93.75611
30100.00000	93.95448	-187.88255	93.95448
30150.00000	94.08814	-188.60734	94.08814
30200.00000	94.32251	-189.60813	94.32251
30250.00000	94.52323	-190.55271	94.52323
30300.00000	94.68586	-191.75992	94.68586
30350.00000	94.97064	-192.45388	94.97064
30400.00000	95.16899	-193.77004	95.16899
30450.00000	95.33391	-194.70556	95.33391
30500.00000	95.62890	-196.15921	95.62890
30550.00000	95.79853	-196.97877	95.79853
30600.00000	96.06904	-198.48751	96.06904
30650.00000	96.27684	-199.47340	96.27684
30700.00000	96.53636	-200.93627	96.53636
30750.00000	96.75449	-202.71650	96.75449
30800.00000	96.95640	-203.67412	96.95640
30850.00000	97.17597	-205.21498	97.17597
30900.00000	97.43299	-207.00504	97.43299
30950.00000	97.68065	-208.34628	97.68065
31000.00000	97.92231	-209.65486	97.92231
31050.00000	98.15446	-211.33547	98.15446
31100.00000	98.40891	-213.14904	98.40891
31150.00000	98.65262	-214.95106	98.65262
31200.00000	98.88844	-216.74052	98.88844
31250.00000	99.16667	-218.68625	99.16667
31300.00000	99.37120	-220.65946	99.37120
31350.00000	99.58748	-222.46645	99.58748
31400.00000	99.85227	-224.40579	99.85227
31450.00000	100.08054	-226.47668	100.08054
31500.00000	100.29878	-228.79727	100.29878
31550.00000	100.52972	-231.00645	100.52972
31600.00000	100.76314	-233.26539	100.76314
31650.00000	100.98310	-235.53965	100.98310
31700.00000	101.12432	-237.95688	101.12432
31750.00000	101.33237	-240.21554	101.33237
31800.00000	101.52465	-242.90998	101.52465
31850.00000	101.69276	-244.99774	101.69276
31900.00000	101.85681	-247.54211	101.85681
31950.00000	102.02083	-250.26322	102.02083
32000.00000	102.15016	-252.65737	102.15016
32050.00000	102.28433	-255.12552	102.28433
32100.00000	102.42455	-257.59015	102.42455
32150.00000	102.51884	-260.28928	102.51884
32200.00000	102.62795	-262.51200	102.62795
32250.00000	102.74728	-264.89582	102.74728
32300.00000	102.80698	-267.26354	102.80698
32350.00000	102.91274	-269.65206	102.91274
32400.00000	102.99518	-272.01515	102.99518
32450.00000	103.06682	-274.40212	103.06682
32500.00000	103.12880	-276.65624	103.12880
32550.00000	103.17242	-278.77285	103.17242
32600.00000	103.26330	-280.91902	103.26330
32650.00000	103.31285	-283.18233	103.31285
32700.00000	103.35578	-285.12869	103.35578
32750.00000	103.39673	-287.14718	103.39673
32800.00000	103.43678	-289.32903	103.43678
32850.00000	103.52321	-291.26322	103.52321
32900.00000	103.56297	-293.03284	103.56297
32950.00000	103.59989	-294.85303	103.59989
33000.00000	103.64522	-296.81114	103.64522
33050.00000	103.71021	-298.64276	103.71021
33100.00000	103.76420	-300.40577	103.76420
33150.00000	103.78829	-301.95236	103.78829
33200.00000	103.85844	-303.75324	103.85844
33250.00000	103.91679	-305.26291	103.91679
33300.00000	103.96387	-306.91928	103.96387
33350.00000	104.03809	-308.26443	104.03809
33400.00000	104.08112	-309.88582	104.08112
33450.00000	104.18230	-311.27681	104.18230
33500.00000	104.23530	-312.50628	104.23530
33550.00000	104.33367	-314.01319	104.33367
33600.00000	104.40224	-315.23958	104.40224
33650.00000	104.49979	-316.70527	104.49979
33700.00000	104.58212	-317.89783	104.58212
33750.00000	104.69217	-319.18976	104.69217
33800.00000	104.80784	-320.33936	104.80784
33850.00000	104.94259	-321.36261	104.94259
33900.00000	105.07441	-322.67415	105.07441
33950.00000	105.26405	-323.62727	105.26405
34000.00000	105.41543	-324.70114	105.41543
34050.00000	105.55973	-325.49894	105.55973
34100.00000	105.72661	-326.56128	105.72661
34150.00000	105.93572	-327.72021	105.93572
34200.00000	106.15891	-328.89840	106.15891
34250.00000	106.37639	-329.91778	106.37639
34300.00000	106.62321	-331.03431	106.62321
34350.00000	106.87351	-332.35473	106.87351
34400.00000	107.17008	-333.60184	107.17008
34450.00000	107.41949	-335.08913	107.41949
34500.00000	107.69926	-336.37646	107.69926
34550.00000	108.00543	-337.97311	108.00543
34600.00000	108.30494	-339.53024	108.30494
34650.00000	108.61475	-341.14627	108.61475
34700.00000	108.91886	-342.85323	108.91886
34750.00000	109.24083	-344.82614	109.24083
34800.00000	109.54997	-346.98311	109.54997
34850.00000	109.86466	-349.05804	109.86466
34900.00000	110.13051	-351.32431	110.13051
34950.00000	110.37462	-353.43377	110.37462
35000.00000	110.62950	-355.20133	110.62950
35050.00000	110.92001	-356.96501	110.92001
35100.00000	111.23923	-358.72982	111.23923
35150.00000	111.58249	-360.76083	111.58249
35200.00000	111.92481	-362.98502	111.92481
35250.00000	112.26572	-365.17337	112.26572
35300.00000	112.60891	-367.50592	112.60891
35350.00000	112.95357	-369.98862	112.95357
35400.00000	113.29437	-372.61825	113.29437
35450.00000	113.62989	-375.28589	113.62989
35500.00000	113.95926	-377.95681	113.95926
35550.00000	114.29172	-380.69960	114.29172
35600.00000	114.61425	-383.61317	114.61425
35650.00000	114.92736	-386.53367	114.92736
35700.00000	115.23752	-389.46990	115.23752
35750.00000	115.53952	-392.45579	115.53952
35800.00000	115.84559	-395.58500	115.84559
35850.00000	116.14191	-398.71228	116.14191
35900.00000	116.43377	-401.84352	116.43377
35950.00000	116.71713	-405.01515	116.71713
36000.00000	116.98222	-408.24694	116.98222
36050.00000	117.24838	-411.56361	117.24838
36100.00000	117.50710	-414.81291	117.50710
36150.00000	117.76710	-418.10921	117.76710
36200.00000	118.02222	-421.44575	118.02222
36250.00000	118.26600	-424.79647	118.26600
36300.00000	118.50259	-428.10301	118.50259
36350.00000	118.73828	-431.54969	118.73828
36400.00000	118.96937	-434.92943	118.96937
36450.00000	119.18954	-438.31887	119.18954
36500.00000	119.41432	-441.69773	119.41432
36550.00000	119.63068	-445.04847	119.63068
36600.00000	119.84602	-448.44648	119.84602
36650.00000	120.04380	-451.74673	120.04380
36700.00000	120.26978	-455.00104	120.26978
36750.00000	120.47847	-458.31076	120.47847
36800.00000	120.70875	-461.61683	120.70875
36850.00000	120.93188	-464.84444	120.93188
36900.00000	121.15951	-468.18013	121.15951
36950.00000	121.40403	-471.49055	121.40403
37000.00000	121.64973	-474.76240	121.64973
37050.00000	121.90827	-478.07075	121.90827
37100.00000	122.16981	-481.51329	122.16981
37150.00000	122.44450	-484.99521	122.44450
37200.00000	122.72357	-488.45901	122.72357
37250.00000	123.01322	-492.07362	123.01322
37300.00000	123.31626	-495.73073	123.31626
37350.00000	123.63561	-499.51576	123.63561
37400.00000	123.95904	-503.56104	123.95904
37450.00000	124.28518	-507.64471	124.28518
37500.00000	124.62111	-511.87942	124.62111
37550.00000	124.96505	-516.45665	124.96505
37600.00000	125.29960	-521.18889	125.29960
37650.00000	125.63964	-526.17576	125.63964
37700.00000	125.94875	-531.33297	125.94875
37750.00000	126.25616	-536.87031	126.25616
37800.00000	126.52168	-542.64151	126.52168
37850.00000	126.76232	-548.60980	126.76232
37900.00000	126.94219	-554.86059	126.94219
37950.00000	127.06152	-561.21500	127.06152
38000.00000	127.14499	-567.55563	127.14499
38050.00000	127.15756	-574.05616	127.15756
38100.00000	127.11786	-580.37989	127.11786
38150.00000	127.02564	-586.56493	127.02564
38200.00000	126.88899	-592.59664	126.88899
38250.00000	126.71313	-598.33012	126.71313
38300.00000	126.52279	-603.85852	126.52279
38350.00000	126.32339	-609.18414	126.32339
38400.00000	126.11267	-614.23000	126.11267
38450.00000	125.90156	-619.13415	125.90156
38500.00000	125.69121	-623.82006	125.69121
38550.00000	125.48458	-628.54436	125.48458
38600.00000	125.28347	-633.05992	125.28347
38650.00000	125.08156	-637.56201	125.08156
38700.00000	124.87048	-641.99097	124.87048
38750.00000	124.67234	-646.32571	124.67234
38800.00000	124.45928	-650.67013	124.45928
38850.00000	124.26076	-655.00463	124.26076
38900.00000	124.04586	-659.30313	124.04586
38950.00000	123.82102	-663.52774	123.82102
39000.00000	123.60074	-667.80328	123.60074
39050.00000	123.36019	-672.03720	123.36019
39100.00000	123.11726	-676.26220	123.11726
39150.00000	122.85359	-680.42592	122.85359
39200.00000	122.57616	-684.48426	122.57616
39250.00000	122.29221	-688.38889	122.29221
39300.00000	122.00430	-692.23108	122.00430
39350.00000	121.71442	-695.98725	121.71442
39400.00000	121.43131	-699.70690	121.43131
39450.00000	121.14566	-703.27076	121.14566
39500.00000	120.85895	-706.87588	120.85895
39550.00000	120.56757	-710.39270	120.56757
39600.00000	120.26245	-713.92808	120.26245
39650.00000	119.95115	-717.44348	119.95115
39700.00000	119.63668	-720.82209	119.63668
39750.00000	119.30237	-724.03831	119.30237
39800.00000	118.96161	-727.20608	118.96161
39850.00000	118.62031	-730.24195	118.62031
39900.00000	118.28074	-733.12923	118.28074
39950.00000	117.94160	-735.95080	117.94160
40000.00000	117.61697	-738.63621	117.61697
40050.00000	117.28607	-741.22915	117.28607
40100.00000	116.96903	-743.82786	116.96903
40150.00000	116.66174	-746.25724	116.66174
40200.00000	116.35608	-748.70066	116.35608
40250.00000	116.05942	-751.07321	116.05942
40300.00000	115.75323	-753.30631	115.75323
40350.00000	115.46176	-755.55280	115.46176
40400.00000	115.17304	-757.78444	115.17304
40450.00000	114.88669	-759.88670	114.88669
40500.00000	114.61387	-761.92210	114.61387
40550.00000	114.32623	-764.03838	114.32623
40600.00000	114.05971	-765.96745	114.05971
40650.00000	113.78229	-767.97925	113.78229
40700.00000	113.51314	-769.93461	113.51314
40750.00000	113.25584	-771.74202	113.25584
40800.00000	112.99496	-773.61022	112.99496
40850.00000	112.73015	-775.35853	112.73015
40900.00000	112.49387	-776.99181	112.49387
40950.00000	112.22631	-778.65103	112.22631
41000.00000	111.99642	-780.35128	111.99642
41050.00000	111.72986	-781.90388	111.72986
41100.00000	111.51675	-783.39901	111.51675
41150.00000	111.30851	-784.90532	111.30851
41200.00000	111.07289	-786.27789	111.07289
41250.00000	110.86884	-787.63158	110.86884
41300.00000	110.64654	-788.84667	110.64654
41350.00000	110.44671	-790.18973	110.44671
41400.00000	110.25640	-791.44831	110.25640
41450.00000	110.09661	-792.41616	110.09661
41500.00000	109.87413	-793.51397	109.87413
41550.00000	109.71356	-794.66320	109.71356
41600.00000	109.56153	-795.60925	109.56153
41650.00000	109.41136	-796.48555	109.41136
41700.00000	109.25936	-797.49091	109.25936
41750.00000	109.12779	-798.14998	109.12779
41800.00000	109.02856	-799.04067	109.02856
41850.00000	108.94081	-799.88218	108.94081
41900.00000	108.87104	-800.69393	108.87104
41950.00000	108.81066	-801.48222	108.81066
42000.00000	108.75645	-802.25394	108.75645
42050.00000	108.74543	-803.24169	108.74543
42100.00000	108.74029	-803.92093	108.74029
42150.00000	108.73107	-804.71297	108.73107
42200.00000	108.73546	-805.62219	108.73546
42250.00000	108.78037	-806.52724	108.78037
42300.00000	108.83872	-807.57031	108.83872
42350.00000	108.85598	-808.77827	108.85598
42400.00000	108.92953	-809.92596	108.92953
42450.00000	109.02322	-811.16669	109.02322
42500.00000	109.10237	-812.21373	109.10237
42550.00000	109.16065	-813.83171	109.16065
42600.00000	109.24657	-815.52679	109.24657
42650.00000	109.33322	-816.69094	109.33322
42700.00000	109.41088	-818.29016	109.41088
42750.00000	109.52470	-820.12506	109.52470
42800.00000	109.61897	-821.86126	109.61897
42850.00000	109.72274	-823.59239	109.72274
42900.00000	109.88483	-825.49931	109.88483
42950.00000	109.93900	-827.50368	109.93900
43000.00000	110.08267	-829.40836	110.08267
43050.00000	110.16861	-831.25858	110.16861
43100.00000	110.32092	-833.75047	110.32092
43150.00000	110.42437	-836.00162	110.42437
43200.00000	110.51629	-838.56750	110.51629
43250.00000	110.63342	-840.65495	110.63342
43300.00000	110.75410	-843.05845	110.75410
43350.00000	110.80632	-845.64478	110.80632
43400.00000	110.87060	-848.26299	110.87060
43450.00000	110.97494	-850.86794	110.97494
43500.00000	111.01418	-853.64313	111.01418
43550.00000	111.07703	-856.29744	111.07703
43600.00000	111.05541	-859.16673	111.05541
43650.00000	111.14651	-862.03444	111.14651
43700.00000	111.14430	-864.93727	111.14430
43750.00000	111.13926	-867.92453	111.13926
43800.00000	111.15148	-871.02625	111.15148
43850.00000	111.08551	-874.05803	111.08551
43900.00000	111.10569	-877.02125	111.10569
43950.00000	111.00813	-880.03793	111.00813
44000.00000	110.94740	-882.90807	110.94740
44050.00000	110.89108	-885.96431	110.89108
44100.00000	110.81778	-888.73193	110.81778
44150.00000	110.72726	-891.27381	110.72726
44200.00000	110.61273	-894.37324	110.61273
44250.00000	110.51566	-896.83626	110.51566
44300.00000	110.40549	-899.59305	110.40549
44350.00000	110.23785	-901.95324	110.23785
44400.00000	110.15308	-904.12984	110.15308
44450.00000	110.04571	-906.50392	110.04571
44500.00000	109.88728	-908.83663	109.88728
44550.00000	109.73334	-910.78825	109.73334
44600.00000	109.59298	-912.79393	109.59298
44650.00000	109.41874	-915.09074	109.41874
44700.00000	109.31070	-916.98765	109.31070
44750.00000	109.11434	-918.72877	109.11434
44800.00000	108.98135	-920.51800	108.98135
44850.00000	108.91953	-922.35658	108.91953
44900.00000	108.76790	-924.52538	108.76790
44950.00000	108.68754	-925.79905	108.68754
45000.00000	108.53018	-927.38241	108.53018
45050.00000	108.49473	-929.22324	108.49473
45100.00000	108.40222	-930.64136	108.40222
45150.00000	108.34123	-932.14020	108.34123
45200.00000	108.23096	-933.57706	108.23096
45250.00000	108.22572	-935.09229	108.22572
45300.00000	108.24694	-935.77651	108.24694
45350.00000	108.22341	-937.33583	108.22341
45400.00000	108.23028	-939.03632	108.23028
45450.00000	108.22672	-940.63765	108.22672
45500.00000	108.21886	-942.23140	108.21886
45550.00000	108.24124	-943.99172	108.24124
45600.00000	108.31871	-945.91643	108.31871
45650.00000	108.35187	-947.88889	108.35187
45700.00000	108.26301	-949.70171	108.26301
45750.00000	108.25632	-951.71239	108.25632
45800.00000	108.22683	-953.55270	108.22683
45850.00000	108.19590	-954.88334	108.19590
45900.00000	108.26453	-957.05115	108.26453
45950.00000	108.28790	-959.20488	108.28790
46000.00000	108.31141	-961.41786	108.31141
46050.00000	108.40463	-964.05403	108.40463
46100.00000	108.33480	-966.11428	108.33480
46150.00000	108.29058	-968.38046	108.29058
46200.00000	108.19856	-971.06094	108.19856
46250.00000	108.11738	-973.53171	108.11738
46300.00000	108.01803	-975.25069	108.01803
46350.00000	107.92989	-977.26558	107.92989
46400.00000	107.71161	-979.29916	107.71161
46450.00000	107.62926	-980.30368	107.62926
46500.00000	107.51900	-982.19948	107.51900
46550.00000	107.38473	-983.25297	107.38473
46600.00000	107.26852	-983.94339	107.26852
46650.00000	107.15349	-984.94084	107.15349
46700.00000	107.14522	-985.88589	107.14522
46750.00000	107.02662	-986.44566	107.02662
46800.00000	107.01373	-987.48743	107.01373
46850.00000	106.98596	-988.05553	106.98596
46900.00000	107.04489	-988.14205	107.04489
46950.00000	107.14934	-989.02296	107.14934
47000.00000	107.26356	-989.71251	107.26356
47050.00000	107.38981	-990.87941	107.38981
47100.00000	107.45438	-991.58628	107.45438
47150.00000	107.59648	-992.56864	107.59648
47200.00000	107.76998	-993.95831	107.76998
47250.00000	107.88903	-994.52722	107.88903
47300.00000	108.13480	-995.27997	108.13480
47350.00000	108.36771	-996.77737	108.36771
47400.00000	108.60316	-998.14736	108.60316
47450.00000	108.77793	-999.28274	108.77793
47500.00000	109.06534	-1000.89899	109.06534
47550.00000	109.31521	-1003.11714	109.31521
47600.00000	109.53541	-1004.45795	109.53541
47650.00000	109.74349	-1005.87344	109.74349
47700.00000	110.07773	-1008.64934	110.07773
47750.00000	110.24500	-1010.44966	110.24500
47800.00000	110.56206	-1012.66542	110.56206
47850.00000	110.82792	-1014.79220	110.82792
47900.00000	111.10518	-1016.96657	111.10518
47950.00000	111.44673	-1019.61269	111.44673
48000.00000	111.74072	-1022.63588	111.74072
48050.00000	111.94167	-1025.14052	111.94167
48100.00000	112.20224	-1028.45243	112.20224
48150.00000	112.50526	-1031.33056	112.50526
48200.00000	112.70738	-1034.78817	112.70738
48250.00000	112.94926	-1037.46590	112.94926
48300.00000	113.21242	-1040.82541	113.21242
48350.00000	113.47212	-1043.98164	113.47212
48400.00000	113.60385	-1048.20063	113.60385
48450.00000	113.82246	-1051.76602	113.82246
48500.00000	114.01139	-1055.34828	114.01139
48550.00000	114.16863	-1058.82477	114.16863
48600.00000	114.28705	-1063.69005	114.28705
48650.00000	114.44908	-1067.21916	114.44908
48700.00000	114.54397	-1070.85525	114.54397
48750.00000	114.68408	-1075.24185	114.68408
48800.00000	114.70336	-718.79964	114.70336
48850.00000	114.68837	-363.71188	114.68837
48900.00000	114.89057	-7.41453	114.89057
48950.00000	114.79907	348.61402	114.79907
49000.00000	114.87543	704.18628	114.87543
49050.00000	114.92794	1059.54121	114.92794
49100.00000	114.86533	1416.19263	114.86533
49150.00000	114.87688	1771.21085	114.87688
49200.00000	114.69314	2128.31193	114.69314
49250.00000	114.71822	2484.50396	114.71822
49300.00000	114.64753	2840.90055	114.64753
49350.00000	114.48968	3196.99352	114.48968
49400.00000	114.24042	3552.38301	114.24042
49450.00000	114.22552	3909.32062	114.22552
49500.00000	114.10129	4266.35905	114.10129
49550.00000	113.91130	4622.56466	113.91130
49600.00000	113.80133	4979.25148	113.80133
49650.00000	113.68978	5334.77987	113.68978
49700.00000	113.34694	5691.89323	113.34694
49750.00000	113.25070	6049.48702	113.25070
49800.00000	113.06324	6047.09749	113.06324
49850.00000	112.97318	6762.29610	112.97318
49900.00000	112.86364	6760.15262	112.86364
49950.00000	112.58855	7117.64569	112.58855
50000.00000	112.52864	7114.85473	112.52864
50050.00000	112.31534	7112.39755	112.31534
50100.00000	112.10702	7109.49875	112.10702
50150.00000	112.09366	7107.05323	112.09366
50200.00000	111.90645	7104.08267	111.90645
50250.00000	111.71706	7101.98219	111.71706
50300.00000	111.62152	7099.70339	111.62152
50350.00000	111.42845	7098.09267	111.42845
50400.00000	111.44845	7095.15537	111.44845
50450.00000	111.18993	7092.94318	111.18993
50500.00000	111.07523	7091.56865	111.07523
50550.00000	110.97301	7088.77198	110.97301
50600.00000	110.93193	7086.32214	110.93193
50650.00000	110.88626	7084.49071	110.88626
50700.00000	110.67927	7081.89835	110.67927
50750.00000	110.59635	7079.80602	110.59635
50800.00000	110.56635	7077.15803	110.56635
50850.00000	110.53434	7075.31630	110.53434
50900.00000	110.41205	7072.31919	110.41205
50950.00000	110.42440	7069.79810	110.42440
51000.00000	110.47889	7066.82344	110.47889
51050.00000	110.43452	7064.96387	110.43452
51100.00000	110.33372	7061.61893	110.33372
51150.00000	110.21410	7058.58458	110.21410
51200.00000	110.12211	7055.91760	110.12211
51250.00000	110.05334	7053.30740	110.05334
51300.00000	110.01841	7049.62913	110.01841
51350.00000	109.88044	7047.68165	109.88044
51400.00000	109.79115	7043.39112	109.79115
51450.00000	109.46731	7041.44693	109.46731
51500.00000	109.36516	7038.33099	109.36516
51550.00000	109.15902	7035.37766	109.15902
51600.00000	108.90831	7032.12272	108.90831
51650.00000	108.45001	7029.58511	108.45001
51700.00000	108.29198	7026.42736	108.29198
51750.00000	107.95799	7024.82029	107.95799
51800.00000	107.67183	7022.15445	107.67183
51850.00000	107.38786	7019.71022	107.38786
51900.00000	107.01012	7018.10905	107.01012
51950.00000	106.44501	7016.95058	106.44501
52000.00000	106.11162	7015.74072	106.11162
52050.00000	105.94657	7014.89869	105.94657
52100.00000	105.60086	7014.89358	105.60086
52150.00000	105.25507	7014.78922	105.25507
52200.00000	104.98512	7014.23312	104.98512
52250.00000	104.89262	7013.57373	104.89262
52300.00000	104.57394	7015.96326	104.57394
52350.00000	104.58963	7015.54248	104.58963
52400.00000	104.47057	7014.83012	104.47057
52450.00000	104.44119	7014.74417	104.44119
52500.00000	104.58095	7015.23458	104.58095
52550.00000	104.42623	7016.49067	104.42623
52600.00000	104.43249	7015.64306	104.43249
52650.00000	104.66531	7015.29870	104.66531
52700.00000	104.83921	7016.35177	104.83921
52750.00000	104.98763	7016.15735	104.98763
52800.00000	105.15718	7015.15131	105.15718
52850.00000	105.20782	7014.91241	105.20782
52900.00000	105.55457	7013.57356	105.55457
52950.00000	105.80361	7012.96418	105.80361
53000.00000	105.92168	7011.69049	105.92168
53050.00000	106.13443	7010.12934	106.13443
53100.00000	106.50355	7008.64748	106.50355
53150.00000	106.77588	7007.73285	106.77588
53200.00000	106.83139	7005.40309	106.83139
53250.00000	107.15004	7004.07339	107.15004
53300.00000	107.43169	7001.59936	107.43169
53350.00000	107.50162	6999.77073	107.50162
53400.00000	107.85515	6997.72884	107.85515
53450.00000	108.10855	6995.02486	108.10855
53500.00000	108.35234	6993.05690	108.35234
53550.00000	108.64042	6990.15198	108.64042
53600.00000	108.75950	6986.85089	108.75950
53650.00000	109.02845	6984.50689	109.02845
53700.00000	109.22045	6981.22091	109.22045
53750.00000	109.40480	6977.88293	109.40480
53800.00000	109.56853	6975.49700	109.56853
53850.00000	109.71669	6972.10883	109.71669
53900.00000	109.82503	6969.41885	109.82503
53950.00000	109.93843	6965.60378	109.93843
54000.00000	110.08384	6962.37014	110.08384
54050.00000	110.17637	6958.80773	110.17637
54100.00000	110.29553	6955.19532	110.29553
54150.00000	110.38489	6951.51965	110.38489
54200.00000	110.30155	6948.57798	110.30155
54250.00000	110.38338	6944.34331	110.38338
54300.00000	110.40178	6940.75638	110.40178
54350.00000	110.50869	6937.58699	110.50869
54400.00000	110.59649	6934.70897	110.59649
54450.00000	110.50600	6930.37200	110.50600
54500.00000	110.38787	6927.29231	110.38787
54550.00000	110.36229	6924.26126	110.36229
54600.00000	110.34521	6921.33443	110.34521
54650.00000	110.30737	6916.72399	110.30737
54700.00000	110.22293	6914.17150	110.22293
54750.00000	110.32869	6911.12878	110.32869
54800.00000	110.13587	6907.88016	110.13587
54850.00000	109.99714	6904.86690	109.99714
54900.00000	110.02494	6901.47093	110.02494
54950.00000	109.92717	6898.96584	109.92717
55000.00000	110.01639	6895.51115	110.01639
55050.00000	109.78830	6892.68981	109.78830
55100.00000	109.81344	6889.46548	109.81344
55150.00000	109.77814	6886.65288	109.77814
55200.00000	109.63554	6883.15590	109.63554
55250.00000	109.62743	6880.77941	109.62743
55300.00000	109.59981	6877.30246	109.59981
55350.00000	109.51576	6874.80254	109.51576
55400.00000	109.40788	6871.02462	109.40788
55450.00000	109.34937	6868.58273	109.34937
55500.00000	109.32490	6865.03251	109.32490
55550.00000	109.26167	6861.96938	109.26167
55600.00000	109.15151	6858.82583	109.15151
55650.00000	109.11082	6855.49620	109.11082
55700.00000	108.98678	6852.06995	108.98678
55750.00000	108.94529	6848.85124	108.94529
55800.00000	108.80108	6845.33541	108.80108
55850.00000	108.70893	6841.97134	108.70893
55900.00000	108.61091	6838.54303	108.61091
55950.00000	108.40871	6835.08462	108.40871
56000.00000	108.33005	6831.42193	108.33005
56050.00000	108.15503	6828.46157	108.15503
56100.00000	107.95074	6824.59631	107.95074
56150.00000	107.75487	6821.53232	107.75487
56200.00000	107.52800	6817.99228	107.52800
56250.00000	107.26582	6814.98321	107.26582
56300.00000	106.99828	6811.55782	106.99828
56350.00000	106.76298	6808.62452	106.76298
56400.00000	106.39330	6805.73143	106.39330
56450.00000	106.12037	6802.86359	106.12037
56500.00000	105.81424	6800.37864	105.81424
56550.00000	105.47262	6797.80220	105.47262
56600.00000	105.17427	6795.33854	105.17427
56650.00000	104.83895	6794.00058	104.83895
56700.00000	104.49033	6791.80330	104.49033
56750.00000	104.24605	6789.97574	104.24605
56800.00000	103.94008	6788.06794	103.94008
56850.00000	103.65977	6787.03721	103.65977
56900.00000	103.39661	6785.42398	103.39661
56950.00000	103.07710	6784.44798	103.07710
57000.00000	102.84686	6782.86310	102.84686
57050.00000	102.69239	6781.97350	102.69239
57100.00000	102.50711	6780.91293	102.50711
57150.00000	102.34015	6779.66127	102.34015
57200.00000	102.18206	6779.05057	102.18206
57250.00000	102.08901	6777.46843	102.08901
57300.00000	101.97739	6776.37523	101.97739
57350.00000	101.87099	6775.60389	101.87099
57400.00000	101.83942	6774.81007	101.83942
57450.00000	101.70685	6772.96732	101.70685
57500.00000	101.61902	6771.52925	101.61902
57550.00000	101.53284	6770.03394	101.53284
57600.00000	101.37190	6768.74174	101.37190
57650.00000	101.32431	6767.56343	101.32431
57700.00000	101.22948	6766.16232	101.22948
57750.00000	101.15422	6764.93719	101.15422
57800.00000	101.17346	6763.64712	101.17346
57850.00000	101.05539	6762.50399	101.05539
57900.00000	100.99383	6760.92104	100.99383
57950.00000	100.92300	6759.57405	100.92300
58000.00000	100.92584	6758.86221	100.92584
58050.00000	100.86407	6756.79029	100.86407
58100.00000	100.89736	6755.67717	100.89736
58150.00000	100.80857	6754.68380	100.80857
58200.00000	100.74164	6753.18769	100.74164
58250.00000	100.80606	6751.63702	100.80606
58300.00000	100.70706	6750.04704	100.70706
58350.00000	100.72334	6748.76460	100.72334
58400.00000	100.67461	6747.01584	100.67461
58450.00000	100.70128	6745.71587	100.70128
58500.00000	100.62940	6744.26873	100.62940
58550.00000	100.59092	6742.58308	100.59092
58600.00000	100.56190	6741.28779	100.56190
58650.00000	100.52022	6740.10374	100.52022
58700.00000	100.46636	6738.75642	100.46636
58750.00000	100.42667	6737.60091	100.42667
58800.00000	100.41516	6736.33099	100.41516
58850.00000	100.39554	6735.44668	100.39554
58900.00000	100.36818	6734.54617	100.36818
58950.00000	100.36945	6733.89610	100.36945
59000.00000	100.38571	6732.79965	100.38571
59050.00000	100.40883	6732.04645	100.40883
59100.00000	100.46809	6730.92382	100.46809
59150.00000	100.54497	6730.39423	100.54497
59200.00000	100.65113	6729.74228	100.65113
59250.00000	100.68614	6728.98428	100.68614
59300.00000	100.83546	6728.27875	100.83546
59350.00000	100.98615	6727.49738	100.98615
59400.00000	101.18162	6727.15939	101.18162
59450.00000	101.34581	6726.20587	101.34581
59500.00000	101.60547	6725.59516	101.60547
59550.00000	101.90375	6724.64450	101.90375
59600.00000	102.23484	6723.76016	102.23484
59650.00000	102.60873	6722.25665	102.60873
59700.00000	103.03052	6720.71063	103.03052
59750.00000	103.45756	6718.95729	103.45756
59800.00000	103.83684	6716.48243	103.83684
59850.00000	104.31169	6713.79763	104.31169
59900.00000	104.71619	6710.65948	104.71619
59950.00000	105.12662	6707.05787	105.12662
60000.00000	105.49737	6703.16509	105.49737
60050.00000	105.82102	6698.75732	105.82102
60100.00000	106.04257	6694.02548	106.04257
60150.00000	106.23404	6689.57854	106.23404
60200.00000	106.38249	6684.63437	106.38249
60250.00000	106.44046	6679.84497	106.44046
60300.00000	106.46448	6675.16999	106.46448
60350.00000	106.40334	6670.81702	106.40334
60400.00000	106.35486	6666.50435	106.35486
60450.00000	106.25172	6662.48211	106.25172
60500.00000	106.13250	6658.64455	106.13250
60550.00000	105.98189	6654.93308	105.98189
60600.00000	105.84251	6651.58073	105.84251
60650.00000	105.72822	6648.45251	105.72822
60700.00000	105.57442	6645.23260	105.57442
60750.00000	105.44304	6642.33702	105.44304
60800.00000	105.28280	6639.69881	105.28280
60850.00000	105.18861	6636.88258	105.18861
60900.00000	105.06569	6634.23345	105.06569
60950.00000	104.97082	6631.78257	104.97082
61000.00000	104.86152	6629.29383	104.86152
61050.00000	104.79819	6626.93574	104.79819
61100.00000	104.73539	6624.43597	104.73539
61150.00000	104.66413	6622.10689	104.66413
61200.00000	104.62571	6619.72042	104.62571
61250.00000	104.55996	6617.26026	104.55996
61300.00000	104.54486	6614.69777	104.54486
61350.00000	104.50775	6612.58509	104.50775
61400.00000	104.47329	6610.04023	104.47329
61450.00000	104.42356	6607.58132	104.42356
61500.00000	104.39171	6604.93866	104.39171
61550.00000	104.37482	6602.48469	104.37482
61600.00000	104.35908	6600.21219	104.35908
61650.00000	104.34440	6597.74150	104.34440
61700.00000	104.31292	6595.13531	104.31292
61750.00000	104.29706	6592.75414	104.29706
61800.00000	104.29515	6590.51833	104.29515
61850.00000	104.29754	6587.98831	104.29754
61900.00000	104.27956	6585.35048	104.27956
61950.00000	104.29755	6582.96778	104.29755
62000.00000	104.33408	6580.15055	104.33408
62050.00000	104.41704	6577.41035	104.41704
62100.00000	104.43968	6574.70780	104.43968
62150.00000	104.42417	6571.57563	104.42417
62200.00000	104.46874	6568.70243	104.46874
62250.00000	104.45914	6565.41773	104.45914
62300.00000	104.46434	6562.24321	104.46434
62350.00000	104.43924	6558.80254	104.43924
62400.00000	104.36959	6555.67175	104.36959
62450.00000	104.28184	6552.64237	104.28184
62500.00000	104.17904	6549.07526	104.17904
62550.00000	104.05813	6545.84858	104.05813
62600.00000	103.91206	6542.75225	103.91206
62650.00000	103.81704	6539.66412	103.81704
62700.00000	103.66865	6536.86672	103.66865
62750.00000	103.48695	6533.86937	103.48695
62800.00000	103.34167	6531.28677	103.34167
62850.00000	103.18879	6528.36178	103.18879
62900.00000	103.04887	6526.21244	103.04887
62950.00000	102.85038	6523.83964	102.85038
63000.00000	102.72525	6521.32361	102.72525
63050.00000	102.59572	6519.38153	102.59572
63100.00000	102.43706	6516.78516	102.43706
63150.00000	102.31925	6514.72601	102.31925
63200.00000	102.16565	6512.82629	102.16565
63250.00000	102.03776	6510.77455	102.03776
63300.00000	101.95678	6508.81827	101.95678
63350.00000	101.85209	6507.05304	101.85209
63400.00000	101.77850	6505.24008	101.77850
63450.00000	101.75135	6502.75156	101.75135
63500.00000	101.66705	6501.32076	101.66705
63550.00000	101.58407	6499.20296	101.58407
63600.00000	101.54517	6497.22493	101.54517
63650.00000	101.54634	6495.56227	101.54634
63700.00000	101.55711	6493.33721	101.55711
63750.00000	101.55107	6491.33200	101.55107
63800.00000	101.56743	6488.99665	101.56743
63850.00000	101.58756	6486.53663	101.58756
63900.00000	101.62412	6484.50829	101.62412
63950.00000	101.65374	6481.00865	101.65374
64000.00000	101.71438	6478.18361	101.71438
64050.00000	101.60549	6474.96757	101.60549
64100.00000	101.50314	6471.44470	101.50314
64150.00000	101.31390	6468.21649	101.31390
64200.00000	101.09651	6465.73843	101.09651
64250.00000	100.82270	6463.12760	100.82270
64300.00000	100.50828	6461.93263	100.50828
64350.00000	100.29015	6460.35101	100.29015
64400.00000	100.14429	6459.34937	100.14429
64450.00000	100.04628	6458.95295	100.04628
64500.00000	100.05693	6457.94626	100.05693
64550.00000	100.06109	6456.90657	100.06109
64600.00000	100.21885	6455.75754	100.21885
64650.00000	100.23904	6454.15770	100.23904
64700.00000	100.32113	6452.50014	100.32113
64750.00000	100.48173	6450.70705	100.48173
64800.00000	100.47565	6448.64623	100.47565
64850.00000	100.64416	6446.28119	100.64416
64900.00000	100.76525	6444.46152	100.76525
64950.00000	100.83768	6442.53392	100.83768
65000.00000	100.96462	6439.61604	100.96462
65050.00000	101.05792	6437.89927	101.05792
65100.00000	101.20741	6434.86040	101.20741
65150.00000	101.30046	6431.88451	101.30046
65200.00000	101.43296	6429.54402	101.43296
65250.00000	101.52715	6426.68190	101.52715
65300.00000	101.58647	6423.11399	101.58647
65350.00000	101.67352	6419.91559	101.67352
65400.00000	101.72964	6416.99920	101.72964
65450.00000	101.75633	6413.58050	101.75633
65500.00000	101.80049	6409.82161	101.80049
65550.00000	101.78396	6406.74903	101.78396
65600.00000	101.74795	6403.19590	101.74795
65650.00000	101.72990	6399.99161	101.72990
65700.00000	101.64881	6396.42182	101.64881
65750.00000	101.59802	6393.14671	101.59802
65800.00000	101.53065	6390.20836	101.53065
65850.00000	101.48705	6387.06583	101.48705
65900.00000	101.39978	6383.36476	101.39978
65950.00000	101.37202	6380.02984	101.37202
66000.00000	101.26068	6376.90431	101.26068
66050.00000	101.12947	6373.61991	101.12947
66100.00000	100.98470	6370.23470	100.98470
66150.00000	100.80132	6366.90892	100.80132
66200.00000	100.60894	6363.97992	100.60894
66250.00000	100.56189	6361.25550	100.56189
66300.00000	100.33485	6358.30265	100.33485
66350.00000	100.18397	6355.60488	100.18397
66400.00000	100.08591	6352.66747	100.08591
66450.00000	99.82572	6349.98739	99.82572
66500.00000	99.69068	6346.99115	99.69068
66550.00000	99.49587	6344.63725	99.49587
66600.00000	99.31652	6342.60445	99.31652
66650.00000	99.12387	6340.08074	99.12387
66700.00000	98.97133	6338.19343	98.97133
66750.00000	98.73449	6335.40303	98.73449
66800.00000	98.62591	6333.68287	98.62591
66850.00000	98.55112	6331.77723	98.55112
66900.00000	98.31748	6330.27172	98.31748
66950.00000	98.22013	6328.74863	98.22013
67000.00000	98.22113	6326.79209	98.22113
67050.00000	98.09626	6325.01644	98.09626
67100.00000	98.15316	6323.11066	98.15316
67150.00000	98.11063	6321.31644	98.11063
67200.00000	98.11743	6319.05298	98.11743
67250.00000	98.09376	6316.44662	98.09376
67300.00000	98.12366	6314.33805	98.12366
67350.00000	98.09505	6312.18790	98.09505
67400.00000	98.03124	6309.72627	98.03124
67450.00000	98.00223	6306.87301	98.00223
67500.00000	97.94608	6304.84371	97.94608
67550.00000	97.93046	6301.95370	97.93046
67600.00000	97.93352	6299.96888	97.93352
67650.00000	97.85471	6298.02358	97.85471
67700.00000	97.87563	6295.38821	97.87563
67750.00000	97.89025	6292.68490	97.89025
67800.00000	97.87346	6290.29377	97.87346
67850.00000	97.92804	6287.60571	97.92804
67900.00000	97.91629	6284.79789	97.91629
67950.00000	97.89330	6282.05002	97.89330
68000.00000	97.93099	6279.24866	97.93099
68050.00000	97.90261	6275.96971	97.90261
68100.00000	97.84183	6273.24437	97.84183
68150.00000	97.81019	6270.30109	97.81019
68200.00000	97.78324	6267.50227	97.78324
68250.00000	97.69701	6264.71203	97.69701
68300.00000	97.66528	6261.44305	97.66528
68350.00000	97.56074	6258.43078	97.56074
68400.00000	97.49552	6255.81943	97.49552
68450.00000	97.44524	6252.94011	97.44524
68500.00000	97.40075	6249.65723	97.40075
68550.00000	97.25978	6247.14652	97.25978
68600.00000	97.23060	6243.88518	97.23060
68650.00000	97.19868	6241.30176	97.19868
68700.00000	97.09006	6238.11999	97.09006
68750.00000	97.03408	6235.41015	97.03408
68800.00000	96.91627	6232.34971	96.91627
68850.00000	96.85741	6229.77976	96.85741
68900.00000	96.80952	6227.10453	96.80952
68950.00000	96.77223	6224.22364	96.77223
69000.00000	96.67101	6221.04816	96.67101
69050.00000	96.64181	6218.45928	96.64181
69100.00000	96.64305	6215.36396	96.64305
69150.00000	96.60293	6212.07191	96.60293
69200.00000	96.59592	6208.96874	96.59592
69250.00000	96.53955	6205.76838	96.53955
69300.00000	96.50927	6201.96422	96.50927
69350.00000	96.47694	6198.75944	96.47694
69400.00000	96.41177	6194.95603	96.41177
69450.00000	96.35996	6190.96808	96.35996
69500.00000	96.31578	6186.91311	96.31578
69550.00000	96.19481	6182.78449	96.19481
69600.00000	96.05045	6178.42310	96.05045
69650.00000	95.92692	6174.99877	95.92692
69700.00000	95.75245	6170.34666	95.75245
69750.00000	95.57011	6166.20475	95.57011
69800.00000	95.33416	6161.44261	95.33416
69850.00000	95.04017	6157.25550	95.04017
69900.00000	94.74852	6152.82826	94.74852
69950.00000	94.43485	6148.81711	94.43485
70000.00000	94.12198	6144.46435	94.12198
70050.00000	93.78329	6140.49070	93.78329
70100.00000	93.34514	6136.53309	93.34514
70150.00000	92.96747	6132.41704	92.96747
70200.00000	92.55425	6128.69163	92.55425
70250.00000	92.16805	6124.61131	92.16805
70300.00000	91.56449	6121.13733	91.56449
70350.00000	91.13336	6117.97578	91.13336
70400.00000	90.54284	6114.04062	90.54284
70450.00000	89.99999	6109.79993	89.99999
70500.00000	89.29545	6106.69019	89.29545
70550.00000	88.52921	6103.71868	88.52921
70600.00000	87.73459	6101.68342	87.73459
70650.00000	86.75204	6099.70681	86.75204
70700.00000	85.96399	6098.68676	85.96399
70750.00000	85.05670	6100.50414	85.05670
70800.00000	84.19599	6102.23209	84.19599
70850.00000	83.72682	6106.68941	83.72682
70900.00000	83.60813	6111.43357	83.60813
70950.00000	84.19476	6114.04394	84.19476
71000.00000	84.84600	6112.98421	84.84600
71050.00000	85.15973	6111.22436	85.15973
71100.00000	85.48705	6106.18244	85.48705
71150.00000	85.51679	6101.36468	85.51679
71200.00000	84.98650	6095.94814	84.98650
71250.00000	84.76996	6090.43817	84.76996
71300.00000	84.44134	6086.60759	84.44134
71350.00000	83.52739	6083.11451	83.52739
71400.00000	83.32050	6078.98922	83.32050
71450.00000	82.68741	6077.23386	82.68741
71500.00000	81.76290	6074.12826	81.76290
71550.00000	81.26283	6071.86807	81.26283
71600.00000	80.35519	6070.32193	80.35519
71650.00000	79.38301	6066.47098	79.38301
71700.00000	79.31045	6064.11883	79.31045
71750.00000	78.20537	6065.07499	78.20537
71800.00000	77.09937	6058.64877	77.09937
71850.00000	75.90231	6060.25108	75.90231
71900.00000	74.20548	6058.60869	74.20548
71950.00000	72.05835	6049.03348	72.05835
72000.00000	71.04042	6062.39393	71.04042
72050.00000	66.65869	6081.42585	66.65869
72100.00000	65.67338	6073.61752	65.67338
72150.00000	67.55624	6112.96543	67.55624
72200.00000	65.57799	6146.45059	65.57799
72250.00000	68.23417	6141.13967	68.23417
72300.00000	71.96838	6157.98919	71.96838
72350.00000	73.06339	6162.03069	73.06339
72400.00000	74.22379	6151.12146	74.22379
72450.00000	76.57804	6152.06365	76.57804
72500.00000	76.22993	6154.94659	76.22993
72550.00000	78.03596	6146.67333	78.03596
72600.00000	79.12530	6148.82425	79.12530
72650.00000	77.87136	6143.62465	77.87136
72700.00000	79.74206	6137.44315	79.74206
72750.00000	80.47846	6144.50727	80.47846
72800.00000	79.76590	6134.50244	79.76590
72850.00000	81.55692	6130.20472	81.55692
72900.00000	81.32966	6134.77616	81.32966
72950.00000	81.73395	6127.01329	81.73395
73000.00000	82.80593	6124.94623	82.80593
73050.00000	82.01837	6125.08405	82.01837
73100.00000	82.96105	6113.24549	82.96105
73150.00000	83.55890	6117.42717	83.55890
73200.00000	82.51242	6111.25422	82.51242
73250.00000	83.51288	6104.47533	83.51288
73300.00000	83.71032	6108.85774	83.71032
73350.00000	82.92095	6099.78941	82.92095
73400.00000	84.30935	6096.64431	84.30935
73450.00000	83.71417	6099.46932	83.71417
73500.00000	83.98179	6088.48095	83.98179
73550.00000	84.83704	6089.82559	84.83704
73600.00000	83.82458	6090.38905	83.82458
73650.00000	84.98718	6079.37502	84.98718
73700.00000	85.56605	6085.02286	85.56605
73750.00000	84.46133	6077.29009	84.46133
73800.00000	85.50033	6071.45650	85.50033
73850.00000	85.48614	6072.60554	85.48614
73900.00000	84.82363	6062.03500	84.82363
73950.00000	86.07405	6060.14228	86.07405
74000.00000	85.25535	6062.03147	85.25535
74050.00000	85.17913	6045.64767	85.17913
74100.00000	86.31503	6050.81479	86.31503
74150.00000	84.95038	6044.20717	84.95038
74200.00000	85.85560	6032.10531	85.85560
74250.00000	85.69884	6034.26727	85.69884
74300.00000	85.40076	6010.09216	85.40076
74350.00000	86.77108	6001.31536	86.77108
74400.00000	83.73375	5958.19461	83.73375
74450.00000	79.94453	5779.15962	79.94453
74500.00000	85.78696	5720.51532	85.78696
74550.00000	83.42301	5700.89175	83.42301
74600.00000	83.81302	5672.07972	83.81302
74650.00000	85.17000	5677.53927	85.17000
74700.00000	81.48306	5664.49821	81.48306
74750.00000	84.96491	5652.59699	84.96491
74800.00000	83.14347	5666.21393	83.14347
74850.00000	81.36718	5636.77274	81.36718
74900.00000	84.18852	5644.83421	84.18852
74950.00000	79.03941	5652.42877	79.03941
75000.00000	81.29619	5622.09103	81.29619
75050.00000	81.83375	5645.11642	81.83375
75100.00000	75.45118	5632.40050	75.45118
75150.00000	80.38838	5618.11792	80.38838
75200.00000	78.60511	5652.60708	78.60511
75250.00000	72.46828	5604.63386	72.46828
75300.00000	79.17417	5626.84980	79.17417
75350.00000	75.48424	5680.65414	75.48424
75400.00000	72.31209	5601.37610	72.31209
75450.00000	79.14114	5655.03311	79.14114
75500.00000	74.22584	5705.26687	74.22584
75550.00000	74.61652	5623.40780	74.61652
75600.00000	80.19891	5678.24845	80.19891
75650.00000	73.52136	5707.76446	73.52136
75700.00000	78.37818	5643.67046	78.37818
75750.00000	81.82637	5688.66759	81.82637
75800.00000	72.44696	5681.79356	72.44696
75850.00000	82.23074	5652.69706	82.23074
75900.00000	81.55004	5694.73123	81.55004
75950.00000	77.34705	5643.11066	77.34705
76000.00000	84.28968	5660.92023	84.28968
76050.00000	80.20066	5686.09548	80.20066
76100.00000	81.83734	5632.72283	81.83734
76150.00000	85.06627	5666.15304	85.06627
76200.00000	77.87834	5664.36409	77.87834
76250.00000	84.63461	5634.00038	84.63461
76300.00000	84.33667	5670.31418	84.33667
76350.00000	79.10370	5626.62220	79.10370
76400.00000	86.19817	5638.00173	86.19817
76450.00000	82.46669	5665.50686	82.46669
76500.00000	83.45683	5613.26806	83.45683
76550.00000	86.72860	5643.68021	86.72860
76600.00000	80.20018	5645.94361	80.20018
76650.00000	85.81776	5612.10637	85.81776
76700.00000	85.70191	5646.84054	85.70191
76750.00000	80.65148	5607.18430	80.65148
76800.00000	87.19552	5616.17013	87.19552
76850.00000	83.69232	5643.10771	83.69232
76900.00000	84.25397	5592.81499	84.25397
76950.00000	87.46370	5621.94116	87.46370
77000.00000	80.43204	5625.30462	80.43204
77050.00000	86.69462	5593.59224	86.69462
77100.00000	85.93226	5623.83548	85.93226
77150.00000	81.68487	5590.03257	81.68487
77200.00000	87.40312	5594.87520	87.40312
77250.00000	84.06000	5620.95756	84.06000
77300.00000	84.47393	5575.79342	84.47393
77350.00000	87.25310	5599.92043	87.25310
77400.00000	81.58096	5603.44222	81.58096
77450.00000	86.44181	5574.86070	86.44181
77500.00000	86.33824	5601.41435	86.33824
77550.00000	82.46718	5573.52623	82.46718
77600.00000	87.21484	5577.35458	87.21484
77650.00000	84.17185	5596.66367	84.17185
77700.00000	84.80792	5562.45935	84.80792
77750.00000	87.09443	5584.64041	87.09443
77800.00000	82.64778	5578.80923	82.64778
77850.00000	86.63170	5561.06580	86.63170
77900.00000	86.04720	5584.18033	86.04720
77950.00000	83.52277	5557.74796	83.52277
78000.00000	87.39896	5564.22499	87.39896
78050.00000	84.37238	5574.89658	84.37238
78100.00000	85.59735	5550.15465	85.59735
78150.00000	86.85344	5565.80809	86.85344
78200.00000	84.16677	5557.89406	84.16677
78250.00000	87.12108	5548.56541	87.12108
78300.00000	86.21858	5561.55264	86.21858
78350.00000	85.07895	5541.52285	85.07895
78400.00000	87.31598	5549.25300	87.31598
78450.00000	85.35059	5549.11805	85.35059
78500.00000	86.77321	5535.39381	86.77321
78550.00000	87.02884	5547.13885	87.02884
78600.00000	85.71603	5534.33465	85.71603
78650.00000	87.29424	5533.16129	87.29424
78700.00000	86.38960	5536.13731	86.38960
78750.00000	86.70045	5523.16737	86.70045
78800.00000	87.46487	5531.20910	87.46487
78850.00000	86.16249	5524.91997	86.16249
78900.00000	87.34382	5518.67556	87.34382
78950.00000	86.87705	5523.11116	86.87705
79000.00000	86.76459	5513.96240	86.76459
79050.00000	87.72918	5515.19392	87.72918
79100.00000	86.70481	5513.25906	86.70481
79150.00000	87.48625	5507.31497	87.48625
79200.00000	87.60804	5510.15705	87.60804
79250.00000	87.24737	5502.98352	87.24737
79300.00000	88.07488	5500.40051	88.07488
79350.00000	87.43416	5499.46920	87.43416
79400.00000	87.97593	5494.09513	87.97593
79450.00000	88.05737	5493.56928	88.05737
79500.00000	87.91639	5488.17904	87.91639
79550.00000	88.37661	5486.42268	88.37661
79600.00000	88.14213	5483.19481	88.14213
79650.00000	88.29273	5477.63046	88.29273
79700.00000	88.39654	5475.31571	88.39654
79750.00000	88.18748	5471.97710	88.18748
79800.00000	88.45436	5467.29497	88.45436
79850.00000	88.15418	5466.14511	88.15418
79900.00000	88.13545	5461.35134	88.13545
79950.00000	88.21377	5458.15878	88.21377
80000.00000	87.99626	5455.92574	87.99626
80050.00000	88.08368	5452.09402	88.08368
80100.00000	87.73035	5448.60982	87.73035
80150.00000	87.55153	5444.69938	87.55153
80200.00000	87.80946	5443.68955	87.80946
80250.00000	87.57334	5439.49771	87.57334
80300.00000	87.39762	5437.53866	87.39762
80350.00000	87.34955	5433.24231	87.34955
80400.00000	87.16593	5430.51190	87.16593
80450.00000	87.22186	5429.08527	87.22186
80500.00000	86.92085	5424.82443	86.92085
80550.00000	86.80812	5422.23083	86.80812
80600.00000	86.75926	5419.13085	86.75926
80650.00000	86.56552	5418.37255	86.56552
80700.00000	86.40654	5415.34216	86.40654
80750.00000	86.63053	5412.96160	86.63053
80800.00000	86.16630	5411.15510	86.16630
80850.00000	86.13632	5409.86055	86.13632
80900.00000	86.00052	5408.74791	86.00052
80950.00000	85.74552	5406.93221	85.74552
81000.00000	85.55130	5405.63181	85.55130
81050.00000	85.80559	5402.77304	85.80559
81100.00000	85.68344	5401.51443	85.68344
81150.00000	85.87964	5400.26711	85.87964
81200.00000	85.67147	5398.22820	85.67147
81250.00000	85.64251	5395.68006	85.64251
81300.00000	85.73993	5394.43155	85.73993
81350.00000	85.71897	5391.57663	85.71897
81400.00000	85.59487	5390.18122	85.59487
81450.00000	85.69849	5387.50550	85.69849
81500.00000	85.78800	5385.64183	85.78800
81550.00000	85.74519	5383.61519	85.74519
81600.00000	85.67915	5380.94420	85.67915
81650.00000	85.63133	5378.63379	85.63133
81700.00000	85.55662	5376.90974	85.55662
81750.00000	85.55679	5374.91988	85.55679
81800.00000	85.43530	5372.39830	85.43530
81850.00000	85.18146	5371.57185	85.18146
81900.00000	85.16228	5369.30964	85.16228
81950.00000	85.02021	5367.68996	85.02021
82000.00000	84.92624	5367.71625	84.92624
82050.00000	84.96109	5367.08943	84.96109
82100.00000	85.16751	5369.04353	85.16751
82150.00000	85.28892	5368.52834	85.28892
82200.00000	85.86936	5368.36443	85.86936
82250.00000	86.21533	5367.15127	86.21533
82300.00000	86.74886	5364.09749	86.74886
82350.00000	87.24594	5360.99687	87.24594
82400.00000	87.49571	5358.53733	87.49571
82450.00000	87.99156	5353.55963	87.99156
82500.00000	88.24020	5347.69851	88.24020
82550.00000	88.40222	5342.63836	88.40222
82600.00000	88.50653	5337.18819	88.50653
82650.00000	88.61327	5331.23875	88.61327
82700.00000	88.34104	5326.57626	88.34104
82750.00000	88.00074	5321.27518	88.00074
82800.00000	87.73577	5316.83316	87.73577
82850.00000	87.42660	5313.56300	87.42660
82900.00000	87.19830	5310.31650	87.19830
82950.00000	87.05034	5307.64314	87.05034
83000.00000	86.85619	5305.93331	86.85619
83050.00000	86.73902	5304.69071	86.73902
83100.00000	86.94733	5303.96851	86.94733
83150.00000	87.02472	5302.93783	87.02472
83200.00000	87.16663	5302.16670	87.16663
83250.00000	87.35376	5301.21134	87.35376
83300.00000	87.65489	5299.68687	87.65489
83350.00000	87.75110	5299.25513	87.75110
83400.00000	88.05042	5296.96435	88.05042
83450.00000	88.35494	5296.07808	88.35494
83500.00000	88.53418	5293.14726	88.53418
83550.00000	88.83335	5291.32712	88.83335
83600.00000	89.18566	5288.78759	89.18566
83650.00000	89.33241	5285.73252	89.33241
83700.00000	89.65403	5283.67393	89.65403
83750.00000	89.99994	5279.79314	89.99994
83800.00000	90.28216	5276.28592	90.28216
83850.00000	90.51576	5273.24514	90.51576
83900.00000	90.73966	5268.79629	90.73966
83950.00000	91.08203	5264.64544	91.08203
84000.00000	91.35599	5259.77320	91.35599
84050.00000	91.46456	5256.19978	91.46456
84100.00000	91.63508	5251.03109	91.63508
84150.00000	91.77973	5246.08590	91.77973
84200.00000	91.93512	5242.06728	91.93512
84250.00000	92.06886	5237.08015	92.06886
84300.00000	92.18249	5231.96499	92.18249
84350.00000	92.32519	5226.80573	92.32519
84400.00000	92.39855	5222.04127	92.39855
84450.00000	92.47344	5216.62945	92.47344
84500.00000	92.53957	5211.30389	92.53957
84550.00000	92.50356	5206.10080	92.50356
84600.00000	92.50273	5200.71550	92.50273
84650.00000	92.53795	5195.43749	92.53795
84700.00000	92.52218	5189.81033	92.52218
84750.00000	92.45053	5184.68610	92.45053
84800.00000	92.35080	5178.79678	92.35080
84850.00000	92.25754	5173.29008	92.25754
84900.00000	92.23936	5167.64909	92.23936
84950.00000	92.14579	5162.21409	92.14579
85000.00000	92.01995	5156.08610	92.01995
85050.00000	91.91226	5150.76446	91.91226
85100.00000	91.82182	5144.73941	91.82182
85150.00000	91.60785	5138.80707	91.60785
85200.00000	91.39632	5132.82090	91.39632
85250.00000	91.72590	5126.24333	91.72590
85300.00000	91.05454	5121.14535	91.05454
85350.00000	90.76597	5114.31098	90.76597
85400.00000	90.58802	5109.08948	90.58802
85450.00000	90.25041	5102.03443	90.25041
85500.00000	89.94051	5095.49535	89.94051
85550.00000	89.60459	5089.88587	89.60459
85600.00000	89.28472	5083.51734	89.28472
85650.00000	88.91572	5077.50066	88.91572
85700.00000	88.44208	5070.01933	88.44208
85750.00000	88.08134	5064.78294	88.08134
85800.00000	87.79374	5059.89515	87.79374
85850.00000	87.18209	5052.30970	87.18209
85900.00000	86.74975	5045.41992	86.74975
85950.00000	86.42834	5039.99982	86.42834
86000.00000	85.99343	5034.81380	85.99343
86050.00000	85.50422	5027.67143	85.50422
86100.00000	85.28337	5023.16493	85.28337
86150.00000	84.80898	5014.87371	84.80898
86200.00000	84.41026	5009.17596	84.41026
86250.00000	84.05193	5003.02451	84.05193
86300.00000	83.28274	4995.20803	83.28274
86350.00000	83.04334	4987.02738	83.04334
86400.00000	81.74681	4978.09406	81.74681
86450.00000	81.34189	4974.62192	81.34189
86500.00000	80.56123	4970.48685	80.56123
86550.00000	80.12877	4961.45545	80.12877
86600.00000	79.66495	4956.47523	79.66495
86650.00000	79.22267	4950.67460	79.22267
86700.00000	78.79421	4946.92587	78.79421
86750.00000	78.64975	4941.17820	78.64975
86800.00000	78.23349	4934.03805	78.23349
86850.00000	77.72690	4926.98073	77.72690
86900.00000	77.41566	4924.28601	77.41566
86950.00000	77.37565	4917.78943	77.37565
87000.00000	77.39588	4912.03244	77.39588
87050.00000	76.79363	4905.46377	76.79363
87100.00000	76.90079	4900.19167	76.90079
87150.00000	76.53265	4894.31078	76.53265
87200.00000	76.61254	4890.09095	76.61254
87250.00000	76.54861	4883.35203	76.54861
87300.00000	75.98933	4877.35164	75.98933
87350.00000	76.20812	4874.10103	76.20812
87400.00000	76.42084	4866.28537	76.42084
87450.00000	75.67333	4863.42427	75.67333
87500.00000	75.93054	4858.78015	75.93054
87550.00000	75.66346	4854.10715	75.66346
87600.00000	76.06136	4848.42146	76.06136
87650.00000	75.58434	4844.77686	75.58434
87700.00000	75.52262	4839.77293	75.52262
87750.00000	75.30255	4836.80505	75.30255
87800.00000	75.71218	4836.09824	75.71218
87850.00000	75.27130	4828.49959	75.27130
87900.00000	74.45047	4827.88968	74.45047
87950.00000	74.85820	4827.70692	74.85820
88000.00000	75.12891	4822.17412	75.12891
88050.00000	74.67445	4820.89744	74.67445
88100.00000	75.29145	4818.26807	75.29145
88150.00000	75.20949	4815.32925	75.20949
88200.00000	75.33367	4815.53749	75.33367
88250.00000	75.52136	4812.40799	75.52136
88300.00000	75.43535	4811.23051	75.43535
88350.00000	75.82611	4807.21333	75.82611
88400.00000	76.28220	4806.66444	76.28220
88450.00000	76.66428	4803.64103	76.66428
88500.00000	76.79947	4801.48503	76.79947
88550.00000	77.30660	4797.87673	77.30660
88600.00000	77.35063	4792.76105	77.35063
88650.00000	77.68125	4790.21771	77.68125
88700.00000	77.81188	4785.51216	77.81188
88750.00000	78.24736	4784.28621	78.24736
88800.00000	78.74265	4779.27831	78.74265
88850.00000	78.71167	4773.74662	78.71167
88900.00000	79.20592	4770.18606	79.20592
88950.00000	78.98403	4765.39846	78.98403
89000.00000	79.01414	4762.58923	79.01414
89050.00000	78.93594	4754.36688	78.93594
89100.00000	79.26967	4752.79041	79.26967
89150.00000	78.73300	4746.94455	78.73300
89200.00000	78.73285	4743.68697	78.73285
89250.00000	78.53003	4738.24481	78.53003
89300.00000	78.53505	4735.26262	78.53505
89350.00000	78.38820	4730.13645	78.38820
89400.00000	78.02821	4727.54813	78.02821
89450.00000	78.15962	4724.88157	78.15962
89500.00000	78.01690	4721.62933	78.01690
89550.00000	77.37749	4721.02450	77.37749
89600.00000	77.25323	4717.22137	77.25323
89650.00000	77.30302	4714.28087	77.30302
89700.00000	76.70062	4716.58927	76.70062
89750.00000	76.70984	4713.06127	76.70984
89800.00000	76.35308	4715.53141	76.35308
89850.00000	76.23075	4712.03385	76.23075
89900.00000	76.17127	4712.46985	76.17127
89950.00000	76.49091	4716.75545	76.49091
90000.00000	76.47010	4723.54073	76.47010
90050.00000	76.93932	4730.87471	76.93932
90100.00000	79.42601	4729.83202	79.42601
90150.00000	80.84318	4730.33756	80.84318
90200.00000	83.35092	4723.81487	83.35092
90250.00000	84.90758	4701.47354	84.90758
90300.00000	84.75070	4681.83821	84.75070
90350.00000	83.52535	4669.89394	83.52535
90400.00000	82.86250	4667.02676	82.86250
90450.00000	82.38575	4663.05372	82.38575
90500.00000	81.67654	4659.53206	81.67654
90550.00000	81.45389	4654.12471	81.45389
90600.00000	81.04958	4652.92414	81.04958
90650.00000	81.26841	4650.39564	81.26841
90700.00000	81.13513	4645.22055	81.13513
90750.00000	81.11717	4646.00437	81.11717
90800.00000	81.06462	4640.41946	81.06462
90850.00000	81.37731	4638.68888	81.37731
90900.00000	81.47378	4633.89975	81.47378
90950.00000	81.42728	4630.81928	81.42728
91000.00000	81.24491	4627.15554	81.24491
91050.00000	81.43966	4622.28340	81.43966
91100.00000	81.56082	4618.27836	81.56082
91150.00000	81.39242	4615.16932	81.39242
91200.00000	81.44088	4609.99753	81.44088
91250.00000	81.77433	4605.26085	81.77433
91300.00000	81.29200	4602.18291	81.29200
91350.00000	81.26581	4598.17638	81.26581
91400.00000	81.10976	4593.53728	81.10976
91450.00000	81.09941	4591.53443	81.09941
91500.00000	81.11401	4583.78730	81.11401
91550.00000	80.62044	4582.32126	80.62044
91600.00000	80.66610	4578.65803	80.66610
91650.00000	80.67954	4576.11792	80.67954
91700.00000	80.41919	4570.01908	80.41919
91750.00000	80.22346	4567.23546	80.22346
91800.00000	80.14999	4563.66435	80.14999
91850.00000	80.08326	4560.50007	80.08326
91900.00000	80.22862	4556.43671	80.22862
91950.00000	79.83973	4553.50970	79.83973
92000.00000	80.01317	4550.70232	80.01317
92050.00000	79.48554	4544.95372	79.48554
92100.00000	79.53370	4543.08342	79.53370
92150.00000	79.40332	4539.31637	79.40332
92200.00000	79.38832	4534.89940	79.38832
92250.00000	79.41233	4531.29216	79.41233
92300.00000	79.35014	4530.38605	79.35014
92350.00000	79.17647	4524.65114	79.17647
92400.00000	79.12806	4520.86925	79.12806
92450.00000	78.55463	4517.70505	78.55463
92500.00000	78.88850	4512.93945	78.88850
92550.00000	78.64917	4510.52250	78.64917
92600.00000	78.51483	4505.25065	78.51483
92650.00000	78.50115	4500.27829	78.50115
92700.00000	78.29569	4495.69743	78.29569
92750.00000	78.01924	4490.95358	78.01924
92800.00000	77.98756	4487.56856	77.98756
92850.00000	77.85826	4483.10911	77.85826
92900.00000	77.60544	4476.53815	77.60544
92950.00000	77.67213	4473.50203	77.67213
93000.00000	76.92890	4465.51166	76.92890
93050.00000	77.25312	4460.37583	77.25312
93100.00000	76.63125	4454.06353	76.63125
93150.00000	76.81891	4450.30336	76.81891
93200.00000	76.33592	4441.94570	76.33592
93250.00000	76.01831	4438.17935	76.01831
93300.00000	76.34086	4430.42213	76.34086
93350.00000	75.36862	4422.89824	75.36862
93400.00000	75.30724	4418.42154	75.30724
93450.00000	74.72899	4411.51714	74.72899
93500.00000	74.28093	4403.22947	74.28093
93550.00000	74.41397	4391.42047	74.41397
93600.00000	73.79278	4386.05658	73.79278
93650.00000	74.17090	4377.90579	74.17090
93700.00000	73.49449	4369.66564	73.49449
93750.00000	73.08881	4360.41057	73.08881
93800.00000	73.16667	4348.80033	73.16667
93850.00000	72.81899	4342.40092	72.81899
93900.00000	72.34304	4329.97376	72.34304
93950.00000	71.88260	4326.95435	71.88260
94000.00000	71.95330	4312.98648	71.95330
94050.00000	72.59641	4306.91988	72.59641
94100.00000	72.45483	4296.24077	72.45483
94150.00000	72.11083	4290.13431	72.11083
94200.00000	71.54042	4280.95294	71.54042
94250.00000	71.80227	4271.29668	71.80227
94300.00000	71.58693	4266.67099	71.58693
94350.00000	71.26702	4257.31608	71.26702
94400.00000	71.08581	4251.58618	71.08581
94450.00000	71.83619	4242.80857	71.83619
94500.00000	71.39181	4237.04143	71.39181
94550.00000	71.39015	4232.04558	71.39015
94600.00000	70.12920	4220.28037	70.12920
94650.00000	70.57589	4221.57947	70.57589
94700.00000	71.57589	4210.72954	71.57589
94750.00000	71.42499	4210.89665	71.42499
94800.00000	70.69890	4208.05817	70.69890
94850.00000	71.15476	4196.90886	71.15476
94900.00000	71.27668	4191.75921	71.27668
94950.00000	71.32148	4190.84505	71.32148
95000.00000	71.75895	4181.66410	71.75895
95050.00000	70.89775	4176.64545	70.89775
95100.00000	71.94309	4172.64791	71.94309
95150.00000	71.60901	4164.34412	71.60901
95200.00000	71.81653	4155.88845	71.81653
95250.00000	71.52794	4154.05066	71.52794
95300.00000	71.23730	4146.58925	71.23730
95350.00000	71.14757	4137.70302	71.14757
95400.00000	71.19386	4133.71965	71.19386
95450.00000	70.99811	4135.19143	70.99811
95500.00000	70.72292	4129.74834	70.72292
95550.00000	70.84387	4128.28246	70.84387
95600.00000	71.76792	4120.84065	71.76792
95650.00000	70.15155	4117.35530	70.15155
95700.00000	69.64601	4112.83360	69.64601
95750.00000	69.99805	4106.19998	69.99805
95800.00000	70.26466	4106.20793	70.26466
95850.00000	70.23874	4104.20535	70.23874
95900.00000	70.44018	4104.64579	70.44018
95950.00000	70.27571	4101.87737	70.27571
96000.00000	71.32439	4090.43937	71.32439
96050.00000	71.58069	4099.62256	71.58069
96100.00000	72.62137	4085.97505	72.62137
96150.00000	71.66647	4080.78848	71.66647
96200.00000	73.93732	4080.68612	73.93732
96250.00000	72.57411	4067.55004	72.57411
96300.00000	72.80577	4065.85938	72.80577
96350.00000	73.09606	4058.42658	73.09606
96400.00000	72.86796	4056.71717	72.86796
96450.00000	72.48630	4064.64669	72.48630
96500.00000	73.38751	4050.65611	73.38751
96550.00000	72.57032	4050.09259	72.57032
96600.00000	73.62399	4039.71853	73.62399
96650.00000	73.34060	4035.47839	73.34060
96700.00000	73.40745	4034.68149	73.40745
96750.00000	74.05832	4045.47613	74.05832
96800.00000	73.38895	4038.35888	73.38895
96850.00000	74.50100	4027.70422	74.50100
96900.00000	76.34481	4015.42482	76.34481
96950.00000	76.30428	4014.93505	76.30428
97000.00000	76.93821	4000.86635	76.93821
97050.00000	74.93087	4021.43594	74.93087
97100.00000	75.99217	4010.42946	75.99217
97150.00000	79.53684	3991.35021	79.53684
97200.00000	78.56805	3993.79150	78.56805
97250.00000	77.69453	3959.29848	77.69453
97300.00000	78.80151	3954.41281	78.80151
97350.00000	75.91261	3935.27163	75.91261
97400.00000	73.51496	3916.84441	73.51496
97450.00000	69.17531	3942.44267	69.17531
97500.00000	69.62043	3930.64448	69.62043
97550.00000	68.21417	3947.82947	68.21417
97600.00000	69.66604	3955.13249	69.66604
97650.00000	66.92968	3941.42141	66.92968
97700.00000	69.93070	3945.38578	69.93070
97750.00000	66.99229	3943.44740	66.99229
97800.00000	66.58171	3949.88985	66.58171
97850.00000	68.47741	3950.00090	68.47741
97900.00000	68.68868	3948.43396	68.68868
97950.00000	64.28806	3950.71312	64.28806
98000.00000	65.74798	3930.10387	65.74798
98050.00000	66.13424	3960.55119	66.13424
98100.00000	64.36526	3944.85632	64.36526
98150.00000	66.18338	3962.03399	66.18338
98200.00000	64.56637	3930.40167	64.56637
98250.00000	67.87367	3940.09653	67.87367
98300.00000	63.25762	3945.47222	63.25762
98350.00000	65.12599	3934.60781	65.12599
98400.00000	64.52047	3948.90988	64.52047
98450.00000	63.21759	3943.64692	63.21759
98500.00000	61.49299	3954.54871	61.49299
98550.00000	62.58505	3927.98301	62.58505
98600.00000	63.38099	3927.99831	63.38099
98650.00000	63.12627	3942.47590	63.12627
98700.00000	62.83793	3933.85860	62.83793
98750.00000	61.84254	3955.55807	61.84254
98800.00000	61.24513	3918.55638	61.24513
98850.00000	61.67578	3953.15881	61.67578
98900.00000	61.32696	3934.53892	61.32696
98950.00000	62.92013	3918.38976	62.92013
99000.00000	58.04716	3882.38290	58.04716
99050.00000	60.88047	3911.70282	60.88047
99100.00000	59.43138	3899.65347	59.43138
99150.00000	57.35094	3924.91303	57.35094
99200.00000	56.66855	3895.37999	56.66855
99250.00000	57.28217	3914.45641	57.28217
99300.00000	50.22493	3894.96884	50.22493
99350.00000	57.98686	3877.87608	57.98686
99400.00000	49.20103	3850.42701	49.20103
99450.00000	54.81791	3929.77226	54.81791
99500.00000	55.30020	3889.69196	55.30020
99550.00000	53.32736	3907.16728	53.32736
99600.00000	43.11067	3757.02720	43.11067
99650.00000	55.79955	3849.28633	55.79955
99700.00000	48.78172	3899.71231	48.78172
99750.00000	46.74101	3806.27535	46.74101
99800.00000	52.62335	3842.65513	52.62335
99850.00000	44.16168	3773.93677	44.16168
99900.00000	51.43417	3770.35305	51.43417
99950.00000	54.41116	3841.01209	54.41116
