---ACOUSTIC CALIBRATION---
Filename: C:\Data\CL0809 DATA\CL0809300\RightPrimary.calib
Date: 8/9/2019 11:49:09 AM
Format: 4
Probe Tube Correction File: C:\Data\Probe Tube Calibrations\74_ProbeTube.calib
Experiment VIs: 2128
EPL_CFTS.exe V15.0.1f5 (2015)
DAQmx V15.1

Attenuation (dB): 40.000000
Min Freq (Hz): 50.000000
Max Freq (Hz): 99950.000000
Freq Step (Hz): 50.000000
Sample Rate (Hz): 200000.000000
[Smoothing]
Method=None
MA.Iterations=0
MA.Length=0
Loess.Length=0
Loess.Type=Linear
Loess.Robust=FALSE


Freq(Hz)	Mag(dB)	Phase(deg)	Unsmoothed(dB)

50.00000	96.61906	339.79386	96.61906
100.00000	68.44748	286.34268	68.44748
150.00000	63.55556	415.94605	63.55556
200.00000	54.52536	512.83144	54.52536
250.00000	46.99199	786.79723	46.99199
300.00000	61.87011	873.72493	61.87011
350.00000	57.58466	981.07405	57.58466
400.00000	49.12296	1090.25164	49.12296
450.00000	56.90479	1133.90179	56.90479
500.00000	55.83866	1196.72113	55.83866
550.00000	64.27755	1193.13384	64.27755
600.00000	65.24509	1139.56046	65.24509
650.00000	68.79185	1133.61298	68.79185
700.00000	72.21079	1132.31155	72.21079
750.00000	75.33103	1092.25451	75.33103
800.00000	76.30286	1088.60431	76.30286
850.00000	75.35938	1080.14011	75.35938
900.00000	75.42440	1086.08426	75.42440
950.00000	79.17730	1085.18919	79.17730
1000.00000	81.02571	1089.95530	81.02571
1050.00000	84.05370	1080.99134	84.05370
1100.00000	86.84618	1067.30913	86.84618
1150.00000	88.15762	1052.25215	88.15762
1200.00000	89.14616	1039.73454	89.14616
1250.00000	89.53374	1027.97245	89.53374
1300.00000	90.20464	1023.43642	90.20464
1350.00000	91.82868	1014.46336	91.82868
1400.00000	92.63396	1001.19085	92.63396
1450.00000	92.68712	989.42250	92.68712
1500.00000	92.69711	980.72131	92.69711
1550.00000	92.68494	974.18435	92.68494
1600.00000	93.25148	971.40672	93.25148
1650.00000	93.95151	967.81546	93.95151
1700.00000	97.76492	952.43686	97.76492
1750.00000	94.85514	932.46996	94.85514
1800.00000	94.43480	926.57644	94.43480
1850.00000	94.02611	919.50736	94.02611
1900.00000	93.79137	914.31799	93.79137
1950.00000	93.33048	910.39467	93.33048
2000.00000	93.13159	907.57882	93.13159
2050.00000	93.41443	905.76480	93.41443
2100.00000	93.96832	899.97408	93.96832
2150.00000	94.35361	891.40195	94.35361
2200.00000	94.09709	880.08538	94.09709
2250.00000	93.09846	874.22954	93.09846
2300.00000	92.73131	873.28349	92.73131
2350.00000	92.82702	867.99997	92.82702
2400.00000	92.87152	862.21007	92.87152
2450.00000	92.37695	854.38381	92.37695
2500.00000	91.48018	851.14962	91.48018
2550.00000	91.25275	847.46568	91.25275
2600.00000	90.73063	843.77332	90.73063
2650.00000	90.24840	841.33708	90.24840
2700.00000	89.75862	837.40847	89.75862
2750.00000	89.14297	835.52600	89.14297
2800.00000	88.70728	832.89044	88.70728
2850.00000	88.16987	831.55703	88.16987
2900.00000	87.84352	830.70605	87.84352
2950.00000	87.63567	829.84392	87.63567
3000.00000	87.35189	829.06251	87.35189
3050.00000	87.15783	826.45564	87.15783
3100.00000	86.84371	824.54447	86.84371
3150.00000	86.31699	822.20857	86.31699
3200.00000	85.85123	819.73957	85.85123
3250.00000	85.53343	819.33220	85.53343
3300.00000	84.85725	818.23998	84.85725
3350.00000	84.62649	818.54201	84.62649
3400.00000	84.15914	817.98622	84.15914
3450.00000	83.70730	817.68968	83.70730
3500.00000	83.20338	817.69046	83.20338
3550.00000	82.94469	815.92199	82.94469
3600.00000	81.75666	813.83744	81.75666
3650.00000	80.55993	817.67183	80.55993
3700.00000	79.19387	821.21805	79.19387
3750.00000	77.96092	829.88355	77.96092
3800.00000	77.41888	842.58508	77.41888
3850.00000	77.39896	851.89440	77.39896
3900.00000	77.99380	861.59969	77.99380
3950.00000	78.15453	873.10039	78.15453
4000.00000	78.84737	889.03503	78.84737
4050.00000	80.59635	897.37498	80.59635
4100.00000	82.58055	903.32482	82.58055
4150.00000	85.21167	904.51007	85.21167
4200.00000	86.99757	904.93175	86.99757
4250.00000	87.88112	896.65855	87.88112
4300.00000	88.79678	898.04818	88.79678
4350.00000	90.05187	898.76663	90.05187
4400.00000	91.65316	896.68158	91.65316
4450.00000	92.85850	890.70822	92.85850
4500.00000	93.83005	885.50763	93.83005
4550.00000	94.38490	880.89763	94.38490
4600.00000	94.92078	877.34573	94.92078
4650.00000	95.55118	876.26579	95.55118
4700.00000	96.42961	875.28078	96.42961
4750.00000	97.46379	873.46191	97.46379
4800.00000	98.57420	870.94003	98.57420
4850.00000	99.71545	867.46767	99.71545
4900.00000	100.89288	862.86909	100.89288
4950.00000	102.10129	858.04823	102.10129
5000.00000	103.35124	852.37394	103.35124
5050.00000	104.71803	845.94345	104.71803
5100.00000	106.27869	838.23494	106.27869
5150.00000	108.16300	828.03954	108.16300
5200.00000	110.54524	811.71021	110.54524
5250.00000	112.79095	779.29162	112.79095
5300.00000	110.78708	732.17752	110.78708
5350.00000	104.90836	709.66253	104.90836
5400.00000	99.68799	713.45024	99.68799
5450.00000	97.18690	726.07816	97.18690
5500.00000	95.30207	732.48242	95.30207
5550.00000	92.98573	747.85233	92.98573
5600.00000	93.12069	772.00286	93.12069
5650.00000	95.24241	785.07213	95.24241
5700.00000	97.32108	786.69982	97.32108
5750.00000	98.78839	783.11762	98.78839
5800.00000	99.54096	778.40334	99.54096
5850.00000	99.84199	774.61865	99.84199
5900.00000	100.01593	772.70862	100.01593
5950.00000	100.30566	772.42548	100.30566
6000.00000	100.77425	772.39698	100.77425
6050.00000	101.37070	772.09611	101.37070
6100.00000	102.05490	771.37256	102.05490
6150.00000	102.77629	770.07093	102.77629
6200.00000	103.57233	768.51743	103.57233
6250.00000	104.43440	766.41480	104.43440
6300.00000	105.37464	763.62350	105.37464
6350.00000	106.37098	760.14394	106.37098
6400.00000	107.41458	755.61996	107.41458
6450.00000	108.45518	749.73875	108.45518
6500.00000	109.40849	742.71139	109.40849
6550.00000	110.29116	734.76651	110.29116
6600.00000	111.04892	725.96944	111.04892
6650.00000	111.68184	716.45326	111.68184
6700.00000	112.17334	706.05633	112.17334
6750.00000	112.43844	695.11228	112.43844
6800.00000	112.45762	683.99392	112.45762
6850.00000	112.21179	673.42541	112.21179
6900.00000	111.78914	663.78871	111.78914
6950.00000	111.24240	655.37235	111.24240
7000.00000	110.64599	648.12158	110.64599
7050.00000	110.05992	641.90657	110.05992
7100.00000	109.50967	636.57780	109.50967
7150.00000	109.03610	631.58746	109.03610
7200.00000	108.58331	626.77290	108.58331
7250.00000	108.14719	622.13472	108.14719
7300.00000	107.72566	617.74243	107.72566
7350.00000	107.32372	613.36110	107.32372
7400.00000	106.91019	609.14861	106.91019
7450.00000	106.47394	605.18216	106.47394
7500.00000	106.06135	601.26923	106.06135
7550.00000	105.62420	597.39336	105.62420
7600.00000	105.17464	593.76768	105.17464
7650.00000	104.71706	590.48976	104.71706
7700.00000	104.25538	587.39503	104.25538
7750.00000	103.78354	584.70071	103.78354
7800.00000	103.36719	582.26504	103.36719
7850.00000	102.95874	579.93728	102.95874
7900.00000	102.59235	577.59185	102.59235
7950.00000	102.19116	575.59536	102.19116
8000.00000	101.82109	573.89892	101.82109
8050.00000	101.48074	572.27443	101.48074
8100.00000	101.15875	570.78646	101.15875
8150.00000	100.90711	569.50606	100.90711
8200.00000	100.64697	568.09810	100.64697
8250.00000	100.41558	566.76951	100.41558
8300.00000	100.22869	565.19712	100.22869
8350.00000	100.02151	563.72515	100.02151
8400.00000	99.81433	562.36983	99.81433
8450.00000	99.60830	561.20451	99.60830
8500.00000	99.46901	560.08755	99.46901
8550.00000	99.35449	558.67936	99.35449
8600.00000	99.25504	557.38520	99.25504
8650.00000	99.12234	556.30284	99.12234
8700.00000	99.04906	555.16315	99.04906
8750.00000	98.98021	553.77449	98.98021
8800.00000	98.94240	552.47356	98.94240
8850.00000	98.92927	551.31941	98.92927
8900.00000	98.85779	549.95004	98.85779
8950.00000	98.88510	548.66403	98.88510
9000.00000	98.88675	547.23892	98.88675
9050.00000	98.89678	546.01440	98.89678
9100.00000	98.95954	544.72009	98.95954
9150.00000	99.05575	543.00388	99.05575
9200.00000	99.13707	541.19539	99.13707
9250.00000	99.16803	539.55574	99.16803
9300.00000	99.32523	537.56418	99.32523
9350.00000	99.40386	535.39974	99.40386
9400.00000	99.49370	533.32735	99.49370
9450.00000	99.65461	531.14523	99.65461
9500.00000	99.76282	528.40883	99.76282
9550.00000	99.84147	525.83241	99.84147
9600.00000	99.93434	523.53975	99.93434
9650.00000	100.07001	520.91542	100.07001
9700.00000	100.15262	517.98224	100.15262
9750.00000	100.22568	514.62880	100.22568
9800.00000	100.17064	511.51693	100.17064
9850.00000	100.04866	508.75061	100.04866
9900.00000	99.91563	506.70107	99.91563
9950.00000	99.67605	506.04415	99.67605
10000.00000	99.81401	507.64696	99.81401
10050.00000	100.54782	508.36469	100.54782
10100.00000	101.33658	504.16847	101.33658
10150.00000	101.73002	498.74292	101.73002
10200.00000	101.97390	493.57024	101.97390
10250.00000	102.07943	488.71789	102.07943
10300.00000	102.17046	484.08828	102.17046
10350.00000	102.23784	479.76572	102.23784
10400.00000	102.25341	475.24698	102.25341
10450.00000	102.32536	470.63366	102.32536
10500.00000	102.36251	466.01462	102.36251
10550.00000	102.36180	461.56695	102.36180
10600.00000	102.40370	456.60969	102.40370
10650.00000	102.34478	452.01435	102.34478
10700.00000	102.31811	447.14390	102.31811
10750.00000	102.24511	442.71841	102.24511
10800.00000	102.22983	437.87819	102.22983
10850.00000	102.19767	432.96952	102.19767
10900.00000	102.13736	428.16235	102.13736
10950.00000	101.98647	423.03461	101.98647
11000.00000	101.90427	418.34235	101.90427
11050.00000	101.73568	413.20648	101.73568
11100.00000	101.57451	408.39643	101.57451
11150.00000	101.40133	403.45928	101.40133
11200.00000	101.21351	398.22256	101.21351
11250.00000	100.92102	392.77238	100.92102
11300.00000	100.63089	387.72519	100.63089
11350.00000	100.33445	382.46180	100.33445
11400.00000	99.92406	377.19782	99.92406
11450.00000	99.54305	372.08578	99.54305
11500.00000	99.16502	366.98378	99.16502
11550.00000	98.72618	361.88624	98.72618
11600.00000	98.25939	357.01309	98.25939
11650.00000	97.83227	352.36382	97.83227
11700.00000	97.36544	347.61813	97.36544
11750.00000	96.89036	343.44973	96.89036
11800.00000	96.44804	339.17907	96.44804
11850.00000	96.06518	334.77968	96.06518
11900.00000	95.55031	330.83697	95.55031
11950.00000	95.14953	326.64515	95.14953
12000.00000	94.65631	323.08233	94.65631
12050.00000	94.20452	319.55037	94.20452
12100.00000	93.67799	315.87460	93.67799
12150.00000	93.18607	311.91486	93.18607
12200.00000	92.71181	307.48647	92.71181
12250.00000	92.09397	303.69263	92.09397
12300.00000	91.36476	299.73808	91.36476
12350.00000	90.88093	296.21380	90.88093
12400.00000	90.23808	291.85241	90.23808
12450.00000	89.76855	288.02112	89.76855
12500.00000	89.29388	284.20254	89.29388
12550.00000	88.72874	279.98240	88.72874
12600.00000	88.28194	274.17365	88.28194
12650.00000	87.78455	270.44486	87.78455
12700.00000	87.22584	265.58884	87.22584
12750.00000	86.74680	261.33087	86.74680
12800.00000	86.32096	256.51681	86.32096
12850.00000	85.79278	250.78468	85.79278
12900.00000	85.29792	244.99552	85.29792
12950.00000	85.10995	238.36474	85.10995
13000.00000	84.67688	232.76397	84.67688
13050.00000	84.15269	226.16764	84.15269
13100.00000	83.94995	218.83687	83.94995
13150.00000	84.15890	212.58771	84.15890
13200.00000	84.18119	202.67301	84.18119
13250.00000	84.54620	192.24746	84.54620
13300.00000	85.29936	186.93126	85.29936
13350.00000	86.31296	181.04259	86.31296
13400.00000	87.62351	179.88318	87.62351
13450.00000	88.32112	185.63290	88.32112
13500.00000	88.16337	194.12861	88.16337
13550.00000	87.16385	198.01999	87.16385
13600.00000	85.70485	196.78841	85.70485
13650.00000	84.41250	190.89494	84.41250
13700.00000	83.56401	181.97957	83.56401
13750.00000	82.90204	171.71531	82.90204
13800.00000	83.09990	158.87998	83.09990
13850.00000	83.40238	147.35459	83.40238
13900.00000	83.90117	134.58581	83.90117
13950.00000	85.18763	124.85893	85.18763
14000.00000	86.65062	115.86087	86.65062
14050.00000	88.78612	113.10940	88.78612
14100.00000	91.02714	113.90835	91.02714
14150.00000	92.95986	124.02276	92.95986
14200.00000	93.18004	136.59755	93.18004
14250.00000	92.30344	145.07312	92.30344
14300.00000	90.99180	146.02296	90.99180
14350.00000	89.96197	141.19397	89.96197
14400.00000	89.24174	136.76965	89.24174
14450.00000	88.85896	129.75000	88.85896
14500.00000	88.71428	122.47071	88.71428
14550.00000	88.80415	113.85700	88.80415
14600.00000	89.26987	108.33436	89.26987
14650.00000	90.03869	101.42815	90.03869
14700.00000	90.89893	93.77097	90.89893
14750.00000	91.96928	88.29665	91.96928
14800.00000	93.11301	84.43748	93.11301
14850.00000	94.22228	82.05085	94.22228
14900.00000	95.48463	81.80625	95.48463
14950.00000	96.22226	84.69826	96.22226
15000.00000	96.58350	86.80344	96.58350
15050.00000	96.71148	89.01977	96.71148
15100.00000	96.53965	87.76659	96.53965
15150.00000	96.25981	85.24339	96.25981
15200.00000	96.28046	80.75802	96.28046
15250.00000	96.02657	75.84809	96.02657
15300.00000	96.17394	70.00430	96.17394
15350.00000	96.40669	64.11509	96.40669
15400.00000	96.71429	58.20829	96.71429
15450.00000	97.15841	52.67261	97.15841
15500.00000	97.76954	47.58597	97.76954
15550.00000	98.47412	43.59681	98.47412
15600.00000	99.19872	39.76060	99.19872
15650.00000	99.82898	37.33286	99.82898
15700.00000	100.13056	35.88435	100.13056
15750.00000	100.46409	34.33228	100.46409
15800.00000	100.58376	33.10744	100.58376
15850.00000	100.69895	31.11170	100.69895
15900.00000	100.71618	27.83089	100.71618
15950.00000	100.71510	23.61658	100.71510
16000.00000	100.77877	19.09658	100.77877
16050.00000	100.99103	14.10599	100.99103
16100.00000	101.05099	 9.64801	101.05099
16150.00000	101.34327	 4.61035	101.34327
16200.00000	101.66038	 0.13087	101.66038
16250.00000	101.98001	-4.79643	101.98001
16300.00000	102.31867	-8.65021	102.31867
16350.00000	102.61479	-12.11037	102.61479
16400.00000	102.78646	-15.52978	102.78646
16450.00000	102.97255	-18.02950	102.97255
16500.00000	103.05457	-21.44249	103.05457
16550.00000	103.03661	-24.55539	103.03661
16600.00000	103.07777	-27.89803	103.07777
16650.00000	103.02430	-31.70756	103.02430
16700.00000	103.06836	-35.51406	103.06836
16750.00000	103.12771	-39.77674	103.12771
16800.00000	103.17768	-43.49933	103.17768
16850.00000	103.31993	-47.88510	103.31993
16900.00000	103.39942	-51.57971	103.39942
16950.00000	103.48113	-55.23015	103.48113
17000.00000	103.56556	-58.61012	103.56556
17050.00000	103.64773	-61.65285	103.64773
17100.00000	103.63041	-64.42378	103.63041
17150.00000	103.67741	-67.16250	103.67741
17200.00000	103.63075	-70.23226	103.63075
17250.00000	103.61959	-73.51096	103.61959
17300.00000	103.62325	-76.83354	103.62325
17350.00000	103.62205	-80.20089	103.62205
17400.00000	103.62942	-83.92998	103.62942
17450.00000	103.64164	-87.12805	103.64164
17500.00000	103.61085	-90.43554	103.61085
17550.00000	103.64975	-93.75056	103.64975
17600.00000	103.68089	-96.61712	103.68089
17650.00000	103.71140	-99.14591	103.71140
17700.00000	103.78430	-102.26706	103.78430
17750.00000	103.76720	-104.93948	103.76720
17800.00000	103.78373	-107.68421	103.78373
17850.00000	103.79762	-110.37826	103.79762
17900.00000	103.81234	-113.29305	103.81234
17950.00000	103.83450	-116.17749	103.83450
18000.00000	103.83707	-119.10336	103.83707
18050.00000	103.83651	-122.26283	103.83651
18100.00000	103.87713	-125.19317	103.87713
18150.00000	103.86140	-128.16560	103.86140
18200.00000	103.90486	-131.13675	103.90486
18250.00000	103.93828	-134.21477	103.93828
18300.00000	103.95393	-137.24858	103.95393
18350.00000	103.93922	-140.23340	103.93922
18400.00000	103.96237	-143.27448	103.96237
18450.00000	103.96616	-146.21014	103.96616
18500.00000	103.97321	-149.16959	103.97321
18550.00000	103.99147	-152.43514	103.99147
18600.00000	103.95537	-155.32016	103.95537
18650.00000	103.98199	-158.33503	103.98199
18700.00000	103.97055	-161.23962	103.97055
18750.00000	103.90357	-164.20570	103.90357
18800.00000	103.88132	-167.27276	103.88132
18850.00000	103.84585	-170.05737	103.84585
18900.00000	103.80994	-172.87755	103.80994
18950.00000	103.74734	-175.90047	103.74734
19000.00000	103.69202	-178.85135	103.69202
19050.00000	103.64374	-181.77895	103.64374
19100.00000	103.61225	-184.71659	103.61225
19150.00000	103.56274	-187.15828	103.56274
19200.00000	103.51479	-190.20725	103.51479
19250.00000	103.43570	-192.76088	103.43570
19300.00000	103.41778	-195.43359	103.41778
19350.00000	103.34503	-198.27856	103.34503
19400.00000	103.27199	-200.58881	103.27199
19450.00000	103.21984	-203.53495	103.21984
19500.00000	103.16167	-205.96587	103.16167
19550.00000	103.15127	-208.36780	103.15127
19600.00000	103.05784	-211.11821	103.05784
19650.00000	103.03512	-213.80538	103.03512
19700.00000	103.00827	-216.30174	103.00827
19750.00000	102.95403	-218.71757	102.95403
19800.00000	102.92458	-221.01493	102.92458
19850.00000	102.86698	-223.54335	102.86698
19900.00000	102.84667	-226.18291	102.84667
19950.00000	102.83628	-228.54421	102.83628
20000.00000	102.77196	-231.30625	102.77196
20050.00000	102.73474	-233.72626	102.73474
20100.00000	102.71343	-236.33372	102.71343
20150.00000	102.68278	-238.93146	102.68278
20200.00000	102.66251	-241.45696	102.66251
20250.00000	102.63780	-243.74242	102.63780
20300.00000	102.62074	-246.26226	102.62074
20350.00000	102.60658	-248.73677	102.60658
20400.00000	102.55712	-251.17871	102.55712
20450.00000	102.52178	-253.83229	102.52178
20500.00000	102.50897	-256.51825	102.50897
20550.00000	102.50017	-259.11591	102.50017
20600.00000	102.45097	-261.76599	102.45097
20650.00000	102.44858	-264.65576	102.44858
20700.00000	102.41405	-266.92581	102.41405
20750.00000	102.37657	-269.68269	102.37657
20800.00000	102.35335	-272.06101	102.35335
20850.00000	102.31291	-274.98955	102.31291
20900.00000	102.25158	-277.51838	102.25158
20950.00000	102.24423	-280.46613	102.24423
21000.00000	102.24003	-283.28636	102.24003
21050.00000	102.19722	-285.89894	102.19722
21100.00000	102.16396	-288.58774	102.16396
21150.00000	102.12775	-291.15958	102.12775
21200.00000	102.06618	-293.65900	102.06618
21250.00000	101.97998	-296.38845	101.97998
21300.00000	101.91293	-299.42898	101.91293
21350.00000	101.84435	-302.14401	101.84435
21400.00000	101.78869	-305.19509	101.78869
21450.00000	101.75391	-307.61896	101.75391
21500.00000	101.74457	-310.39209	101.74457
21550.00000	101.70105	-313.20326	101.70105
21600.00000	101.60118	-316.15642	101.60118
21650.00000	101.57271	-318.64473	101.57271
21700.00000	101.45558	-322.05000	101.45558
21750.00000	101.39294	-325.03950	101.39294
21800.00000	101.32206	-328.03828	101.32206
21850.00000	101.25268	-330.87748	101.25268
21900.00000	101.12040	-333.96826	101.12040
21950.00000	100.98216	-337.04340	100.98216
22000.00000	100.85073	-339.96639	100.85073
22050.00000	100.66382	-342.38783	100.66382
22100.00000	100.54372	-344.91263	100.54372
22150.00000	100.40890	-347.82264	100.40890
22200.00000	100.26872	-350.59801	100.26872
22250.00000	100.13233	-353.37977	100.13233
22300.00000	99.99591	-355.92057	99.99591
22350.00000	99.81614	-359.13007	99.81614
22400.00000	99.60976	-361.79254	99.60976
22450.00000	99.50736	-364.49965	99.50736
22500.00000	99.25206	-367.42055	99.25206
22550.00000	99.11625	-369.86881	99.11625
22600.00000	98.82279	-372.56384	98.82279
22650.00000	98.67183	-374.65696	98.67183
22700.00000	98.44155	-376.98958	98.44155
22750.00000	98.24066	-379.44927	98.24066
22800.00000	98.04933	-381.57598	98.04933
22850.00000	97.81230	-383.76879	97.81230
22900.00000	97.66890	-386.03454	97.66890
22950.00000	97.46810	-388.04669	97.46810
23000.00000	97.33434	-390.05164	97.33434
23050.00000	97.02903	-391.85193	97.02903
23100.00000	96.81904	-393.94938	96.81904
23150.00000	96.60536	-396.29400	96.60536
23200.00000	96.47230	-398.40973	96.47230
23250.00000	96.25772	-400.22037	96.25772
23300.00000	96.10127	-402.70003	96.10127
23350.00000	95.76320	-404.00140	95.76320
23400.00000	95.59446	-405.53562	95.59446
23450.00000	95.45842	-407.54204	95.45842
23500.00000	95.23012	-409.08524	95.23012
23550.00000	94.93447	-410.92445	94.93447
23600.00000	94.87116	-412.36133	94.87116
23650.00000	94.58767	-413.57121	94.58767
23700.00000	94.47269	-415.18371	94.47269
23750.00000	94.18779	-416.76434	94.18779
23800.00000	94.03884	-418.49571	94.03884
23850.00000	93.94193	-419.27562	93.94193
23900.00000	93.60514	-421.69404	93.60514
23950.00000	93.47822	-422.08545	93.47822
24000.00000	93.42220	-424.14772	93.42220
24050.00000	93.18672	-425.01421	93.18672
24100.00000	92.98039	-426.11768	92.98039
24150.00000	92.77276	-427.52360	92.77276
24200.00000	92.76275	-428.86606	92.76275
24250.00000	92.57286	-429.43485	92.57286
24300.00000	92.49589	-431.01966	92.49589
24350.00000	92.29540	-431.58740	92.29540
24400.00000	92.20541	-433.20128	92.20541
24450.00000	92.07900	-433.91831	92.07900
24500.00000	91.82588	-435.34571	91.82588
24550.00000	91.73245	-436.60251	91.73245
24600.00000	91.68750	-437.22884	91.68750
24650.00000	91.56554	-438.37507	91.56554
24700.00000	91.43602	-440.00326	91.43602
24750.00000	91.34549	-441.76620	91.34549
24800.00000	91.17557	-442.35759	91.17557
24850.00000	91.15970	-442.93072	91.15970
24900.00000	91.01512	-443.70525	91.01512
24950.00000	91.04596	-445.02447	91.04596
25000.00000	90.93721	-446.05963	90.93721
25050.00000	90.83205	-446.44954	90.83205
25100.00000	90.81042	-447.49372	90.81042
25150.00000	90.69993	-448.53517	90.69993
25200.00000	90.69262	-448.94014	90.69262
25250.00000	90.58517	-450.28463	90.58517
25300.00000	90.55764	-451.38167	90.55764
25350.00000	90.50040	-452.05763	90.50040
25400.00000	90.56976	-453.42849	90.56976
25450.00000	90.69136	-454.35299	90.69136
25500.00000	90.51872	-454.73419	90.51872
25550.00000	90.48793	-456.27219	90.48793
25600.00000	90.50086	-456.90594	90.50086
25650.00000	90.47077	-458.75342	90.47077
25700.00000	90.48905	-458.77406	90.48905
25750.00000	90.59351	-461.28791	90.59351
25800.00000	90.57815	-461.62105	90.57815
25850.00000	90.60737	-463.29518	90.60737
25900.00000	90.57980	-464.05813	90.57980
25950.00000	90.62002	-465.54808	90.62002
26000.00000	90.67347	-467.08364	90.67347
26050.00000	90.74904	-468.56440	90.74904
26100.00000	90.82231	-470.39684	90.82231
26150.00000	90.83084	-472.57422	90.83084
26200.00000	90.80314	-472.92101	90.80314
26250.00000	90.83889	-475.09695	90.83889
26300.00000	90.76888	-477.12822	90.76888
26350.00000	90.85216	-479.39400	90.85216
26400.00000	90.84632	-481.25107	90.84632
26450.00000	90.76836	-483.20052	90.76836
26500.00000	90.74756	-485.10514	90.74756
26550.00000	90.76074	-486.05635	90.76074
26600.00000	90.77125	-488.15932	90.77125
26650.00000	90.63749	-490.21542	90.63749
26700.00000	90.64023	-491.78314	90.64023
26750.00000	90.56229	-493.48485	90.56229
26800.00000	90.42289	-495.39929	90.42289
26850.00000	90.29794	-497.23785	90.29794
26900.00000	90.24151	-498.98758	90.24151
26950.00000	90.10150	-500.90141	90.10150
27000.00000	89.98066	-502.47159	89.98066
27050.00000	89.90700	-504.01996	89.90700
27100.00000	89.78447	-505.49732	89.78447
27150.00000	89.63357	-506.53942	89.63357
27200.00000	89.61921	-508.35770	89.61921
27250.00000	89.44959	-509.62411	89.44959
27300.00000	89.35912	-510.87345	89.35912
27350.00000	89.14315	-511.82729	89.14315
27400.00000	89.10645	-513.10406	89.10645
27450.00000	89.11043	-514.58858	89.11043
27500.00000	88.90645	-514.94220	88.90645
27550.00000	88.86895	-516.15892	88.86895
27600.00000	88.73531	-517.30214	88.73531
27650.00000	88.62064	-518.57362	88.62064
27700.00000	88.42550	-518.88973	88.42550
27750.00000	88.41628	-520.03977	88.41628
27800.00000	88.25187	-520.91122	88.25187
27850.00000	88.27020	-521.49516	88.27020
27900.00000	88.11793	-521.99935	88.11793
27950.00000	88.08715	-522.28459	88.08715
28000.00000	87.99116	-523.39621	87.99116
28050.00000	87.90163	-523.20834	87.90163
28100.00000	87.82142	-523.80406	87.82142
28150.00000	87.75456	-524.86379	87.75456
28200.00000	87.75614	-525.15313	87.75614
28250.00000	87.70490	-525.43613	87.70490
28300.00000	87.58086	-526.21894	87.58086
28350.00000	87.71059	-526.26053	87.71059
28400.00000	87.58577	-526.33947	87.58577
28450.00000	87.53522	-526.67917	87.53522
28500.00000	87.58794	-526.43534	87.58794
28550.00000	87.57262	-526.98935	87.57262
28600.00000	87.62169	-526.85360	87.62169
28650.00000	87.74360	-527.74283	87.74360
28700.00000	87.74849	-527.49717	87.74849
28750.00000	87.80992	-527.90625	87.80992
28800.00000	87.74827	-529.15889	87.74827
28850.00000	87.92888	-528.43673	87.92888
28900.00000	87.98115	-529.71467	87.98115
28950.00000	88.03900	-528.95896	88.03900
29000.00000	88.22940	-529.45576	88.22940
29050.00000	88.38821	-530.03555	88.38821
29100.00000	88.42480	-530.11454	88.42480
29150.00000	88.40674	-531.01674	88.40674
29200.00000	88.74545	-531.59374	88.74545
29250.00000	88.73229	-531.60018	88.73229
29300.00000	88.95304	-532.20066	88.95304
29350.00000	89.05876	-532.35342	89.05876
29400.00000	89.11233	-533.28443	89.11233
29450.00000	89.32079	-533.93299	89.32079
29500.00000	89.56958	-534.58938	89.56958
29550.00000	89.76574	-534.92607	89.76574
29600.00000	89.87106	-535.64980	89.87106
29650.00000	90.03826	-536.35671	90.03826
29700.00000	90.22883	-537.01897	90.22883
29750.00000	90.39277	-537.98380	90.39277
29800.00000	90.50134	-538.98295	90.50134
29850.00000	90.73931	-539.46818	90.73931
29900.00000	90.97333	-540.54327	90.97333
29950.00000	91.11920	-540.98416	91.11920
30000.00000	91.31064	-542.35537	91.31064
30050.00000	91.50556	-542.48023	91.50556
30100.00000	91.73568	-544.23201	91.73568
30150.00000	91.94048	-544.92090	91.94048
30200.00000	92.15847	-546.08724	92.15847
30250.00000	92.33202	-547.17385	92.33202
30300.00000	92.54468	-548.50908	92.54468
30350.00000	92.82221	-549.14035	92.82221
30400.00000	93.00022	-550.47350	93.00022
30450.00000	93.23552	-551.59692	93.23552
30500.00000	93.47673	-553.19821	93.47673
30550.00000	93.63957	-554.14675	93.63957
30600.00000	93.92286	-555.76211	93.92286
30650.00000	94.17928	-556.87215	94.17928
30700.00000	94.37142	-558.36047	94.37142
30750.00000	94.61319	-559.87523	94.61319
30800.00000	94.79338	-561.25894	94.79338
30850.00000	95.01613	-562.50580	95.01613
30900.00000	95.28059	-564.11330	95.28059
30950.00000	95.52595	-565.92990	95.52595
31000.00000	95.81153	-567.40576	95.81153
31050.00000	96.01482	-568.93781	96.01482
31100.00000	96.24237	-570.60399	96.24237
31150.00000	96.46032	-572.11097	96.46032
31200.00000	96.67724	-574.19539	96.67724
31250.00000	96.99169	-576.09248	96.99169
31300.00000	97.19048	-577.91445	97.19048
31350.00000	97.42438	-579.72413	97.42438
31400.00000	97.63741	-581.87503	97.63741
31450.00000	97.86469	-583.53533	97.86469
31500.00000	98.08381	-585.80279	98.08381
31550.00000	98.30870	-588.12885	98.30870
31600.00000	98.51336	-590.23722	98.51336
31650.00000	98.71774	-592.52738	98.71774
31700.00000	98.91787	-594.60791	98.91787
31750.00000	99.11395	-596.92584	99.11395
31800.00000	99.26799	-599.26537	99.26799
31850.00000	99.46695	-601.51344	99.46695
31900.00000	99.61008	-603.55276	99.61008
31950.00000	99.79998	-606.06458	99.79998
32000.00000	99.96279	-608.48509	99.96279
32050.00000	100.07653	-610.77329	100.07653
32100.00000	100.23640	-613.08473	100.23640
32150.00000	100.35099	-615.44506	100.35099
32200.00000	100.45743	-617.75175	100.45743
32250.00000	100.60016	-619.83481	100.60016
32300.00000	100.72182	-622.08563	100.72182
32350.00000	100.83627	-624.28104	100.83627
32400.00000	100.93521	-626.39609	100.93521
32450.00000	101.04223	-628.44034	101.04223
32500.00000	101.11975	-630.68292	101.11975
32550.00000	101.20014	-632.57301	101.20014
32600.00000	101.31144	-634.66593	101.31144
32650.00000	101.41749	-636.84560	101.41749
32700.00000	101.49718	-638.55907	101.49718
32750.00000	101.60531	-640.46711	101.60531
32800.00000	101.67895	-642.21163	101.67895
32850.00000	101.79216	-643.94862	101.79216
32900.00000	101.88190	-645.61404	101.88190
32950.00000	102.01404	-647.30160	102.01404
33000.00000	102.13216	-649.23798	102.13216
33050.00000	102.24954	-650.70762	102.24954
33100.00000	102.39945	-652.47657	102.39945
33150.00000	102.52247	-653.98471	102.52247
33200.00000	102.67348	-655.70382	102.67348
33250.00000	102.80850	-657.26672	102.80850
33300.00000	102.94772	-658.91870	102.94772
33350.00000	103.13598	-660.67331	103.13598
33400.00000	103.29982	-662.44205	103.29982
33450.00000	103.45383	-664.00500	103.45383
33500.00000	103.64156	-665.44272	103.64156
33550.00000	103.81587	-667.26225	103.81587
33600.00000	104.01849	-669.00721	104.01849
33650.00000	104.20907	-670.89165	104.20907
33700.00000	104.39519	-672.60636	104.39519
33750.00000	104.60220	-674.38434	104.60220
33800.00000	104.80690	-676.26795	104.80690
33850.00000	105.03174	-678.06533	105.03174
33900.00000	105.23548	-680.07779	105.23548
33950.00000	105.47642	-681.95356	105.47642
34000.00000	105.68407	-683.77228	105.68407
34050.00000	105.87660	-685.78462	105.87660
34100.00000	106.09892	-687.99552	106.09892
34150.00000	106.31297	-690.03345	106.31297
34200.00000	106.50404	-691.99329	106.50404
34250.00000	106.75525	-693.99199	106.75525
34300.00000	107.00543	-696.19519	107.00543
34350.00000	107.24242	-698.45020	107.24242
34400.00000	107.49796	-700.49485	107.49796
34450.00000	107.68615	-702.85730	107.68615
34500.00000	107.92022	-704.93422	107.92022
34550.00000	108.18997	-707.24697	108.18997
34600.00000	108.43531	-709.63057	108.43531
34650.00000	108.71349	-712.14701	108.71349
34700.00000	108.96870	-714.46733	108.96870
34750.00000	109.23205	-717.26473	109.23205
34800.00000	109.50511	-719.90532	109.50511
34850.00000	109.76984	-722.84974	109.76984
34900.00000	109.99951	-725.88949	109.99951
34950.00000	110.19787	-729.20831	110.19787
35000.00000	110.31261	-731.95324	110.31261
35050.00000	110.43402	-734.50995	110.43402
35100.00000	110.57779	-736.62655	110.57779
35150.00000	110.82511	-738.77372	110.82511
35200.00000	111.11975	-741.25380	111.11975
35250.00000	111.39429	-743.76424	111.39429
35300.00000	111.67355	-746.73140	111.67355
35350.00000	111.93860	-749.74963	111.93860
35400.00000	112.21932	-753.01167	112.21932
35450.00000	112.45800	-756.26958	112.45800
35500.00000	112.69603	-759.66870	112.69603
35550.00000	112.90816	-763.15981	112.90816
35600.00000	113.13219	-766.68362	113.13219
35650.00000	113.32045	-770.18724	113.32045
35700.00000	113.49162	-773.98195	113.49162
35750.00000	113.65542	-777.58745	113.65542
35800.00000	113.80102	-781.40355	113.80102
35850.00000	113.93720	-785.10046	113.93720
35900.00000	114.03996	-788.75468	114.03996
35950.00000	114.13249	-792.41843	114.13249
36000.00000	114.20498	-796.06590	114.20498
36050.00000	114.26864	-799.75468	114.26864
36100.00000	114.30899	-803.32199	114.30899
36150.00000	114.35088	-806.85420	114.35088
36200.00000	114.37862	-810.33743	114.37862
36250.00000	114.38535	-813.75947	114.38535
36300.00000	114.39004	-817.03686	114.39004
36350.00000	114.37383	-820.47242	114.37383
36400.00000	114.36434	-823.67507	114.36434
36450.00000	114.32918	-826.73326	114.32918
36500.00000	114.30139	-829.65059	114.30139
36550.00000	114.27461	-832.67318	114.27461
36600.00000	114.23010	-835.43032	114.23010
36650.00000	114.18632	-838.08708	114.18632
36700.00000	114.16550	-840.66469	114.16550
36750.00000	114.12276	-843.18766	114.12276
36800.00000	114.10316	-845.54392	114.10316
36850.00000	114.08210	-847.88915	114.08210
36900.00000	114.05130	-850.09386	114.05130
36950.00000	114.03223	-852.29313	114.03223
37000.00000	114.04799	-854.21601	114.04799
37050.00000	114.05147	-856.16510	114.05147
37100.00000	114.06638	-858.12597	114.06638
37150.00000	114.09237	-859.92205	114.09237
37200.00000	114.13354	-861.67416	114.13354
37250.00000	114.18651	-863.28878	114.18651
37300.00000	114.25509	-864.80836	114.25509
37350.00000	114.33334	-866.33937	114.33334
37400.00000	114.45366	-867.73796	114.45366
37450.00000	114.59048	-869.13455	114.59048
37500.00000	114.75943	-870.25401	114.75943
37550.00000	114.96387	-871.46446	114.96387
37600.00000	115.19443	-872.77397	115.19443
37650.00000	115.48787	-873.99104	115.48787
37700.00000	115.81628	-875.22164	115.81628
37750.00000	116.22035	-876.72282	116.22035
37800.00000	116.65200	-878.52857	116.65200
37850.00000	117.13331	-880.52597	117.13331
37900.00000	117.62105	-883.00975	117.62105
37950.00000	118.14414	-885.94797	118.14414
38000.00000	118.67413	-889.25833	118.67413
38050.00000	119.17719	-893.19846	119.17719
38100.00000	119.64736	-897.34291	119.64736
38150.00000	120.08707	-901.89816	120.08707
38200.00000	120.47942	-906.71351	120.47942
38250.00000	120.82484	-911.63384	120.82484
38300.00000	121.14584	-916.68262	121.14584
38350.00000	121.42318	-921.88612	121.42318
38400.00000	121.66404	-927.08547	121.66404
38450.00000	121.87306	-932.33234	121.87306
38500.00000	122.04708	-937.59352	122.04708
38550.00000	122.19406	-942.91801	122.19406
38600.00000	122.31347	-948.15624	122.31347
38650.00000	122.40854	-953.42442	122.40854
38700.00000	122.47179	-958.60578	122.47179
38750.00000	122.51693	-963.73984	122.51693
38800.00000	122.53533	-968.80369	122.53533
38850.00000	122.55579	-973.85086	122.55579
38900.00000	122.55233	-978.87450	122.55233
38950.00000	122.52959	-983.74317	122.52959
39000.00000	122.49956	-988.68258	122.49956
39050.00000	122.45638	-993.56829	122.45638
39100.00000	122.39551	-998.45611	122.39551
39150.00000	122.31654	-1003.25779	122.31654
39200.00000	122.22772	-1007.96630	122.22772
39250.00000	122.13873	-1012.63492	122.13873
39300.00000	122.02701	-1017.17347	122.02701
39350.00000	121.92074	-1021.72157	121.92074
39400.00000	121.82117	-1026.28216	121.82117
39450.00000	121.71360	-1030.78389	121.71360
39500.00000	121.59448	-1035.38856	121.59448
39550.00000	121.46956	-1039.93304	121.46956
39600.00000	121.32451	-1044.66583	121.32451
39650.00000	121.15850	-1049.29046	121.15850
39700.00000	120.97213	-1053.93783	120.97213
39750.00000	120.76070	-1058.55267	120.76070
39800.00000	120.52196	-1063.04483	120.52196
39850.00000	120.27003	-1067.49723	120.27003
39900.00000	119.99655	-1071.82108	119.99655
39950.00000	119.70755	-1075.99504	119.70755
40000.00000	119.40228	-1080.18107	119.40228
40050.00000	119.09198	-1084.14568	119.09198
40100.00000	118.76805	-1088.06508	118.76805
40150.00000	118.43821	-1091.83070	118.43821
40200.00000	118.08730	-1095.36862	118.08730
40250.00000	117.73279	-1098.84212	117.73279
40300.00000	117.37376	-1102.13494	117.37376
40350.00000	117.01590	-1105.26574	117.01590
40400.00000	116.64194	-1108.28561	116.64194
40450.00000	116.27562	-1111.16373	116.27562
40500.00000	115.91723	-1113.83345	115.91723
40550.00000	115.54861	-1116.45304	115.54861
40600.00000	115.18906	-1118.72737	115.18906
40650.00000	114.84609	-1121.05110	114.84609
40700.00000	114.49362	-1123.24415	114.49362
40750.00000	114.16155	-1125.20266	114.16155
40800.00000	113.83965	-1127.11887	113.83965
40850.00000	113.53824	-1128.85113	113.53824
40900.00000	113.25082	-1130.37278	113.25082
40950.00000	112.98103	-1131.92595	112.98103
41000.00000	112.72749	-1133.41764	112.72749
41050.00000	112.46741	-1134.83043	112.46741
41100.00000	112.26245	-1136.00461	112.26245
41150.00000	112.08465	-1137.30399	112.08465
41200.00000	111.90141	-1138.54347	111.90141
41250.00000	111.77014	-1139.81071	111.77014
41300.00000	111.64412	-1141.02545	111.64412
41350.00000	111.51888	-1142.33385	111.51888
41400.00000	111.42557	-1143.69975	111.42557
41450.00000	111.35874	-1145.00829	111.35874
41500.00000	111.28532	-1146.26777	111.28532
41550.00000	111.22557	-1147.73020	111.22557
41600.00000	111.20031	-1149.46568	111.20031
41650.00000	111.15180	-1151.05163	111.15180
41700.00000	111.16097	-1152.76708	111.16097
41750.00000	111.13553	-1154.53865	111.13553
41800.00000	111.12615	-1156.38196	111.12615
41850.00000	111.11729	-1158.67739	111.11729
41900.00000	111.11486	-1160.77257	111.11486
41950.00000	111.07004	-1163.22145	111.07004
42000.00000	111.07521	-1165.68645	111.07521
42050.00000	111.02828	-1168.17755	111.02828
42100.00000	110.97094	-1170.43533	110.97094
42150.00000	110.90241	-1172.99789	110.90241
42200.00000	110.77009	-1175.49835	110.77009
42250.00000	110.66101	-1177.79392	110.66101
42300.00000	110.55134	-1180.18721	110.55134
42350.00000	110.45060	-1182.38930	110.45060
42400.00000	110.30918	-1184.57734	110.30918
42450.00000	110.19672	-1186.87590	110.19672
42500.00000	110.03295	-1189.02709	110.03295
42550.00000	109.88158	-1190.99250	109.88158
42600.00000	109.76451	-1193.04897	109.76451
42650.00000	109.61797	-1194.80144	109.61797
42700.00000	109.50230	-1196.59057	109.50230
42750.00000	109.40150	-1198.32850	109.40150
42800.00000	109.24031	-1199.87640	109.24031
42850.00000	109.12885	-1201.73152	109.12885
42900.00000	109.04507	-1203.39792	109.04507
42950.00000	108.94969	-1205.11625	108.94969
43000.00000	108.87115	-1206.54389	108.87115
43050.00000	108.76270	-1207.99546	108.76270
43100.00000	108.68776	-1209.61870	108.68776
43150.00000	108.62500	-1210.99728	108.62500
43200.00000	108.59757	-1212.70913	108.59757
43250.00000	108.52538	-1214.07359	108.52538
43300.00000	108.47432	-1215.41277	108.47432
43350.00000	108.42002	-1216.78052	108.42002
43400.00000	108.33777	-1218.50787	108.33777
43450.00000	108.29070	-1220.14230	108.29070
43500.00000	108.24848	-1221.57293	108.24848
43550.00000	108.24113	-1222.98611	108.24113
43600.00000	108.12770	-1224.54774	108.12770
43650.00000	108.16063	-1226.04673	108.16063
43700.00000	108.13497	-1227.10363	108.13497
43750.00000	108.11402	-1229.04980	108.11402
43800.00000	108.04637	-1230.71255	108.04637
43850.00000	108.05177	-1231.92895	108.05177
43900.00000	108.10656	-1233.76401	108.10656
43950.00000	108.05732	-1235.10607	108.05732
44000.00000	108.04591	-1236.47956	108.04591
44050.00000	108.07939	-1237.63048	108.07939
44100.00000	108.05958	-1239.09079	108.05958
44150.00000	108.11976	-1240.17777	108.11976
44200.00000	108.12193	-1241.45121	108.12193
44250.00000	108.17035	-1242.80519	108.17035
44300.00000	108.21494	-1244.23648	108.21494
44350.00000	108.28777	-1245.56417	108.28777
44400.00000	108.41520	-1246.45702	108.41520
44450.00000	108.43308	-1248.12625	108.43308
44500.00000	108.53546	-1248.70200	108.53546
44550.00000	108.54986	-1250.57277	108.54986
44600.00000	108.69824	-1251.87567	108.69824
44650.00000	108.82616	-1253.06899	108.82616
44700.00000	108.94665	-1254.93586	108.94665
44750.00000	109.09167	-1256.31180	109.09167
44800.00000	109.23367	-1257.68113	109.23367
44850.00000	109.41562	-1259.41193	109.41562
44900.00000	109.59973	-1261.24909	109.59973
44950.00000	109.75196	-1262.80114	109.75196
45000.00000	109.95400	-1264.72582	109.95400
45050.00000	110.17479	-1266.80493	110.17479
45100.00000	110.33395	-1268.53436	110.33395
45150.00000	110.55276	-1270.55431	110.55276
45200.00000	110.81806	-1272.71986	110.81806
45250.00000	111.02249	-1274.83497	111.02249
45300.00000	111.22099	-1276.59969	111.22099
45350.00000	111.48360	-1279.26099	111.48360
45400.00000	111.79171	-1281.91484	111.79171
45450.00000	112.01022	-1284.19209	112.01022
45500.00000	112.27068	-1286.75932	112.27068
45550.00000	112.56450	-1289.73449	112.56450
45600.00000	112.81153	-1292.63157	112.81153
45650.00000	113.08804	-1296.14947	113.08804
45700.00000	113.35774	-1299.75770	113.35774
45750.00000	113.59692	-1303.42961	113.59692
45800.00000	113.79460	-1307.66983	113.79460
45850.00000	113.96944	-1311.49059	113.96944
45900.00000	114.12127	-1315.84917	114.12127
45950.00000	114.24605	-1320.37424	114.24605
46000.00000	114.36717	-1324.40935	114.36717
46050.00000	114.41869	-1328.51001	114.41869
46100.00000	114.48294	-1332.90740	114.48294
46150.00000	114.50989	-1337.24842	114.50989
46200.00000	114.51271	-1341.60253	114.51271
46250.00000	114.50023	-1346.02126	114.50023
46300.00000	114.45864	-1350.16213	114.45864
46350.00000	114.35038	-1354.16275	114.35038
46400.00000	114.26281	-1358.11152	114.26281
46450.00000	114.13544	-1361.96106	114.13544
46500.00000	114.01039	-1365.66600	114.01039
46550.00000	113.85071	-1369.04932	113.85071
46600.00000	113.74660	-1372.73705	113.74660
46650.00000	113.62296	-1375.79813	113.62296
46700.00000	113.51067	-1379.08866	113.51067
46750.00000	113.38775	-1382.64192	113.38775
46800.00000	113.30810	-1385.52138	113.30810
46850.00000	113.11979	-1389.42541	113.11979
46900.00000	112.99050	-1392.21468	112.99050
46950.00000	112.88617	-1394.92232	112.88617
47000.00000	112.76404	-1398.52652	112.76404
47050.00000	112.66837	-1401.46837	112.66837
47100.00000	112.55823	-1404.12014	112.55823
47150.00000	112.42832	-1407.07108	112.42832
47200.00000	112.37450	-1409.68037	112.37450
47250.00000	112.21944	-1412.77977	112.21944
47300.00000	112.17787	-1415.70021	112.17787
47350.00000	112.06294	-1418.67511	112.06294
47400.00000	111.96548	-1421.30665	111.96548
47450.00000	111.89380	-1424.08221	111.89380
47500.00000	111.81699	-1426.55457	111.81699
47550.00000	111.66408	-1429.60455	111.66408
47600.00000	111.52853	-1432.91285	111.52853
47650.00000	111.41785	-1435.60465	111.41785
47700.00000	111.41685	-1438.32603	111.41685
47750.00000	111.29994	-1441.62174	111.29994
47800.00000	111.23900	-1444.03361	111.23900
47850.00000	111.14912	-1446.69455	111.14912
47900.00000	111.09369	-1449.84460	111.09369
47950.00000	111.03831	-1453.00990	111.03831
48000.00000	110.94786	-1456.63100	110.94786
48050.00000	110.94623	-1459.10693	110.94623
48100.00000	110.86589	-1462.58763	110.86589
48150.00000	110.78947	-1465.96179	110.78947
48200.00000	110.68191	-1469.66299	110.68191
48250.00000	110.58446	-1472.56696	110.58446
48300.00000	110.48593	-1475.91964	110.48593
48350.00000	110.45878	-1479.01850	110.45878
48400.00000	110.13570	-1483.10350	110.13570
48450.00000	110.10504	-1486.39870	110.10504
48500.00000	109.93943	-1490.16457	109.93943
48550.00000	109.73639	-1493.29039	109.73639
48600.00000	109.56094	-1498.16821	109.56094
48650.00000	109.36495	-1500.98016	109.36495
48700.00000	109.07731	-1504.41807	109.07731
48750.00000	108.85304	-1149.12317	108.85304
48800.00000	108.47659	-1152.10178	108.47659
48850.00000	108.07845	-1156.26969	108.07845
48900.00000	107.85256	-799.58378	107.85256
48950.00000	107.31421	-802.62608	107.31421
49000.00000	106.93856	-805.87454	106.93856
49050.00000	106.61962	-809.31808	106.61962
49100.00000	106.18298	-451.62524	106.18298
49150.00000	105.75256	-454.51493	105.75256
49200.00000	105.19265	-455.68769	105.19265
49250.00000	104.83458	-457.62861	104.83458
49300.00000	104.43870	-458.53141	104.43870
49350.00000	103.89749	-459.20827	103.89749
49400.00000	103.34743	-102.19064	103.34743
49450.00000	103.05804	-101.36329	103.05804
49500.00000	102.79645	257.46326	102.79645
49550.00000	102.42779	257.38261	102.42779
49600.00000	102.13226	256.79587	102.13226
49650.00000	101.91940	615.01005	101.91940
49700.00000	101.46225	975.03466	101.46225
49750.00000	101.25990	975.85670	101.25990
49800.00000	101.08889	975.17019	101.08889
49850.00000	100.94527	1333.94187	100.94527
49900.00000	100.88867	1334.34504	100.88867
49950.00000	100.62811	1694.72018	100.62811
50000.00000	100.65606	1693.14078	100.65606
50050.00000	100.61449	1693.71965	100.61449
50100.00000	100.53707	1692.91454	100.53707
50150.00000	100.58795	1693.55585	100.58795
50200.00000	100.55353	1692.15116	100.55353
50250.00000	100.46195	1691.76915	100.46195
50300.00000	100.68138	1690.85286	100.68138
50350.00000	100.49117	1690.59416	100.49117
50400.00000	100.74009	1688.26089	100.74009
50450.00000	100.61618	1687.11238	100.61618
50500.00000	100.70777	1687.17464	100.70777
50550.00000	100.62249	1684.82874	100.62249
50600.00000	100.65772	1683.73970	100.65772
50650.00000	100.91924	1683.26043	100.91924
50700.00000	100.88422	1680.19545	100.88422
50750.00000	100.81152	1679.11859	100.81152
50800.00000	100.90401	1677.05940	100.90401
50850.00000	100.98028	1674.82087	100.98028
50900.00000	100.95861	1673.28850	100.95861
50950.00000	100.97785	1670.68493	100.97785
51000.00000	101.13593	1668.10693	101.13593
51050.00000	101.12987	1666.33089	101.12987
51100.00000	100.99957	1664.00447	100.99957
51150.00000	100.97835	1661.08993	100.97835
51200.00000	100.87759	1659.66332	100.87759
51250.00000	100.82696	1656.62292	100.82696
51300.00000	100.86059	1653.82873	100.86059
51350.00000	100.58693	1653.21163	100.58693
51400.00000	100.62390	1648.92391	100.62390
51450.00000	100.41667	1647.98230	100.41667
51500.00000	100.34052	1644.68962	100.34052
51550.00000	99.96090	1642.49365	99.96090
51600.00000	99.91977	1640.19862	99.91977
51650.00000	99.53173	1637.99852	99.53173
51700.00000	99.30975	1636.79183	99.30975
51750.00000	99.01409	1634.90091	99.01409
51800.00000	98.77143	1633.93500	98.77143
51850.00000	98.65508	1631.64528	98.65508
51900.00000	98.38249	1630.38907	98.38249
51950.00000	97.81971	1630.30699	97.81971
52000.00000	97.75919	1629.40720	97.75919
52050.00000	97.67625	1630.19730	97.67625
52100.00000	97.22258	1629.31547	97.22258
52150.00000	97.14131	1630.45999	97.14131
52200.00000	97.04518	1629.74405	97.04518
52250.00000	96.99939	1629.81578	96.99939
52300.00000	96.57979	1632.02901	96.57979
52350.00000	96.81840	1631.02696	96.81840
52400.00000	96.76794	1629.98648	96.76794
52450.00000	96.82856	1631.19805	96.82856
52500.00000	96.96038	1630.57264	96.96038
52550.00000	97.02837	1632.27219	97.02837
52600.00000	97.04314	1629.61109	97.04314
52650.00000	97.26703	1629.61004	97.26703
52700.00000	97.24496	1631.35404	97.24496
52750.00000	97.44168	1630.26902	97.44168
52800.00000	97.71878	1628.84971	97.71878
52850.00000	97.55684	1628.48859	97.55684
52900.00000	97.86199	1627.90080	97.86199
52950.00000	98.00886	1628.13012	98.00886
53000.00000	98.27080	1625.93914	98.27080
53050.00000	98.45815	1625.25042	98.45815
53100.00000	98.67227	1623.39993	98.67227
53150.00000	98.86565	1621.94072	98.86565
53200.00000	98.94486	1620.80455	98.94486
53250.00000	99.28722	1620.00083	99.28722
53300.00000	99.22371	1616.86105	99.22371
53350.00000	99.40008	1615.92231	99.40008
53400.00000	99.52010	1614.49048	99.52010
53450.00000	99.75805	1612.76849	99.75805
53500.00000	99.99031	1610.65076	99.99031
53550.00000	100.06181	1608.98522	100.06181
53600.00000	100.13945	1605.39410	100.13945
53650.00000	100.36639	1603.25275	100.36639
53700.00000	100.44643	1602.39666	100.44643
53750.00000	100.50176	1599.07500	100.50176
53800.00000	100.60656	1597.97004	100.60656
53850.00000	100.69846	1595.92856	100.69846
53900.00000	100.79670	1593.90759	100.79670
53950.00000	100.83559	1591.35984	100.83559
54000.00000	100.83145	1589.74617	100.83145
54050.00000	100.95081	1587.11054	100.95081
54100.00000	100.92255	1585.14913	100.92255
54150.00000	100.93479	1582.36483	100.93479
54200.00000	100.79980	1581.76784	100.79980
54250.00000	100.89318	1578.36627	100.89318
54300.00000	100.90113	1576.04715	100.90113
54350.00000	100.90449	1575.21418	100.90449
54400.00000	100.90307	1575.13300	100.90307
54450.00000	100.95457	1572.58706	100.95457
54500.00000	100.82571	1571.70232	100.82571
54550.00000	100.68484	1569.64009	100.68484
54600.00000	100.85614	1569.43197	100.85614
54650.00000	100.87026	1567.12861	100.87026
54700.00000	100.75731	1566.36176	100.75731
54750.00000	101.10197	1566.01014	101.10197
54800.00000	101.02109	1563.96546	101.02109
54850.00000	101.13636	1564.29469	101.13636
54900.00000	101.30061	1562.91772	101.30061
54950.00000	101.37089	1562.55283	101.37089
55000.00000	101.64967	1561.30741	101.64967
55050.00000	101.81888	1560.47506	101.81888
55100.00000	101.98376	1559.27588	101.98376
55150.00000	102.25880	1558.31492	102.25880
55200.00000	102.38725	1556.67955	102.38725
55250.00000	102.77524	1555.81183	102.77524
55300.00000	103.00884	1554.23040	103.00884
55350.00000	103.29162	1553.03459	103.29162
55400.00000	103.57935	1550.86317	103.57935
55450.00000	103.87964	1549.73179	103.87964
55500.00000	104.19093	1547.12895	104.19093
55550.00000	104.53431	1545.34978	104.53431
55600.00000	104.85498	1542.80252	104.85498
55650.00000	105.15770	1540.19685	105.15770
55700.00000	105.43892	1537.79242	105.43892
55750.00000	105.74130	1535.11102	105.74130
55800.00000	106.07034	1532.33417	106.07034
55850.00000	106.37211	1529.64140	106.37211
55900.00000	106.68274	1526.54579	106.68274
55950.00000	106.92534	1523.37421	106.92534
56000.00000	107.23021	1519.88241	107.23021
56050.00000	107.47151	1517.00467	107.47151
56100.00000	107.74325	1513.43435	107.74325
56150.00000	107.96662	1509.94903	107.96662
56200.00000	108.18549	1506.78656	108.18549
56250.00000	108.36978	1502.79369	108.36978
56300.00000	108.55136	1498.88452	108.55136
56350.00000	108.73639	1495.29738	108.73639
56400.00000	108.87569	1491.96943	108.87569
56450.00000	108.96551	1487.98149	108.96551
56500.00000	109.13092	1484.39099	109.13092
56550.00000	109.19825	1480.38501	109.19825
56600.00000	109.34615	1476.77901	109.34615
56650.00000	109.45363	1472.97851	109.45363
56700.00000	109.50793	1469.52956	109.50793
56750.00000	109.62923	1465.89866	109.62923
56800.00000	109.63903	1462.10632	109.63903
56850.00000	109.74281	1458.43334	109.74281
56900.00000	109.74591	1454.83713	109.74591
56950.00000	109.83212	1451.12370	109.83212
57000.00000	109.83558	1447.68843	109.83558
57050.00000	109.88534	1444.01491	109.88534
57100.00000	109.87362	1440.17518	109.87362
57150.00000	109.88056	1436.80973	109.88056
57200.00000	109.86618	1433.39437	109.86618
57250.00000	109.91375	1429.58303	109.91375
57300.00000	109.92336	1426.21869	109.92336
57350.00000	109.87682	1422.92723	109.87682
57400.00000	109.91890	1419.42154	109.91890
57450.00000	109.84803	1415.91029	109.84803
57500.00000	109.79521	1412.47062	109.79521
57550.00000	109.78661	1409.07787	109.78661
57600.00000	109.73856	1406.00066	109.73856
57650.00000	109.67943	1402.82954	109.67943
57700.00000	109.60093	1399.52690	109.60093
57750.00000	109.59092	1396.31705	109.59092
57800.00000	109.50055	1393.40833	109.50055
57850.00000	109.48233	1390.49700	109.48233
57900.00000	109.44539	1387.55850	109.44539
57950.00000	109.39055	1384.64746	109.39055
58000.00000	109.40791	1382.21528	109.40791
58050.00000	109.43957	1379.18174	109.43957
58100.00000	109.46948	1376.35404	109.46948
58150.00000	109.48572	1373.41461	109.48572
58200.00000	109.52574	1370.17374	109.52574
58250.00000	109.59357	1366.89759	109.59357
58300.00000	109.62157	1363.35592	109.62157
58350.00000	109.65996	1359.90984	109.65996
58400.00000	109.68288	1356.19026	109.68288
58450.00000	109.69835	1352.65422	109.69835
58500.00000	109.63046	1348.92343	109.63046
58550.00000	109.63624	1344.85894	109.63624
58600.00000	109.56031	1341.12798	109.56031
58650.00000	109.48321	1337.43461	109.48321
58700.00000	109.35730	1333.60753	109.35730
58750.00000	109.24410	1329.83576	109.24410
58800.00000	109.10943	1326.02655	109.10943
58850.00000	108.94274	1322.44426	108.94274
58900.00000	108.74252	1319.04078	108.74252
58950.00000	108.55434	1315.49387	108.55434
59000.00000	108.30130	1312.25558	108.30130
59050.00000	108.08863	1309.03963	108.08863
59100.00000	107.84748	1305.88470	107.84748
59150.00000	107.63590	1303.19528	107.63590
59200.00000	107.40976	1300.40164	107.40976
59250.00000	107.15475	1297.82525	107.15475
59300.00000	106.97034	1295.45921	106.97034
59350.00000	106.71186	1292.96299	106.71186
59400.00000	106.54252	1290.83593	106.54252
59450.00000	106.29129	1288.65110	106.29129
59500.00000	106.09906	1286.73523	106.09906
59550.00000	105.91691	1285.01792	105.91691
59600.00000	105.74685	1283.35314	105.74685
59650.00000	105.63054	1281.36865	105.63054
59700.00000	105.54075	1279.80246	105.54075
59750.00000	105.44265	1278.15428	105.44265
59800.00000	105.33521	1276.72156	105.33521
59850.00000	105.32206	1274.94146	105.32206
59900.00000	105.27595	1273.01080	105.27595
59950.00000	105.28461	1271.29235	105.28461
60000.00000	105.28743	1269.27711	105.28743
60050.00000	105.29902	1267.11498	105.29902
60100.00000	105.26051	1264.86093	105.26051
60150.00000	105.31381	1262.51036	105.31381
60200.00000	105.32409	1259.89593	105.32409
60250.00000	105.29767	1257.07511	105.29767
60300.00000	105.27190	1254.40635	105.27190
60350.00000	105.19478	1251.62831	105.19478
60400.00000	105.14817	1248.75998	105.14817
60450.00000	105.02583	1246.03071	105.02583
60500.00000	104.90974	1243.38638	104.90974
60550.00000	104.76660	1240.80441	104.76660
60600.00000	104.63552	1238.62936	104.63552
60650.00000	104.46349	1236.73383	104.46349
60700.00000	104.33302	1234.69878	104.33302
60750.00000	104.22164	1232.71025	104.22164
60800.00000	104.10013	1230.96290	104.10013
60850.00000	104.04905	1229.19092	104.04905
60900.00000	103.96878	1227.50025	103.96878
60950.00000	103.90220	1225.99853	103.90220
61000.00000	103.86919	1224.28655	103.86919
61050.00000	103.86358	1222.41632	103.86358
61100.00000	103.87885	1220.63275	103.87885
61150.00000	103.85047	1218.90148	103.85047
61200.00000	103.88708	1216.89130	103.88708
61250.00000	103.91038	1215.06641	103.91038
61300.00000	103.96355	1213.40709	103.96355
61350.00000	104.01377	1211.16544	104.01377
61400.00000	104.06892	1209.32629	104.06892
61450.00000	104.13694	1206.97276	104.13694
61500.00000	104.20046	1204.85035	104.20046
61550.00000	104.28924	1202.50392	104.28924
61600.00000	104.41406	1200.21327	104.41406
61650.00000	104.45453	1197.62411	104.45453
61700.00000	104.56688	1194.78059	104.56688
61750.00000	104.62471	1192.04975	104.62471
61800.00000	104.69136	1189.29747	104.69136
61850.00000	104.77773	1186.28554	104.77773
61900.00000	104.79912	1183.09152	104.79912
61950.00000	104.84275	1179.93467	104.84275
62000.00000	104.85028	1176.79925	104.85028
62050.00000	104.89566	1173.70102	104.89566
62100.00000	104.87463	1170.36580	104.87463
62150.00000	104.87248	1166.92956	104.87248
62200.00000	104.79493	1163.80676	104.79493
62250.00000	104.72305	1160.39204	104.72305
62300.00000	104.67551	1157.17419	104.67551
62350.00000	104.59842	1153.80146	104.59842
62400.00000	104.47711	1150.61375	104.47711
62450.00000	104.39322	1147.49963	104.39322
62500.00000	104.21144	1144.09109	104.21144
62550.00000	104.08051	1141.16424	104.08051
62600.00000	103.92149	1138.01778	103.92149
62650.00000	103.73157	1135.27233	103.73157
62700.00000	103.57483	1132.51728	103.57483
62750.00000	103.36786	1129.85214	103.36786
62800.00000	103.16422	1127.27525	103.16422
62850.00000	102.96327	1124.93260	102.96327
62900.00000	102.77881	1122.47450	102.77881
62950.00000	102.55755	1120.18264	102.55755
63000.00000	102.35464	1118.60516	102.35464
63050.00000	102.17201	1116.89375	102.17201
63100.00000	101.98963	1115.03975	101.98963
63150.00000	101.85114	1113.59271	101.85114
63200.00000	101.73568	1112.02165	101.73568
63250.00000	101.61111	1111.01519	101.61111
63300.00000	101.55882	1109.21962	101.55882
63350.00000	101.49194	1108.53211	101.49194
63400.00000	101.43710	1107.19620	101.43710
63450.00000	101.40050	1105.74211	101.40050
63500.00000	101.38797	1104.62255	101.38797
63550.00000	101.46518	1103.39513	101.46518
63600.00000	101.51176	1101.40427	101.51176
63650.00000	101.61355	1100.50077	101.61355
63700.00000	101.71662	1099.04733	101.71662
63750.00000	101.82220	1097.18025	101.82220
63800.00000	101.90907	1095.50321	101.90907
63850.00000	102.08032	1093.35462	102.08032
63900.00000	102.24025	1091.50144	102.24025
63950.00000	102.37694	1089.02394	102.37694
64000.00000	102.54839	1086.96623	102.54839
64050.00000	102.71148	1084.30196	102.71148
64100.00000	102.96347	1081.77713	102.96347
64150.00000	103.13926	1078.69457	103.13926
64200.00000	103.33603	1075.68450	103.33603
64250.00000	103.49858	1071.98945	103.49858
64300.00000	103.67431	1068.10313	103.67431
64350.00000	103.74551	1063.94818	103.74551
64400.00000	103.78274	1059.52992	103.78274
64450.00000	103.77357	1055.56058	103.77357
64500.00000	103.72616	1051.53308	103.72616
64550.00000	103.52274	1047.34317	103.52274
64600.00000	103.43032	1043.97702	103.43032
64650.00000	103.15560	1040.59237	103.15560
64700.00000	103.12363	1037.79151	103.12363
64750.00000	102.97905	1035.43411	102.97905
64800.00000	102.97330	1032.60467	102.97330
64850.00000	103.05220	1029.38935	103.05220
64900.00000	103.04081	1026.02435	103.04081
64950.00000	103.04690	1022.31867	103.04690
65000.00000	103.01596	1017.73075	103.01596
65050.00000	102.90787	1013.49099	102.90787
65100.00000	102.76374	1008.84645	102.76374
65150.00000	102.39936	1003.78320	102.39936
65200.00000	101.96075	999.36032	101.96075
65250.00000	101.44982	995.68826	101.44982
65300.00000	100.79013	992.55926	100.79013
65350.00000	100.13438	991.11154	100.13438
65400.00000	99.48008	990.93809	99.48008
65450.00000	98.95568	991.23555	98.95568
65500.00000	98.67979	993.64533	98.67979
65550.00000	98.60143	995.38361	98.60143
65600.00000	98.71345	996.20952	98.71345
65650.00000	98.97978	997.25343	98.97978
65700.00000	99.32644	996.76459	99.32644
65750.00000	99.69021	995.84378	99.69021
65800.00000	100.03727	993.53036	100.03727
65850.00000	100.37604	991.57854	100.37604
65900.00000	100.63225	988.67368	100.63225
65950.00000	100.90417	985.32063	100.90417
66000.00000	101.25511	981.91404	101.25511
66050.00000	101.46570	977.98525	101.46570
66100.00000	101.61576	973.36372	101.61576
66150.00000	101.72783	968.85867	101.72783
66200.00000	101.73221	963.92317	101.73221
66250.00000	101.66670	959.22669	101.66670
66300.00000	101.52903	954.30831	101.52903
66350.00000	101.30508	949.74122	101.30508
66400.00000	101.03305	945.88253	101.03305
66450.00000	100.71396	942.29040	100.71396
66500.00000	100.53251	938.82595	100.53251
66550.00000	100.15551	935.98398	100.15551
66600.00000	99.84761	933.32182	99.84761
66650.00000	99.64886	930.52769	99.64886
66700.00000	99.45228	928.77526	99.45228
66750.00000	99.17280	926.27221	99.17280
66800.00000	99.01007	924.10186	99.01007
66850.00000	98.76258	921.93562	98.76258
66900.00000	98.62975	919.87499	98.62975
66950.00000	98.45601	917.89213	98.45601
67000.00000	98.31105	915.63851	98.31105
67050.00000	98.15516	913.88295	98.15516
67100.00000	98.06102	911.72793	98.06102
67150.00000	97.97068	910.08441	97.97068
67200.00000	97.87793	908.15599	97.87793
67250.00000	97.79630	905.59122	97.79630
67300.00000	97.74586	903.28103	97.74586
67350.00000	97.63122	901.04717	97.63122
67400.00000	97.55047	898.45496	97.55047
67450.00000	97.44252	896.09066	97.44252
67500.00000	97.22490	893.68409	97.22490
67550.00000	97.09078	890.75825	97.09078
67600.00000	96.95439	889.03015	96.95439
67650.00000	96.71633	886.70504	96.71633
67700.00000	96.47972	884.77269	96.47972
67750.00000	96.28080	883.12208	96.28080
67800.00000	96.05410	881.90349	96.05410
67850.00000	95.91572	881.15642	95.91572
67900.00000	95.76443	880.24734	95.76443
67950.00000	95.72755	879.83955	95.72755
68000.00000	95.78290	879.01478	95.78290
68050.00000	95.76126	878.56514	95.76126
68100.00000	95.89150	877.86191	95.89150
68150.00000	95.96375	876.36830	95.96375
68200.00000	96.16855	875.14180	96.16855
68250.00000	96.35442	873.92872	96.35442
68300.00000	96.54551	871.97330	96.54551
68350.00000	96.69977	870.26915	96.69977
68400.00000	96.87590	868.27611	96.87590
68450.00000	97.10658	865.88609	97.10658
68500.00000	97.35365	863.58405	97.35365
68550.00000	97.58818	860.97214	97.58818
68600.00000	97.79248	858.30578	97.79248
68650.00000	98.05901	855.30594	98.05901
68700.00000	98.24994	851.97901	98.24994
68750.00000	98.54282	848.47452	98.54282
68800.00000	98.69706	844.21858	98.69706
68850.00000	98.88636	840.49773	98.88636
68900.00000	99.04098	836.13494	99.04098
68950.00000	99.20770	831.66774	99.20770
69000.00000	99.31758	827.13837	99.31758
69050.00000	99.32231	822.30155	99.32231
69100.00000	99.41294	817.69538	99.41294
69150.00000	99.43875	812.82573	99.43875
69200.00000	99.41994	808.43542	99.41994
69250.00000	99.41524	803.65035	99.41524
69300.00000	99.36094	798.80220	99.36094
69350.00000	99.29620	793.90464	99.29620
69400.00000	99.19885	788.71965	99.19885
69450.00000	99.08898	783.33503	99.08898
69500.00000	98.91149	778.05917	98.91149
69550.00000	98.73550	772.55873	98.73550
69600.00000	98.45001	767.01295	98.45001
69650.00000	98.14411	761.85185	98.14411
69700.00000	97.72059	756.25733	97.72059
69750.00000	97.32872	750.72959	97.32872
69800.00000	96.76527	745.78138	96.76527
69850.00000	96.16276	740.55529	96.16276
69900.00000	95.57142	736.51955	95.57142
69950.00000	94.85544	732.05868	94.85544
70000.00000	94.19911	728.66512	94.19911
70050.00000	93.44052	726.29564	93.44052
70100.00000	92.66818	723.31337	92.66818
70150.00000	91.92091	721.37104	91.92091
70200.00000	91.22156	721.11279	91.22156
70250.00000	90.50706	720.24045	90.50706
70300.00000	89.76351	720.30998	89.76351
70350.00000	89.20505	721.07881	89.20505
70400.00000	88.69918	723.06285	88.69918
70450.00000	88.43645	724.10020	88.43645
70500.00000	88.09044	725.68244	88.09044
70550.00000	87.87100	726.97577	87.87100
70600.00000	87.82797	728.23738	87.82797
70650.00000	87.79808	729.67591	87.79808
70700.00000	87.78214	728.79457	87.78214
70750.00000	88.09373	729.36421	88.09373
70800.00000	88.05607	729.84777	88.05607
70850.00000	88.25838	728.52414	88.25838
70900.00000	88.49883	728.80878	88.49883
70950.00000	88.74979	728.50279	88.74979
71000.00000	89.02986	726.15244	89.02986
71050.00000	89.16407	725.51755	89.16407
71100.00000	89.50018	723.68157	89.50018
71150.00000	89.86528	721.53043	89.86528
71200.00000	90.33372	718.29214	90.33372
71250.00000	90.62546	714.99914	90.62546
71300.00000	90.99467	710.95976	90.99467
71350.00000	91.18952	706.72336	91.18952
71400.00000	91.40737	701.29424	91.40737
71450.00000	91.56348	696.31581	91.56348
71500.00000	91.37245	691.08187	91.37245
71550.00000	91.38665	685.73035	91.38665
71600.00000	91.30800	681.60195	91.30800
71650.00000	90.91636	676.08423	90.91636
71700.00000	90.84291	669.59483	90.84291
71750.00000	90.68747	665.77407	90.68747
71800.00000	90.29326	659.84081	90.29326
71850.00000	90.09336	655.75723	90.09336
71900.00000	89.63841	651.90443	89.63841
71950.00000	89.07704	644.34090	89.07704
72000.00000	88.75570	642.40281	88.75570
72050.00000	88.02705	640.92010	88.02705
72100.00000	87.56179	636.06388	87.56179
72150.00000	87.53083	633.78390	87.53083
72200.00000	87.31084	630.19604	87.31084
72250.00000	87.09488	625.58871	87.09488
72300.00000	86.89247	622.24088	86.89247
72350.00000	86.20208	614.84742	86.20208
72400.00000	86.22754	609.45088	86.22754
72450.00000	85.58750	605.16472	85.58750
72500.00000	84.78254	596.37832	84.78254
72550.00000	84.51702	592.08293	84.51702
72600.00000	83.18963	586.87187	83.18963
72650.00000	82.15712	576.91698	82.15712
72700.00000	81.14193	570.43771	81.14193
72750.00000	78.32144	563.62764	78.32144
72800.00000	77.14324	554.31345	77.14324
72850.00000	74.44116	551.53115	74.44116
72900.00000	69.90708	530.37267	69.90708
72950.00000	65.42167	540.50532	65.42167
73000.00000	61.32857	303.92628	61.32857
73050.00000	68.58593	338.06821	68.58593
73100.00000	71.17403	318.73723	71.17403
73150.00000	74.04916	319.70890	74.04916
73200.00000	75.29644	316.18680	75.29644
73250.00000	76.67860	306.51928	76.67860
73300.00000	78.06331	307.01805	78.06331
73350.00000	78.44695	297.74721	78.44695
73400.00000	79.39379	294.77365	79.39379
73450.00000	79.65570	290.49688	79.65570
73500.00000	80.18435	283.81072	80.18435
73550.00000	80.76934	283.15425	80.76934
73600.00000	80.77694	280.04777	80.77694
73650.00000	81.65494	271.55507	81.65494
73700.00000	81.98116	268.76819	81.98116
73750.00000	82.23993	263.09212	82.23993
73800.00000	82.89679	254.59552	82.89679
73850.00000	82.67041	249.54399	82.67041
73900.00000	83.05849	238.84437	83.05849
73950.00000	83.68623	232.51436	83.68623
74000.00000	83.07758	223.94934	83.07758
74050.00000	83.72342	212.06817	83.72342
74100.00000	83.61162	208.73605	83.61162
74150.00000	83.43954	192.50162	83.43954
74200.00000	83.50861	183.16979	83.50861
74250.00000	82.53429	172.49517	82.53429
74300.00000	83.86471	145.32447	83.86471
74350.00000	83.04803	134.38915	83.04803
74400.00000	80.38970	71.08618	80.38970
74450.00000	76.71302	-102.96193	76.71302
74500.00000	81.34241	-172.95861	81.34241
74550.00000	80.34745	-214.56769	80.34745
74600.00000	79.53498	-234.15561	79.53498
74650.00000	80.36057	-256.09316	80.36057
74700.00000	79.47516	-271.10112	79.47516
74750.00000	80.34201	-286.00638	80.34201
74800.00000	80.84535	-303.54986	80.84535
74850.00000	80.34064	-315.04923	80.34064
74900.00000	80.69454	-330.20058	80.69454
74950.00000	81.25717	-342.08418	81.25717
75000.00000	81.21452	-351.11709	81.21452
75050.00000	81.79862	-363.43314	81.79862
75100.00000	81.89930	-370.60648	81.89930
75150.00000	81.54807	-380.90134	81.54807
75200.00000	82.63068	-390.99819	82.63068
75250.00000	82.21957	-394.58852	82.21957
75300.00000	82.32102	-405.80494	82.32102
75350.00000	82.80504	-406.70605	82.80504
75400.00000	82.46347	-416.85938	82.46347
75450.00000	82.85290	-420.57519	82.85290
75500.00000	82.65431	-423.97170	82.65431
75550.00000	82.92349	-433.63428	82.92349
75600.00000	83.65782	-433.48153	83.65782
75650.00000	82.42142	-438.93396	82.42142
75700.00000	83.07978	-447.15202	83.07978
75750.00000	83.24119	-444.64396	83.24119
75800.00000	83.00755	-455.83073	83.00755
75850.00000	83.78107	-456.05575	83.78107
75900.00000	82.71242	-456.83206	82.71242
75950.00000	83.09769	-464.06365	83.09769
76000.00000	83.38315	-464.05409	83.38315
76050.00000	82.48287	-470.75320	82.48287
76100.00000	83.78108	-473.10350	83.78108
76150.00000	83.20000	-473.79445	83.20000
76200.00000	83.31510	-483.00049	83.31510
76250.00000	84.03719	-480.54304	84.03719
76300.00000	83.07627	-484.40968	83.07627
76350.00000	84.22632	-490.87388	84.22632
76400.00000	84.30037	-485.27053	84.30037
76450.00000	82.99079	-495.63409	82.99079
76500.00000	84.69635	-495.23687	84.69635
76550.00000	83.95520	-493.35228	83.95520
76600.00000	84.12558	-505.25427	84.12558
76650.00000	84.95930	-503.12964	84.95930
76700.00000	83.36408	-506.69233	83.36408
76750.00000	84.94545	-514.44028	84.94545
76800.00000	84.58008	-509.51508	84.58008
76850.00000	84.03433	-521.24247	84.03433
76900.00000	85.91536	-519.85616	85.91536
76950.00000	84.05430	-517.86221	84.05430
77000.00000	84.55661	-532.69556	84.55661
77050.00000	85.56274	-525.77248	85.56274
77100.00000	83.95093	-533.38121	83.95093
77150.00000	85.63797	-540.88899	85.63797
77200.00000	84.94036	-531.41402	84.94036
77250.00000	83.93576	-549.27488	83.93576
77300.00000	85.86969	-543.48117	85.86969
77350.00000	84.14062	-543.66700	84.14062
77400.00000	85.00605	-559.23411	85.00605
77450.00000	85.65351	-547.73942	85.65351
77500.00000	83.64088	-558.73506	83.64088
77550.00000	85.95248	-562.81187	85.95248
77600.00000	84.69636	-554.43545	84.69636
77650.00000	84.26984	-573.70887	84.26984
77700.00000	85.95801	-565.63455	85.95801
77750.00000	83.75873	-564.55017	83.75873
77800.00000	85.44660	-580.64139	85.44660
77850.00000	85.47348	-569.28999	85.47348
77900.00000	83.62924	-583.23843	83.62924
77950.00000	86.13632	-585.17202	86.13632
78000.00000	84.50650	-578.92714	84.50650
78050.00000	84.79936	-597.28748	84.79936
78100.00000	85.91097	-589.09037	85.91097
78150.00000	83.71531	-593.87998	83.71531
78200.00000	85.58829	-605.44815	85.58829
78250.00000	85.21247	-597.91655	85.21247
78300.00000	84.09823	-611.83091	84.09823
78350.00000	85.70430	-608.09256	85.70430
78400.00000	83.99939	-607.28887	83.99939
78450.00000	84.55417	-624.21427	84.55417
78500.00000	84.97207	-614.09136	84.97207
78550.00000	83.36899	-622.77442	83.36899
78600.00000	84.89877	-627.28832	84.89877
78650.00000	83.86353	-620.47920	83.86353
78700.00000	83.70219	-637.35392	83.70219
78750.00000	84.75021	-631.41462	84.75021
78800.00000	82.81786	-636.22530	82.81786
78850.00000	84.31299	-644.15628	84.31299
78900.00000	83.40223	-637.68547	83.40223
78950.00000	83.06953	-650.08605	83.06953
79000.00000	84.31798	-647.48897	84.31798
79050.00000	82.45202	-649.53834	82.45202
79100.00000	83.54618	-658.84987	83.54618
79150.00000	83.13293	-650.51717	83.13293
79200.00000	82.39559	-663.49555	82.39559
79250.00000	83.39161	-662.69616	83.39161
79300.00000	81.95416	-661.66779	81.95416
79350.00000	82.58505	-672.82029	82.58505
79400.00000	82.64264	-666.39316	82.64264
79450.00000	81.45788	-675.35287	81.45788
79500.00000	82.73392	-676.49916	82.73392
79550.00000	81.57579	-673.00681	81.57579
79600.00000	81.53953	-684.94964	81.53953
79650.00000	82.01347	-680.39582	82.01347
79700.00000	80.70726	-686.86130	80.70726
79750.00000	81.87743	-689.80413	81.87743
79800.00000	80.79673	-687.90823	80.79673
79850.00000	80.86318	-698.22072	80.86318
79900.00000	81.22588	-694.38500	81.22588
79950.00000	80.08310	-700.48341	80.08310
80000.00000	80.75019	-702.70065	80.75019
80050.00000	80.39714	-702.09471	80.39714
80100.00000	79.70555	-711.04082	79.70555
80150.00000	79.71446	-710.30054	79.71446
80200.00000	79.08572	-714.96857	79.08572
80250.00000	79.63768	-719.92014	79.63768
80300.00000	78.65411	-716.78029	78.65411
80350.00000	78.08441	-727.42772	78.08441
80400.00000	78.10442	-724.61705	78.10442
80450.00000	76.62649	-724.56443	76.62649
80500.00000	77.01522	-728.78431	77.01522
80550.00000	76.35736	-726.24514	76.35736
80600.00000	76.11899	-730.92519	76.11899
80650.00000	76.39558	-726.96472	76.39558
80700.00000	75.31801	-729.97635	75.31801
80750.00000	75.84820	-732.46897	75.84820
80800.00000	75.03388	-728.50924	75.03388
80850.00000	75.02333	-734.69017	75.02333
80900.00000	75.24172	-734.89260	75.24172
80950.00000	73.72664	-737.45519	73.72664
81000.00000	73.58315	-739.78060	73.58315
81050.00000	73.29385	-739.01159	73.29385
81100.00000	72.08083	-744.94797	72.08083
81150.00000	72.11346	-737.46234	72.11346
81200.00000	70.20308	-736.72582	70.20308
81250.00000	70.22910	-736.65420	70.22910
81300.00000	69.51780	-731.08855	69.51780
81350.00000	68.19328	-731.48065	68.19328
81400.00000	69.33593	-720.87925	69.33593
81450.00000	68.25828	-714.45834	68.25828
81500.00000	68.24930	-712.73474	68.24930
81550.00000	69.32541	-704.36934	69.32541
81600.00000	69.38284	-699.43125	69.38284
81650.00000	71.00746	-699.24168	71.00746
81700.00000	70.80184	-692.44189	70.80184
81750.00000	70.98604	-694.92692	70.98604
81800.00000	71.90727	-693.76951	71.90727
81850.00000	71.57841	-692.71371	71.57841
81900.00000	73.17868	-691.05301	73.17868
81950.00000	73.23325	-688.22726	73.23325
82000.00000	73.80330	-689.73131	73.80330
82050.00000	74.26683	-688.42510	74.26683
82100.00000	74.88974	-689.22906	74.88974
82150.00000	75.57558	-688.84073	75.57558
82200.00000	76.00614	-690.61520	76.00614
82250.00000	76.71970	-690.53571	76.71970
82300.00000	76.91818	-690.98926	76.91818
82350.00000	77.24439	-692.35902	77.24439
82400.00000	77.93704	-691.72824	77.93704
82450.00000	78.10499	-691.00477	78.10499
82500.00000	78.52426	-694.55845	78.52426
82550.00000	79.38340	-692.22954	79.38340
82600.00000	79.82231	-692.07153	79.82231
82650.00000	80.81681	-691.08966	80.81681
82700.00000	81.93504	-689.53951	81.93504
82750.00000	83.17770	-693.57458	83.17770
82800.00000	84.52372	-696.83018	84.52372
82850.00000	85.68776	-702.64267	85.68776
82900.00000	86.70366	-711.25730	86.70366
82950.00000	87.34012	-718.66104	87.34012
83000.00000	88.04471	-725.96714	88.04471
83050.00000	88.42880	-732.44515	88.42880
83100.00000	88.97999	-738.58753	88.97999
83150.00000	89.31213	-744.07446	89.31213
83200.00000	89.66914	-749.72997	89.66914
83250.00000	89.94680	-754.39310	89.94680
83300.00000	90.34979	-759.29359	90.34979
83350.00000	90.62130	-763.08759	90.62130
83400.00000	91.01266	-768.52000	91.01266
83450.00000	91.29875	-773.60886	91.29875
83500.00000	91.51189	-778.93743	91.51189
83550.00000	91.78015	-784.83225	91.78015
83600.00000	92.01831	-789.89176	92.01831
83650.00000	92.05463	-796.37802	92.05463
83700.00000	92.23074	-801.26060	92.23074
83750.00000	92.31078	-808.05710	92.31078
83800.00000	92.30742	-814.15194	92.30742
83850.00000	92.09965	-819.66043	92.09965
83900.00000	91.91957	-826.57332	91.91957
83950.00000	91.69599	-832.64554	91.69599
84000.00000	91.22617	-838.89057	91.22617
84050.00000	90.65962	-842.61527	90.65962
84100.00000	90.08727	-846.14718	90.08727
84150.00000	89.49722	-848.85267	89.49722
84200.00000	88.94689	-848.19950	88.94689
84250.00000	88.57620	-847.14572	88.57620
84300.00000	88.63378	-845.70167	88.63378
84350.00000	89.00849	-844.19567	89.00849
84400.00000	89.66896	-844.42968	89.66896
84450.00000	90.32918	-846.12037	90.32918
84500.00000	91.00440	-849.99489	91.00440
84550.00000	91.58245	-854.05979	91.58245
84600.00000	92.12652	-859.09882	92.12652
84650.00000	92.67653	-865.10850	92.67653
84700.00000	93.05365	-870.81937	93.05365
84750.00000	93.30331	-877.18496	93.30331
84800.00000	93.45994	-884.34932	93.45994
84850.00000	93.59777	-891.08659	93.59777
84900.00000	93.72959	-897.70042	93.72959
84950.00000	93.66544	-904.36927	93.66544
85000.00000	93.68842	-911.02186	93.68842
85050.00000	93.62810	-917.81661	93.62810
85100.00000	93.44054	-924.38382	93.44054
85150.00000	93.25168	-931.10640	93.25168
85200.00000	92.98600	-937.08553	92.98600
85250.00000	93.20715	-944.21708	93.20715
85300.00000	92.47440	-949.70525	92.47440
85350.00000	92.03017	-955.96552	92.03017
85400.00000	91.78296	-961.22556	91.78296
85450.00000	91.33525	-967.17160	91.33525
85500.00000	90.89436	-972.66137	90.89436
85550.00000	90.44213	-977.57460	90.44213
85600.00000	89.80175	-982.72759	89.80175
85650.00000	89.39074	-987.96188	89.39074
85700.00000	88.72606	-992.58932	88.72606
85750.00000	88.30367	-997.17861	88.30367
85800.00000	87.64584	-1000.07824	87.64584
85850.00000	86.96699	-1005.51374	86.96699
85900.00000	86.30380	-1009.09863	86.30380
85950.00000	85.66545	-1011.67340	85.66545
86000.00000	85.23414	-1013.69911	85.23414
86050.00000	84.46231	-1017.11143	84.46231
86100.00000	84.15919	-1018.24734	84.15919
86150.00000	83.50259	-1021.67428	83.50259
86200.00000	83.08377	-1022.87852	83.08377
86250.00000	82.50314	-1022.89781	82.50314
86300.00000	81.87254	-1026.53020	81.87254
86350.00000	81.64877	-1027.46926	81.64877
86400.00000	80.47026	-1032.87709	80.47026
86450.00000	80.07461	-1031.80984	80.07461
86500.00000	79.52608	-1032.34388	79.52608
86550.00000	79.25080	-1033.74566	79.25080
86600.00000	78.70910	-1035.21827	78.70910
86650.00000	78.54909	-1033.38943	78.54909
86700.00000	78.31989	-1033.88553	78.31989
86750.00000	77.77716	-1031.85656	77.77716
86800.00000	77.57015	-1036.34368	77.57015
86850.00000	77.30897	-1035.54135	77.30897
86900.00000	76.80242	-1035.69254	76.80242
86950.00000	76.63380	-1036.26975	76.63380
87000.00000	76.17631	-1037.11634	76.17631
87050.00000	75.88039	-1035.09354	75.88039
87100.00000	75.35151	-1038.48389	75.35151
87150.00000	75.07439	-1037.32517	75.07439
87200.00000	75.30781	-1035.63580	75.30781
87250.00000	74.48054	-1033.32578	74.48054
87300.00000	74.32333	-1035.34460	74.32333
87350.00000	74.29313	-1037.00119	74.29313
87400.00000	73.85721	-1032.70011	73.85721
87450.00000	73.97214	-1034.04589	73.97214
87500.00000	73.75365	-1030.30524	73.75365
87550.00000	73.74872	-1029.88788	73.74872
87600.00000	73.81450	-1030.51241	73.81450
87650.00000	73.96502	-1027.35573	73.96502
87700.00000	73.73313	-1028.99926	73.73313
87750.00000	74.19447	-1027.36110	74.19447
87800.00000	74.24617	-1027.11730	74.24617
87850.00000	74.20963	-1025.51174	74.20963
87900.00000	74.17714	-1024.96282	74.17714
87950.00000	74.90013	-1026.19868	74.90013
88000.00000	74.88177	-1025.05076	74.88177
88050.00000	75.22226	-1026.69882	75.22226
88100.00000	75.50222	-1024.98574	75.50222
88150.00000	75.77539	-1028.65902	75.77539
88200.00000	76.32389	-1028.82632	76.32389
88250.00000	76.59960	-1028.88722	76.59960
88300.00000	76.57188	-1028.33097	76.57188
88350.00000	76.77527	-1031.92328	76.77527
88400.00000	77.36100	-1033.16019	77.36100
88450.00000	77.90854	-1034.94341	77.90854
88500.00000	78.08946	-1036.84451	78.08946
88550.00000	78.66796	-1039.75301	78.66796
88600.00000	78.41566	-1042.76695	78.41566
88650.00000	78.43116	-1043.34683	78.43116
88700.00000	79.12349	-1044.96108	79.12349
88750.00000	79.51058	-1048.36618	79.51058
88800.00000	79.76302	-1051.42704	79.76302
88850.00000	79.97086	-1055.65865	79.97086
88900.00000	80.43039	-1056.77942	80.43039
88950.00000	80.36484	-1060.31727	80.36484
89000.00000	80.32792	-1062.73934	80.32792
89050.00000	80.55785	-1067.93487	80.55785
89100.00000	80.51661	-1069.72116	80.51661
89150.00000	80.36050	-1074.01274	80.36050
89200.00000	80.73558	-1076.17605	80.73558
89250.00000	80.42037	-1080.88867	80.42037
89300.00000	80.61942	-1083.64502	80.61942
89350.00000	80.65055	-1087.57925	80.65055
89400.00000	80.70745	-1089.01932	80.70745
89450.00000	80.88535	-1091.51477	80.88535
89500.00000	80.91937	-1096.69540	80.91937
89550.00000	80.45513	-1096.78911	80.45513
89600.00000	80.33732	-1101.40955	80.33732
89650.00000	80.36612	-1103.52619	80.36612
89700.00000	80.16274	-1102.72412	80.16274
89750.00000	80.29063	-1106.93596	80.29063
89800.00000	79.74871	-1104.78633	79.74871
89850.00000	79.68013	-1106.94454	79.68013
89900.00000	79.64858	-1110.14844	79.64858
89950.00000	80.02488	-1106.21671	80.02488
90000.00000	79.90564	-1098.43776	79.90564
90050.00000	80.58896	-1094.60538	80.58896
90100.00000	82.56495	-1097.48784	82.56495
90150.00000	83.70606	-1096.09908	83.70606
90200.00000	86.53442	-1102.64077	86.53442
90250.00000	87.73821	-1126.12739	87.73821
90300.00000	87.38871	-1145.09609	87.38871
90350.00000	85.81365	-1156.86225	85.81365
90400.00000	84.90451	-1160.03474	84.90451
90450.00000	84.20456	-1163.41712	84.20456
90500.00000	83.12308	-1166.73664	83.12308
90550.00000	82.70948	-1168.99678	82.70948
90600.00000	82.43011	-1168.09093	82.43011
90650.00000	82.45542	-1171.58681	82.45542
90700.00000	82.08606	-1174.63374	82.08606
90750.00000	82.00745	-1172.48334	82.00745
90800.00000	81.95156	-1175.60393	81.95156
90850.00000	82.04463	-1177.61097	82.04463
90900.00000	81.99375	-1179.76818	81.99375
90950.00000	81.99807	-1179.72733	81.99807
91000.00000	82.17830	-1181.20029	82.17830
91050.00000	82.29556	-1185.15926	82.29556
91100.00000	82.68715	-1186.79410	82.68715
91150.00000	82.72145	-1188.36782	82.72145
91200.00000	82.94162	-1192.23991	82.94162
91250.00000	83.17642	-1195.19847	83.17642
91300.00000	83.04097	-1198.51257	83.04097
91350.00000	83.29692	-1202.30794	83.29692
91400.00000	83.39258	-1205.20189	83.39258
91450.00000	83.51158	-1206.39498	83.51158
91500.00000	83.78668	-1211.18136	83.78668
91550.00000	83.67867	-1215.24063	83.67867
91600.00000	84.03337	-1217.90855	84.03337
91650.00000	83.97164	-1222.03291	83.97164
91700.00000	84.03681	-1225.64043	84.03681
91750.00000	84.16004	-1228.64137	84.16004
91800.00000	84.18744	-1232.29839	84.18744
91850.00000	84.33251	-1237.80027	84.33251
91900.00000	84.65718	-1241.24491	84.65718
91950.00000	84.48842	-1243.42962	84.48842
92000.00000	84.70029	-1248.39928	84.70029
92050.00000	84.72774	-1252.42631	84.72774
92100.00000	84.84942	-1257.32541	84.84942
92150.00000	84.72778	-1260.46459	84.72778
92200.00000	84.65201	-1264.95769	84.65201
92250.00000	84.86140	-1267.62216	84.86140
92300.00000	84.95721	-1271.99357	84.95721
92350.00000	84.78237	-1276.98316	84.78237
92400.00000	84.79360	-1281.85884	84.79360
92450.00000	84.88518	-1285.30191	84.88518
92500.00000	84.79445	-1290.04202	84.79445
92550.00000	84.85223	-1294.44522	84.85223
92600.00000	84.85189	-1298.73300	84.85189
92650.00000	84.60649	-1302.76705	84.60649
92700.00000	84.50747	-1306.96610	84.50747
92750.00000	84.40631	-1311.68086	84.40631
92800.00000	84.50172	-1315.18224	84.50172
92850.00000	84.32910	-1320.29139	84.32910
92900.00000	84.17740	-1325.60345	84.17740
92950.00000	83.89207	-1327.90567	83.89207
93000.00000	83.99296	-1333.07239	83.99296
93050.00000	83.71145	-1338.36403	83.71145
93100.00000	83.49056	-1343.07519	83.49056
93150.00000	83.48335	-1346.02226	83.48335
93200.00000	83.19843	-1351.66940	83.19843
93250.00000	82.92951	-1352.99582	82.92951
93300.00000	82.92977	-1359.30020	82.92977
93350.00000	82.41934	-1364.96711	82.41934
93400.00000	82.31304	-1367.61934	82.31304
93450.00000	81.93793	-1371.08161	81.93793
93500.00000	82.07462	-1374.83690	82.07462
93550.00000	81.50229	-1377.73830	81.50229
93600.00000	81.36423	-1382.95616	81.36423
93650.00000	81.05303	-1384.88922	81.05303
93700.00000	80.62452	-1388.98769	80.62452
93750.00000	80.49677	-1391.36751	80.49677
93800.00000	80.68451	-1396.04751	80.68451
93850.00000	80.38202	-1400.14158	80.38202
93900.00000	79.98675	-1404.38300	79.98675
93950.00000	79.83707	-1406.99906	79.83707
94000.00000	79.60042	-1409.17575	79.60042
94050.00000	79.52778	-1414.77818	79.52778
94100.00000	79.34946	-1416.54273	79.34946
94150.00000	79.06616	-1419.10063	79.06616
94200.00000	79.27752	-1424.47642	79.27752
94250.00000	79.19392	-1429.41263	79.19392
94300.00000	78.84207	-1434.90081	78.84207
94350.00000	78.17886	-1436.14970	78.17886
94400.00000	78.45516	-1438.02579	78.45516
94450.00000	78.10987	-1442.68030	78.10987
94500.00000	78.09507	-1447.20905	78.09507
94550.00000	77.41973	-1451.41391	77.41973
94600.00000	77.37081	-1454.57865	77.37081
94650.00000	77.06650	-1462.54227	77.06650
94700.00000	76.73918	-1464.77461	76.73918
94750.00000	77.07569	-1468.73695	77.07569
94800.00000	76.18743	-1473.40968	76.18743
94850.00000	76.29902	-1477.20551	76.29902
94900.00000	75.69727	-1479.44963	75.69727
94950.00000	75.77663	-1485.53538	75.77663
95000.00000	75.04302	-1487.02098	75.04302
95050.00000	74.84570	-1493.68552	74.84570
95100.00000	74.71036	-1499.42444	74.71036
95150.00000	74.25231	-1499.50795	74.25231
95200.00000	73.87300	-1499.77205	73.87300
95250.00000	72.93876	-1509.28802	72.93876
95300.00000	72.79815	-1510.37404	72.79815
95350.00000	72.55485	-1509.61017	72.55485
95400.00000	72.11916	-1516.75257	72.11916
95450.00000	72.13582	-1515.62716	72.13582
95500.00000	70.79379	-1515.91036	70.79379
95550.00000	72.11921	-1518.34269	72.11921
95600.00000	71.68462	-1524.85986	71.68462
95650.00000	70.85840	-1528.37728	70.85840
95700.00000	71.39246	-1526.79558	71.39246
95750.00000	70.84176	-1526.01908	70.84176
95800.00000	70.40858	-1526.47891	70.40858
95850.00000	71.28117	-1537.06954	71.28117
95900.00000	71.33656	-1540.25095	71.33656
95950.00000	71.66260	-1541.25794	71.66260
96000.00000	71.85724	-1541.55719	71.85724
96050.00000	71.72917	-1557.58418	71.72917
96100.00000	71.81931	-1563.07857	71.81931
96150.00000	71.69671	-1566.92550	71.69671
96200.00000	72.24782	-1568.76832	72.24782
96250.00000	71.51106	-1580.73897	71.51106
96300.00000	73.38993	-1595.22377	73.38993
96350.00000	70.89403	-1596.97923	70.89403
96400.00000	71.22330	-1598.72169	71.22330
96450.00000	70.10685	-1613.67513	70.10685
96500.00000	70.68468	-1594.75344	70.68468
96550.00000	68.42872	-1619.65266	68.42872
96600.00000	69.05398	-1621.46944	69.05398
96650.00000	71.54183	-1647.35010	71.54183
96700.00000	68.82251	-1622.79518	68.82251
96750.00000	69.87312	-1638.64941	69.87312
96800.00000	66.64374	-1629.83002	66.64374
96850.00000	69.22440	-1673.18020	69.22440
96900.00000	69.72077	-1664.98663	69.72077
96950.00000	67.17925	-1689.06987	67.17925
97000.00000	68.36114	-1691.08391	68.36114
97050.00000	70.85735	-1680.49909	70.85735
97100.00000	71.59513	-1698.98554	71.59513
97150.00000	70.31177	-1703.31996	70.31177
97200.00000	70.57475	-1690.23892	70.57475
97250.00000	69.98047	-1722.69285	69.98047
97300.00000	70.60057	-1741.74272	70.60057
97350.00000	70.40197	-1762.05052	70.40197
97400.00000	70.17266	-1755.42768	70.17266
97450.00000	60.70367	-1793.42047	60.70367
97500.00000	60.80450	-1767.63878	60.80450
97550.00000	57.78818	-1738.80447	57.78818
97600.00000	62.08407	-1774.23718	62.08407
97650.00000	61.64169	-1765.93729	61.64169
97700.00000	60.82170	-1729.97963	60.82170
97750.00000	60.32953	-1766.64681	60.32953
97800.00000	60.85311	-1746.35204	60.85311
97850.00000	62.70771	-1748.78346	62.70771
97900.00000	56.04446	-1786.41134	56.04446
97950.00000	59.44783	-1735.99679	59.44783
98000.00000	62.30945	-1768.51387	62.30945
98050.00000	62.77007	-1769.18829	62.77007
98100.00000	61.77412	-1772.96307	61.77412
98150.00000	63.14784	-1762.28578	63.14784
98200.00000	61.91112	-1769.08043	61.91112
98250.00000	61.96503	-1795.97459	61.96503
98300.00000	62.37393	-1789.13738	62.37393
98350.00000	62.46087	-1774.91873	62.46087
98400.00000	62.34953	-1783.54133	62.34953
98450.00000	63.63801	-1776.53411	63.63801
98500.00000	62.97371	-1794.57047	62.97371
98550.00000	61.93264	-1805.43687	61.93264
98600.00000	61.20305	-1794.11712	61.20305
98650.00000	57.77947	-1756.78170	57.77947
98700.00000	62.29439	-1783.63740	62.29439
98750.00000	59.98136	-1810.09017	59.98136
98800.00000	58.63515	-1836.80633	58.63515
98850.00000	54.96029	-1809.06846	54.96029
98900.00000	61.14928	-1821.52948	61.14928
98950.00000	60.74019	-1823.77557	60.74019
99000.00000	59.88399	-1816.33821	59.88399
99050.00000	53.97136	-1789.84222	53.97136
99100.00000	55.03163	-1839.44768	55.03163
99150.00000	59.09566	-1850.29600	59.09566
99200.00000	52.44068	-1829.15528	52.44068
99250.00000	60.70459	-1860.55529	60.70459
99300.00000	54.61552	-1864.00178	54.61552
99350.00000	53.42151	-1798.99746	53.42151
99400.00000	54.31477	-1847.32379	54.31477
99450.00000	55.16798	-1839.52057	55.16798
99500.00000	46.92843	-1849.94167	46.92843
99550.00000	56.43188	-1822.25531	56.43188
99600.00000	44.98765	-1842.40028	44.98765
99650.00000	50.82687	-1859.57141	50.82687
99700.00000	50.42984	-1903.21957	50.42984
99750.00000	51.37499	-1860.75399	51.37499
99800.00000	56.32028	-1781.42302	56.32028
99850.00000	47.00720	-1860.56143	47.00720
99900.00000	43.86021	-1908.32876	43.86021
99950.00000	50.47763	-1803.68117	50.47763
