---ACOUSTIC CALIBRATION---
Filename: C:\Data\AZH DATA\AZH21\RightSecondary.calib
Date: 8/27/2019 12:04:32 PM
Format: 4
Probe Tube Correction File: C:\Data\Probe Tube Calibrations\50_ProbeTube.calib
Experiment VIs: 850
EPL_CFTS.exe V12.0.1 (2012)
DAQmx V9.6

Attenuation (dB): 40.000000
Min Freq (Hz): 50.000000
Max Freq (Hz): 49950.000000
Freq Step (Hz): 50.000000
Sample Rate (Hz): 100000.000000
[Smoothing]
Method=None
MA.Iterations=0
MA.Length=0
Loess.Length=0
Loess.Type=Linear
Loess.Robust=FALSE


Freq(Hz)	Mag(dB)	Phase(deg)	Unsmoothed(dB)

50.00000	105.24948	583.34752	105.24948
100.00000	84.98606	504.60974	84.98606
150.00000	83.73058	474.99244	83.73058
200.00000	85.87665	402.48388	85.87665
250.00000	88.98230	429.12592	88.98230
300.00000	91.41484	354.93330	91.41484
350.00000	87.33558	342.95846	87.33558
400.00000	85.77077	317.31399	85.77077
450.00000	85.37075	314.37340	85.37075
500.00000	81.63149	321.90954	81.63149
550.00000	86.96141	324.50626	86.96141
600.00000	90.65935	330.38206	90.65935
650.00000	92.42582	332.33147	92.42582
700.00000	94.90452	321.20918	94.90452
750.00000	96.48462	320.04923	96.48462
800.00000	99.57282	307.16814	99.57282
850.00000	101.80065	298.00245	101.80065
900.00000	103.41829	279.31720	103.41829
950.00000	104.78870	262.52399	104.78870
1000.00000	104.71941	244.61892	104.71941
1050.00000	104.16231	235.59555	104.16231
1100.00000	104.41592	223.76404	104.41592
1150.00000	103.65361	213.18504	103.65361
1200.00000	103.46041	210.71913	103.46041
1250.00000	103.50666	200.24866	103.50666
1300.00000	102.65843	194.34648	102.65843
1350.00000	101.81118	188.54392	101.81118
1400.00000	101.18824	189.80120	101.18824
1450.00000	101.26726	187.82527	101.26726
1500.00000	101.32649	189.22587	101.32649
1550.00000	101.28645	187.10491	101.28645
1600.00000	102.17477	184.29042	102.17477
1650.00000	102.77817	175.44977	102.77817
1700.00000	101.52733	171.19885	101.52733
1750.00000	101.62427	169.89161	101.62427
1800.00000	101.32449	165.97387	101.32449
1850.00000	101.00921	167.10190	101.00921
1900.00000	101.88885	169.67315	101.88885
1950.00000	103.01696	161.94455	103.01696
2000.00000	102.78728	152.63632	102.78728
2050.00000	101.71295	148.99471	101.71295
2100.00000	101.61085	147.29405	101.61085
2150.00000	101.24616	143.57309	101.24616
2200.00000	100.76169	140.47552	100.76169
2250.00000	99.79301	139.75958	99.79301
2300.00000	99.73064	143.17319	99.73064
2350.00000	99.51537	146.62105	99.51537
2400.00000	99.82104	146.79643	99.82104
2450.00000	99.87050	146.15493	99.87050
2500.00000	99.91882	149.43580	99.91882
2550.00000	100.37029	152.22368	100.37029
2600.00000	101.31222	156.23725	101.31222
2650.00000	102.69546	154.97676	102.69546
2700.00000	104.03808	147.93487	104.03808
2750.00000	104.46939	138.28905	104.46939
2800.00000	104.31984	129.82030	104.31984
2850.00000	103.98596	124.68929	103.98596
2900.00000	103.52507	119.71518	103.52507
2950.00000	103.22256	116.93164	103.22256
3000.00000	102.97095	113.66813	102.97095
3050.00000	102.58901	110.67003	102.58901
3100.00000	102.39860	108.98851	102.39860
3150.00000	102.14589	104.40749	102.14589
3200.00000	101.44713	102.18872	101.44713
3250.00000	100.48030	100.36560	100.48030
3300.00000	99.59588	99.84988	99.59588
3350.00000	98.15437	103.33402	98.15437
3400.00000	97.37449	112.36650	97.37449
3450.00000	97.39683	123.55850	97.39683
3500.00000	98.26981	129.61174	98.26981
3550.00000	98.87048	133.81541	98.87048
3600.00000	99.39220	135.96480	99.39220
3650.00000	99.33665	136.90839	99.33665
3700.00000	99.06208	142.26351	99.06208
3750.00000	99.68806	155.46347	99.68806
3800.00000	101.45825	163.62426	101.45825
3850.00000	103.50073	169.18425	103.50073
3900.00000	105.45497	167.88352	105.45497
3950.00000	107.12327	164.82778	107.12327
4000.00000	108.58075	160.53770	108.58075
4050.00000	109.66802	156.02188	109.66802
4100.00000	110.57242	151.92447	110.57242
4150.00000	111.54708	148.41262	111.54708
4200.00000	112.31309	144.98649	112.31309
4250.00000	113.23358	142.69218	113.23358
4300.00000	114.13260	139.94057	114.13260
4350.00000	115.18952	137.33173	115.18952
4400.00000	116.42857	134.53341	116.42857
4450.00000	117.70238	130.39385	117.70238
4500.00000	119.11211	125.26384	119.11211
4550.00000	120.51531	118.81084	120.51531
4600.00000	121.90006	111.07839	121.90006
4650.00000	123.27650	101.43878	123.27650
4700.00000	124.54441	90.08433	124.54441
4750.00000	125.57826	76.54795	125.57826
4800.00000	126.27722	61.40174	126.27722
4850.00000	126.47179	45.65834	126.47179
4900.00000	126.18962	30.47878	126.18962
4950.00000	125.48470	16.61731	125.48470
5000.00000	124.35896	 5.23425	124.35896
5050.00000	123.22735	-2.68844	123.22735
5100.00000	121.82513	-11.12005	121.82513
5150.00000	119.28441	-10.67504	119.28441
5200.00000	118.73218	10.08515	118.73218
5250.00000	122.07026	13.25674	122.07026
5300.00000	123.79317	-0.90297	123.79317
5350.00000	124.06499	-14.85922	124.06499
5400.00000	123.80812	-25.84794	123.80812
5450.00000	123.39167	-34.83610	123.39167
5500.00000	122.91018	-42.16429	122.91018
5550.00000	122.45117	-48.68658	122.45117
5600.00000	121.98430	-54.66666	121.98430
5650.00000	121.55862	-59.97379	121.55862
5700.00000	121.10119	-65.41841	121.10119
5750.00000	120.71080	-69.94949	120.71080
5800.00000	120.28905	-74.42930	120.28905
5850.00000	119.90868	-78.89743	119.90868
5900.00000	119.54027	-82.88411	119.54027
5950.00000	119.19121	-86.68068	119.19121
6000.00000	118.86459	-90.47480	118.86459
6050.00000	118.50612	-94.18767	118.50612
6100.00000	118.20108	-98.01208	118.20108
6150.00000	117.81992	-101.45046	117.81992
6200.00000	117.50296	-104.82806	117.50296
6250.00000	117.20026	-108.22902	117.20026
6300.00000	116.89994	-111.78460	116.89994
6350.00000	116.57931	-114.80722	116.57931
6400.00000	116.24109	-118.19173	116.24109
6450.00000	115.97835	-121.09906	115.97835
6500.00000	115.66261	-124.05243	115.66261
6550.00000	115.40606	-126.53941	115.40606
6600.00000	115.06834	-129.66813	115.06834
6650.00000	114.67944	-132.27997	114.67944
6700.00000	114.38671	-135.12668	114.38671
6750.00000	114.04456	-137.07365	114.04456
6800.00000	113.79962	-139.33658	113.79962
6850.00000	113.58014	-141.07370	113.58014
6900.00000	113.28688	-143.45838	113.28688
6950.00000	113.04165	-144.96718	113.04165
7000.00000	112.84702	-147.16965	112.84702
7050.00000	112.63609	-148.92886	112.63609
7100.00000	112.42587	-150.92191	112.42587
7150.00000	112.27919	-152.54264	112.27919
7200.00000	112.13552	-154.17967	112.13552
7250.00000	111.93512	-156.11360	111.93512
7300.00000	111.81499	-157.72427	111.81499
7350.00000	111.76683	-157.94664	111.76683
7400.00000	111.61321	-159.62532	111.61321
7450.00000	111.60515	-160.96354	111.60515
7500.00000	111.67332	-162.66063	111.67332
7550.00000	111.74769	-164.01186	111.74769
7600.00000	111.80776	-165.89681	111.80776
7650.00000	111.87956	-167.53463	111.87956
7700.00000	112.04770	-170.07424	112.04770
7750.00000	112.12864	-172.27351	112.12864
7800.00000	112.36353	-175.37435	112.36353
7850.00000	112.38543	-178.62082	112.38543
7900.00000	112.45863	-182.02447	112.45863
7950.00000	112.49766	-185.84544	112.49766
8000.00000	112.49411	-189.13433	112.49411
8050.00000	112.51346	-193.48539	112.51346
8100.00000	112.45105	-196.82739	112.45105
8150.00000	112.35352	-201.21513	112.35352
8200.00000	112.26221	-204.93978	112.26221
8250.00000	112.15551	-208.84415	112.15551
8300.00000	111.97337	-212.86166	111.97337
8350.00000	111.77035	-216.56251	111.77035
8400.00000	111.53741	-220.06299	111.53741
8450.00000	111.23038	-223.81617	111.23038
8500.00000	110.92069	-227.22351	110.92069
8550.00000	110.62071	-230.07777	110.62071
8600.00000	110.28407	-233.20716	110.28407
8650.00000	109.97224	-235.87350	109.97224
8700.00000	109.68091	-239.03582	109.68091
8750.00000	109.33469	-240.79637	109.33469
8800.00000	109.03094	-243.46246	109.03094
8850.00000	108.72437	-245.48321	108.72437
8900.00000	108.50804	-247.95807	108.50804
8950.00000	108.28904	-250.16919	108.28904
9000.00000	107.98698	-252.41301	107.98698
9050.00000	107.83691	-254.61259	107.83691
9100.00000	107.66831	-256.31643	107.66831
9150.00000	107.50264	-258.01816	107.50264
9200.00000	107.35096	-259.70406	107.35096
9250.00000	107.17827	-261.39514	107.17827
9300.00000	107.05771	-263.26870	107.05771
9350.00000	106.98347	-265.01655	106.98347
9400.00000	106.72610	-266.31876	106.72610
9450.00000	106.62383	-268.33234	106.62383
9500.00000	106.56129	-270.14774	106.56129
9550.00000	106.44330	-272.04001	106.44330
9600.00000	106.40378	-274.44698	106.40378
9650.00000	106.36385	-276.82296	106.36385
9700.00000	106.33434	-278.42346	106.33434
9750.00000	106.37106	-280.86220	106.37106
9800.00000	106.28634	-282.06689	106.28634
9850.00000	106.22128	-283.87426	106.22128
9900.00000	105.97029	-285.70284	105.97029
9950.00000	105.80071	-287.19319	105.80071
10000.00000	105.60234	-289.96267	105.60234
10050.00000	105.37619	-292.13107	105.37619
10100.00000	105.11999	-294.78076	105.11999
10150.00000	104.88500	-298.20736	104.88500
10200.00000	104.78674	-300.85475	104.78674
10250.00000	104.68843	-304.07079	104.68843
10300.00000	104.70338	-306.52120	104.70338
10350.00000	104.61833	-308.19750	104.61833
10400.00000	104.47371	-310.35654	104.47371
10450.00000	104.42113	-312.22817	104.42113
10500.00000	104.34901	-313.91482	104.34901
10550.00000	104.14983	-316.09545	104.14983
10600.00000	103.92906	-318.18096	103.92906
10650.00000	103.70377	-320.19596	103.70377
10700.00000	103.55866	-323.89509	103.55866
10750.00000	103.48578	-326.61903	103.48578
10800.00000	103.38049	-329.19614	103.38049
10850.00000	103.33628	-332.43219	103.33628
10900.00000	103.26967	-334.45535	103.26967
10950.00000	103.14725	-336.10783	103.14725
11000.00000	102.98348	-338.25046	102.98348
11050.00000	102.61874	-340.14112	102.61874
11100.00000	102.34030	-342.87867	102.34030
11150.00000	101.95294	-345.42926	101.95294
11200.00000	101.74587	-347.74040	101.74587
11250.00000	101.45329	-350.70647	101.45329
11300.00000	101.21512	-353.23032	101.21512
11350.00000	100.95548	-354.83568	100.95548
11400.00000	100.68742	-356.25223	100.68742
11450.00000	100.42730	-358.02099	100.42730
11500.00000	100.28463	-358.79655	100.28463
11550.00000	99.87049	-359.83108	99.87049
11600.00000	99.67406	-361.87461	99.67406
11650.00000	99.40199	-362.66406	99.40199
11700.00000	99.27576	-364.52779	99.27576
11750.00000	99.19942	-366.15800	99.19942
11800.00000	99.12504	-368.16384	99.12504
11850.00000	99.11800	-368.63633	99.11800
11900.00000	98.87500	-370.42374	98.87500
11950.00000	98.78709	-371.77879	98.78709
12000.00000	98.57209	-373.14221	98.57209
12050.00000	98.31170	-374.88699	98.31170
12100.00000	98.23820	-377.17103	98.23820
12150.00000	98.02936	-380.00023	98.02936
12200.00000	97.97116	-382.62468	97.97116
12250.00000	97.80149	-384.06725	97.80149
12300.00000	98.77010	-386.69399	98.77010
12350.00000	97.42211	-388.64188	97.42211
12400.00000	97.13957	-389.27047	97.13957
12450.00000	96.87898	-391.28918	96.87898
12500.00000	96.54700	-393.59197	96.54700
12550.00000	96.18221	-395.67649	96.18221
12600.00000	95.78153	-397.25978	95.78153
12650.00000	95.67952	-399.31702	95.67952
12700.00000	95.24573	-400.47780	95.24573
12750.00000	94.87970	-402.18403	94.87970
12800.00000	94.58162	-402.52113	94.58162
12850.00000	93.86334	-403.76827	93.86334
12900.00000	93.47884	-405.00656	93.47884
12950.00000	93.31035	-406.59025	93.31035
13000.00000	93.06654	-408.02638	93.06654
13050.00000	93.05617	-406.82882	93.05617
13100.00000	92.76781	-407.14067	92.76781
13150.00000	92.64158	-406.39699	92.64158
13200.00000	92.23287	-404.73587	92.23287
13250.00000	91.77879	-405.01849	91.77879
13300.00000	91.40859	-404.32072	91.40859
13350.00000	91.12215	-407.39136	91.12215
13400.00000	91.00396	-408.36469	91.00396
13450.00000	90.95107	-406.73686	90.95107
13500.00000	90.85757	-406.37653	90.85757
13550.00000	90.47593	-406.83766	90.47593
13600.00000	90.35215	-404.12558	90.35215
13650.00000	90.06785	-402.00647	90.06785
13700.00000	89.77749	-403.19551	89.77749
13750.00000	89.49163	-401.75226	89.49163
13800.00000	89.23785	-404.00723	89.23785
13850.00000	89.15537	-403.88098	89.15537
13900.00000	89.00457	-402.61832	89.00457
13950.00000	89.21001	-401.58848	89.21001
14000.00000	89.23220	-401.21105	89.23220
14050.00000	89.45099	-400.80144	89.45099
14100.00000	89.15037	-398.63035	89.15037
14150.00000	89.36842	-397.82224	89.36842
14200.00000	89.45751	-395.77836	89.45751
14250.00000	89.66343	-392.16500	89.66343
14300.00000	89.84821	-391.57249	89.84821
14350.00000	89.71847	-389.92366	89.71847
14400.00000	89.28680	-390.43031	89.28680
14450.00000	89.32090	-388.03385	89.32090
14500.00000	89.53751	-391.05849	89.53751
14550.00000	90.17477	-390.32858	90.17477
14600.00000	90.29007	-390.09734	90.29007
14650.00000	90.72225	-386.09173	90.72225
14700.00000	90.92474	-390.67104	90.92474
14750.00000	91.19402	-388.96020	91.19402
14800.00000	91.29879	-388.23860	91.29879
14850.00000	91.57240	-387.41299	91.57240
14900.00000	91.93201	-389.44045	91.93201
14950.00000	92.07727	-391.02725	92.07727
15000.00000	92.51944	-391.43470	92.51944
15050.00000	92.64879	-390.68304	92.64879
15100.00000	92.86440	-391.78058	92.86440
15150.00000	93.28189	-392.37655	93.28189
15200.00000	93.45037	-391.90369	93.45037
15250.00000	93.53837	-392.64114	93.53837
15300.00000	93.89085	-393.33842	93.89085
15350.00000	94.03702	-394.30971	94.03702
15400.00000	94.11078	-394.20894	94.11078
15450.00000	94.13767	-395.14390	94.13767
15500.00000	94.52170	-396.73087	94.52170
15550.00000	94.82182	-399.02880	94.82182
15600.00000	95.10368	-399.85451	95.10368
15650.00000	95.72208	-398.78092	95.72208
15700.00000	95.71438	-399.87672	95.71438
15750.00000	96.05016	-400.05520	96.05016
15800.00000	96.21302	-400.39486	96.21302
15850.00000	96.55050	-401.62726	96.55050
15900.00000	96.77380	-402.64096	96.77380
15950.00000	97.13676	-403.80496	97.13676
16000.00000	97.46600	-404.44423	97.46600
16050.00000	97.68888	-405.68696	97.68888
16100.00000	97.85332	-408.15183	97.85332
16150.00000	98.20980	-409.56503	98.20980
16200.00000	98.65751	-410.99901	98.65751
16250.00000	98.97834	-412.00609	98.97834
16300.00000	99.40181	-413.40736	99.40181
16350.00000	99.67379	-414.88664	99.67379
16400.00000	100.00146	-416.33471	100.00146
16450.00000	100.34363	-418.06762	100.34363
16500.00000	100.57947	-420.34362	100.57947
16550.00000	100.90316	-423.31835	100.90316
16600.00000	101.28681	-425.44366	101.28681
16650.00000	101.60143	-427.36334	101.60143
16700.00000	101.94359	-428.86789	101.94359
16750.00000	102.05641	-431.61453	102.05641
16800.00000	102.33361	-434.78710	102.33361
16850.00000	102.70103	-437.41076	102.70103
16900.00000	103.06992	-439.50151	103.06992
16950.00000	103.28518	-441.44650	103.28518
17000.00000	103.29679	-443.97045	103.29679
17050.00000	103.55445	-446.31136	103.55445
17100.00000	103.70409	-448.48932	103.70409
17150.00000	104.13285	-451.90719	104.13285
17200.00000	104.42212	-453.61282	104.42212
17250.00000	104.53187	-456.44633	104.53187
17300.00000	104.80392	-459.10832	104.80392
17350.00000	104.87905	-461.48819	104.87905
17400.00000	105.17730	-464.38907	105.17730
17450.00000	105.30838	-467.16817	105.30838
17500.00000	105.52373	-469.65687	105.52373
17550.00000	105.70201	-472.50850	105.70201
17600.00000	105.98246	-474.72540	105.98246
17650.00000	106.13126	-477.87407	106.13126
17700.00000	106.28418	-480.89824	106.28418
17750.00000	106.57953	-482.99022	106.57953
17800.00000	106.65259	-486.35778	106.65259
17850.00000	106.88482	-488.64088	106.88482
17900.00000	106.99733	-491.18542	106.99733
17950.00000	107.20673	-494.28708	107.20673
18000.00000	107.36878	-497.99208	107.36878
18050.00000	107.65902	-500.21590	107.65902
18100.00000	107.78469	-503.66636	107.78469
18150.00000	107.92376	-505.84820	107.92376
18200.00000	107.99183	-509.31028	107.99183
18250.00000	108.22053	-511.74696	108.22053
18300.00000	108.46067	-514.94234	108.46067
18350.00000	108.62257	-517.68440	108.62257
18400.00000	108.72452	-521.02407	108.72452
18450.00000	108.81638	-525.41754	108.81638
18500.00000	108.97961	-528.48448	108.97961
18550.00000	109.12068	-531.18691	109.12068
18600.00000	109.33702	-534.97820	109.33702
18650.00000	109.29201	-538.06799	109.29201
18700.00000	109.41110	-541.78490	109.41110
18750.00000	109.57840	-545.31553	109.57840
18800.00000	109.78149	-548.16979	109.78149
18850.00000	109.73560	-551.82147	109.73560
18900.00000	109.79421	-555.21710	109.79421
18950.00000	109.89082	-559.29418	109.89082
19000.00000	109.81648	-562.34287	109.81648
19050.00000	109.99013	-566.10758	109.99013
19100.00000	109.96819	-569.36972	109.96819
19150.00000	110.10582	-572.90350	110.10582
19200.00000	110.11324	-576.05356	110.11324
19250.00000	110.09605	-580.68760	110.09605
19300.00000	110.03773	-583.52872	110.03773
19350.00000	110.04253	-587.03885	110.04253
19400.00000	109.96757	-590.39818	109.96757
19450.00000	110.05991	-593.17296	110.05991
19500.00000	109.91758	-597.50681	109.91758
19550.00000	109.90122	-600.79506	109.90122
19600.00000	109.92530	-604.78417	109.92530
19650.00000	109.80584	-607.59011	109.80584
19700.00000	109.64785	-610.93264	109.64785
19750.00000	109.55352	-613.73176	109.55352
19800.00000	109.58555	-617.94291	109.58555
19850.00000	109.53842	-620.72684	109.53842
19900.00000	109.37141	-624.57553	109.37141
19950.00000	109.25177	-627.69031	109.25177
20000.00000	109.14850	-630.98189	109.14850
20050.00000	109.06680	-634.06432	109.06680
20100.00000	108.86134	-637.20979	108.86134
20150.00000	108.78784	-639.42576	108.78784
20200.00000	108.60108	-643.02708	108.60108
20250.00000	108.39579	-645.87055	108.39579
20300.00000	108.16776	-648.86341	108.16776
20350.00000	108.08662	-651.73163	108.08662
20400.00000	107.84773	-653.53360	107.84773
20450.00000	107.56733	-656.08378	107.56733
20500.00000	107.42985	-658.92674	107.42985
20550.00000	107.02313	-660.38435	107.02313
20600.00000	106.91059	-662.14070	106.91059
20650.00000	106.72548	-663.96389	106.72548
20700.00000	106.46066	-665.54315	106.46066
20750.00000	106.34884	-666.93861	106.34884
20800.00000	106.13914	-667.84684	106.13914
20850.00000	106.04830	-668.98444	106.04830
20900.00000	105.89023	-669.90009	105.89023
20950.00000	105.78458	-670.12773	105.78458
21000.00000	105.71274	-670.73977	105.71274
21050.00000	105.85388	-671.05635	105.85388
21100.00000	105.87308	-671.32020	105.87308
21150.00000	106.01795	-672.14280	106.01795
21200.00000	106.16616	-672.68703	106.16616
21250.00000	106.32180	-674.99832	106.32180
21300.00000	106.57492	-675.66288	106.57492
21350.00000	106.73302	-676.98072	106.73302
21400.00000	106.90295	-679.11952	106.90295
21450.00000	107.10377	-681.31505	107.10377
21500.00000	107.29034	-683.82195	107.29034
21550.00000	107.36425	-685.83929	107.36425
21600.00000	107.57451	-688.44716	107.57451
21650.00000	107.65125	-691.19099	107.65125
21700.00000	107.76494	-693.51356	107.76494
21750.00000	107.86679	-696.18256	107.86679
21800.00000	107.96470	-698.80673	107.96470
21850.00000	107.94697	-701.33970	107.94697
21900.00000	108.02790	-704.05194	108.02790
21950.00000	108.08799	-706.34714	108.08799
22000.00000	108.19107	-708.95645	108.19107
22050.00000	108.17766	-711.05213	108.17766
22100.00000	108.19304	-713.80572	108.19304
22150.00000	108.20356	-716.04147	108.20356
22200.00000	108.29616	-718.62083	108.29616
22250.00000	108.27650	-720.60886	108.27650
22300.00000	108.17584	-723.07924	108.17584
22350.00000	108.29087	-725.54686	108.29087
22400.00000	108.31997	-728.05999	108.31997
22450.00000	108.30668	-730.21782	108.30668
22500.00000	108.27366	-731.29340	108.27366
22550.00000	108.27104	-733.78091	108.27104
22600.00000	108.25760	-736.76221	108.25760
22650.00000	108.32072	-739.07354	108.32072
22700.00000	108.36036	-740.50661	108.36036
22750.00000	108.31411	-740.95099	108.31411
22800.00000	108.37522	-745.20886	108.37522
22850.00000	108.48300	-748.23266	108.48300
22900.00000	108.51033	-748.60766	108.51033
22950.00000	108.55583	-750.55973	108.55583
23000.00000	108.57772	-752.00319	108.57772
23050.00000	108.56240	-755.34064	108.56240
23100.00000	108.76816	-756.31173	108.76816
23150.00000	108.65819	-757.77621	108.65819
23200.00000	108.87838	-760.96005	108.87838
23250.00000	108.72892	-764.05920	108.72892
23300.00000	109.08112	-766.50127	109.08112
23350.00000	108.91207	-768.88009	108.91207
23400.00000	108.93644	-770.85120	108.93644
23450.00000	109.13333	-773.45534	109.13333
23500.00000	109.05396	-775.24286	109.05396
23550.00000	109.08540	-776.31276	109.08540
23600.00000	109.06581	-780.44361	109.06581
23650.00000	109.21039	-782.37707	109.21039
23700.00000	109.41639	-787.14220	109.41639
23750.00000	109.42235	-788.65336	109.42235
23800.00000	109.19212	-790.20615	109.19212
23850.00000	109.39418	-792.04915	109.39418
23900.00000	109.77487	-795.57422	109.77487
23950.00000	109.47162	-799.24178	109.47162
24000.00000	109.31303	-802.95584	109.31303
24050.00000	109.49202	-804.14953	109.49202
24100.00000	109.76718	-808.67122	109.76718
24150.00000	109.70800	-811.46707	109.70800
24200.00000	109.67127	-816.15727	109.67127
24250.00000	109.32780	-817.38763	109.32780
24300.00000	109.61880	-821.44220	109.61880
24350.00000	109.42260	-824.53332	109.42260
24400.00000	109.22320	-828.54625	109.22320
24450.00000	108.96714	-831.01454	108.96714
24500.00000	109.33300	-473.45459	109.33300
24550.00000	109.03172	-119.02760	109.03172
24600.00000	109.33920	239.15953	109.33920
24650.00000	108.94378	594.33180	108.94378
24700.00000	108.62475	953.37666	108.62475
24750.00000	108.58559	1307.96043	108.58559
24800.00000	108.38553	1664.76013	108.38553
24850.00000	107.99236	2022.94549	107.99236
24900.00000	107.85675	2381.78143	107.85675
24950.00000	107.81411	2734.86451	107.81411
25000.00000	107.69264	2728.80681	107.69264
25050.00000	107.60956	2728.89833	107.60956
25100.00000	106.86852	2725.25672	106.86852
25150.00000	107.07260	2724.31910	107.07260
25200.00000	106.70054	2719.60963	106.70054
25250.00000	106.54380	2719.31600	106.54380
25300.00000	106.52361	2716.95180	106.52361
25350.00000	106.14972	2710.30036	106.14972
25400.00000	105.92292	2705.43271	105.92292
25450.00000	105.76987	2704.64705	105.76987
25500.00000	105.44823	2702.74435	105.44823
25550.00000	105.21896	2698.33092	105.21896
25600.00000	105.16443	2695.96974	105.16443
25650.00000	104.76738	2694.60134	104.76738
25700.00000	104.56928	2690.79455	104.56928
25750.00000	104.10043	2687.98123	104.10043
25800.00000	103.89590	2684.61975	103.89590
25850.00000	103.72061	2682.28618	103.72061
25900.00000	103.45964	2678.23091	103.45964
25950.00000	102.94890	2679.39455	102.94890
26000.00000	102.76585	2674.52251	102.76585
26050.00000	102.61255	2671.78095	102.61255
26100.00000	102.34529	2669.58310	102.34529
26150.00000	101.97256	2666.62755	101.97256
26200.00000	101.73954	2664.87418	101.73954
26250.00000	101.28519	2662.13774	101.28519
26300.00000	101.19085	2658.40606	101.19085
26350.00000	100.49660	2659.38605	100.49660
26400.00000	100.14481	2656.57840	100.14481
26450.00000	100.08235	2652.59681	100.08235
26500.00000	99.73447	2651.57885	99.73447
26550.00000	99.30173	2646.67190	99.30173
26600.00000	98.81828	2644.75503	98.81828
26650.00000	98.70681	2646.22870	98.70681
26700.00000	98.33156	2643.75739	98.33156
26750.00000	97.94256	2642.52589	97.94256
26800.00000	97.44811	2638.61872	97.44811
26850.00000	97.43146	2639.07784	97.43146
26900.00000	97.21689	2638.82050	97.21689
26950.00000	97.25349	2636.11664	97.25349
27000.00000	96.39991	2637.08564	96.39991
27050.00000	96.55137	2635.62310	96.55137
27100.00000	96.02484	2634.57371	96.02484
27150.00000	95.58348	2632.56311	95.58348
27200.00000	95.57524	2633.37804	95.57524
27250.00000	95.02379	2633.31512	95.02379
27300.00000	94.92103	2632.10885	94.92103
27350.00000	94.84638	2633.49738	94.84638
27400.00000	94.67207	2632.91481	94.67207
27450.00000	94.41302	2634.36355	94.41302
27500.00000	94.32465	2633.24593	94.32465
27550.00000	94.27097	2632.25492	94.27097
27600.00000	94.62504	2632.16704	94.62504
27650.00000	94.24203	2632.18196	94.24203
27700.00000	94.12857	2629.97362	94.12857
27750.00000	94.47968	2627.53270	94.47968
27800.00000	94.23978	2626.11305	94.23978
27850.00000	94.82654	2632.13848	94.82654
27900.00000	94.11638	2629.65588	94.11638
27950.00000	93.76258	2629.27775	93.76258
28000.00000	94.19146	2627.70896	94.19146
28050.00000	94.70964	2627.30428	94.70964
28100.00000	94.22988	2626.25753	94.22988
28150.00000	94.53387	2625.72269	94.53387
28200.00000	94.79982	2623.53537	94.79982
28250.00000	94.66401	2619.89000	94.66401
28300.00000	94.26636	2621.80100	94.26636
28350.00000	95.02632	2620.75215	95.02632
28400.00000	94.74736	2622.55252	94.74736
28450.00000	95.43344	2618.23676	95.43344
28500.00000	95.22271	2619.48439	95.22271
28550.00000	95.41004	2620.39095	95.41004
28600.00000	95.47535	2618.47870	95.47535
28650.00000	95.81440	2614.75595	95.81440
28700.00000	95.87150	2615.25698	95.87150
28750.00000	96.50115	2617.16517	96.50115
28800.00000	96.41074	2614.27229	96.41074
28850.00000	95.89260	2610.46704	95.89260
28900.00000	96.31540	2609.59358	96.31540
28950.00000	96.26470	2608.31545	96.26470
29000.00000	96.58745	2607.44517	96.58745
29050.00000	96.53372	2607.86921	96.53372
29100.00000	96.58601	2607.32227	96.58601
29150.00000	96.63115	2606.26342	96.63115
29200.00000	96.58844	2603.88903	96.58844
29250.00000	97.25317	2603.38344	97.25317
29300.00000	97.10094	2601.81455	97.10094
29350.00000	97.44769	2598.80909	97.44769
29400.00000	97.42890	2599.50736	97.42890
29450.00000	97.49911	2598.07695	97.49911
29500.00000	98.03495	2597.91183	98.03495
29550.00000	97.87092	2593.43038	97.87092
29600.00000	97.88114	2595.62092	97.88114
29650.00000	98.10810	2591.65606	98.10810
29700.00000	98.15521	2593.58668	98.15521
29750.00000	98.26974	2594.10099	98.26974
29800.00000	98.29462	2590.40387	98.29462
29850.00000	98.39865	2589.04110	98.39865
29900.00000	98.91469	2590.12556	98.91469
29950.00000	98.32693	2588.82014	98.32693
30000.00000	98.76088	2590.64191	98.76088
30050.00000	99.09169	2587.64943	99.09169
30100.00000	98.97407	2589.60599	98.97407
30150.00000	99.30466	2585.92343	99.30466
30200.00000	99.39931	2584.52480	99.39931
30250.00000	99.31785	2584.70708	99.31785
30300.00000	99.30266	2585.64239	99.30266
30350.00000	99.55429	2586.56688	99.55429
30400.00000	99.74602	2584.12867	99.74602
30450.00000	99.56597	2583.89444	99.56597
30500.00000	99.76451	2583.20636	99.76451
30550.00000	99.83595	2584.31387	99.83595
30600.00000	99.97458	2585.33782	99.97458
30650.00000	100.08254	2585.32678	100.08254
30700.00000	100.29004	2584.03207	100.29004
30750.00000	100.27449	2586.25095	100.27449
30800.00000	100.51652	2586.19290	100.51652
30850.00000	100.85698	2587.58315	100.85698
30900.00000	100.80588	2589.30316	100.80588
30950.00000	101.35636	2588.73329	101.35636
31000.00000	101.60127	2588.63985	101.60127
31050.00000	102.01646	2589.86505	102.01646
31100.00000	102.54118	2590.12236	102.54118
31150.00000	102.58521	2590.07715	102.58521
31200.00000	103.39633	2589.61721	103.39633
31250.00000	103.77861	2589.54604	103.77861
31300.00000	104.17023	2588.57919	104.17023
31350.00000	104.76556	2587.67638	104.76556
31400.00000	105.04794	2585.59184	105.04794
31450.00000	105.57748	2583.76273	105.57748
31500.00000	105.95733	2581.12072	105.95733
31550.00000	106.39186	2579.68769	106.39186
31600.00000	106.98413	2576.10331	106.98413
31650.00000	107.30191	2573.59289	107.30191
31700.00000	107.65753	2571.70538	107.65753
31750.00000	108.05701	2569.90075	108.05701
31800.00000	108.30980	2565.26528	108.30980
31850.00000	108.67890	2561.37792	108.67890
31900.00000	108.73333	2558.80447	108.73333
31950.00000	109.06479	2555.22885	109.06479
32000.00000	109.24406	2551.53097	109.24406
32050.00000	109.50940	2548.41824	109.50940
32100.00000	109.60705	2544.00115	109.60705
32150.00000	109.73595	2541.52284	109.73595
32200.00000	109.90997	2537.18614	109.90997
32250.00000	110.01804	2533.14201	110.01804
32300.00000	110.04316	2530.22548	110.04316
32350.00000	110.07636	2527.48136	110.07636
32400.00000	110.16741	2523.87676	110.16741
32450.00000	110.09725	2520.29001	110.09725
32500.00000	110.25010	2517.92529	110.25010
32550.00000	110.35659	2513.60863	110.35659
32600.00000	110.26483	2510.97962	110.26483
32650.00000	110.39584	2507.76773	110.39584
32700.00000	110.25743	2503.98596	110.25743
32750.00000	110.25262	2501.15581	110.25262
32800.00000	110.42789	2498.85834	110.42789
32850.00000	110.46459	2495.31589	110.46459
32900.00000	110.43030	2492.30394	110.43030
32950.00000	110.30369	2488.29351	110.30369
33000.00000	110.35637	2487.43884	110.35637
33050.00000	110.29245	2483.42331	110.29245
33100.00000	110.49466	2481.16008	110.49466
33150.00000	110.48880	2478.25251	110.48880
33200.00000	110.78023	2477.53071	110.78023
33250.00000	110.71552	2474.79536	110.71552
33300.00000	110.81853	2470.96046	110.81853
33350.00000	110.81240	2468.01728	110.81240
33400.00000	110.98591	2466.18888	110.98591
33450.00000	111.18782	2462.69340	111.18782
33500.00000	111.43783	2461.24122	111.43783
33550.00000	111.33038	2455.78559	111.33038
33600.00000	111.75718	2453.79963	111.75718
33650.00000	111.91882	2450.32791	111.91882
33700.00000	111.97944	2447.25902	111.97944
33750.00000	112.08403	2443.75289	112.08403
33800.00000	112.33738	2439.71955	112.33738
33850.00000	112.20095	2436.71121	112.20095
33900.00000	112.61472	2432.46788	112.61472
33950.00000	112.74048	2428.88556	112.74048
34000.00000	112.92770	2424.73782	112.92770
34050.00000	112.93106	2420.93508	112.93106
34100.00000	112.92536	2417.75816	112.92536
34150.00000	113.09417	2413.39195	113.09417
34200.00000	113.22341	2411.07250	113.22341
34250.00000	113.29992	2405.31603	113.29992
34300.00000	113.33561	2401.19669	113.33561
34350.00000	113.48628	2396.98297	113.48628
34400.00000	113.28723	2394.54581	113.28723
34450.00000	113.35368	2387.83100	113.35368
34500.00000	113.24450	2385.29890	113.24450
34550.00000	113.30161	2381.62632	113.30161
34600.00000	112.90856	2377.23203	112.90856
34650.00000	113.22234	2376.28272	113.22234
34700.00000	112.83577	2374.08400	112.83577
34750.00000	112.97847	2366.66388	112.97847
34800.00000	113.13293	2366.88762	113.13293
34850.00000	113.16239	2364.90045	113.16239
34900.00000	113.28488	2359.38260	113.28488
34950.00000	113.05626	2358.63400	113.05626
35000.00000	113.06825	2355.06555	113.06825
35050.00000	113.24482	2352.88742	113.24482
35100.00000	113.32166	2349.52111	113.32166
35150.00000	113.08595	2348.07052	113.08595
35200.00000	113.08928	2343.70575	113.08928
35250.00000	113.21397	2340.99360	113.21397
35300.00000	113.24210	2338.03460	113.24210
35350.00000	113.38348	2335.59740	113.38348
35400.00000	113.42477	2332.62609	113.42477
35450.00000	113.42452	2330.93046	113.42452
35500.00000	113.23647	2328.63140	113.23647
35550.00000	113.60785	2327.03104	113.60785
35600.00000	113.61205	2323.58754	113.61205
35650.00000	113.67664	2320.64250	113.67664
35700.00000	113.77200	2319.50308	113.77200
35750.00000	113.73115	2317.80501	113.73115
35800.00000	113.95781	2316.10165	113.95781
35850.00000	114.16637	2311.82822	114.16637
35900.00000	114.37243	2310.04553	114.37243
35950.00000	114.44119	2307.71477	114.44119
36000.00000	114.62121	2305.41961	114.62121
36050.00000	114.84013	2302.01359	114.84013
36100.00000	115.00130	2300.12070	115.00130
36150.00000	115.04732	2296.91673	115.04732
36200.00000	115.13569	2295.05168	115.13569
36250.00000	115.16699	2292.14704	115.16699
36300.00000	115.16710	2289.34676	115.16710
36350.00000	115.47295	2286.99469	115.47295
36400.00000	115.53981	2284.79754	115.53981
36450.00000	115.46226	2281.55795	115.46226
36500.00000	115.77144	2280.19262	115.77144
36550.00000	115.76981	2276.28226	115.76981
36600.00000	115.84544	2273.85931	115.84544
36650.00000	115.96073	2272.18473	115.96073
36700.00000	116.09392	2268.70959	116.09392
36750.00000	116.16231	2266.06955	116.16231
36800.00000	116.13456	2263.76121	116.13456
36850.00000	116.03505	2261.22852	116.03505
36900.00000	116.24568	2258.60577	116.24568
36950.00000	116.05868	2255.78536	116.05868
37000.00000	115.86444	2254.05884	115.86444
37050.00000	115.86573	2252.75972	115.86573
37100.00000	115.98719	2249.58742	115.98719
37150.00000	115.94948	2247.08195	115.94948
37200.00000	116.15235	2246.81884	116.15235
37250.00000	115.76855	2244.98648	115.76855
37300.00000	115.89625	2242.56820	115.89625
37350.00000	116.12752	2241.19442	116.12752
37400.00000	115.88971	2239.66349	115.88971
37450.00000	115.85132	2238.90530	115.85132
37500.00000	116.23199	2236.26766	116.23199
37550.00000	115.98362	2234.86239	115.98362
37600.00000	116.00531	2233.27259	116.00531
37650.00000	116.00248	2231.69432	116.00248
37700.00000	116.07866	2229.17193	116.07866
37750.00000	116.05214	2228.32472	116.05214
37800.00000	116.00530	2226.34327	116.00530
37850.00000	116.19143	2223.61178	116.19143
37900.00000	116.17405	2222.25222	116.17405
37950.00000	116.30766	2221.42816	116.30766
38000.00000	116.18613	2219.73675	116.18613
38050.00000	116.33179	2217.53704	116.33179
38100.00000	116.52955	2215.25427	116.52955
38150.00000	116.51461	2212.79744	116.51461
38200.00000	116.68941	2209.97271	116.68941
38250.00000	116.70508	2208.08788	116.70508
38300.00000	116.86557	2205.30481	116.86557
38350.00000	116.96414	2203.44795	116.96414
38400.00000	117.00776	2200.74747	117.00776
38450.00000	117.14389	2196.78001	117.14389
38500.00000	117.30068	2193.36622	117.30068
38550.00000	117.37855	2190.66862	117.37855
38600.00000	117.49439	2187.43620	117.49439
38650.00000	117.60711	2183.57807	117.60711
38700.00000	117.62256	2179.77083	117.62256
38750.00000	117.68699	2176.37079	117.68699
38800.00000	117.79262	2172.87399	117.79262
38850.00000	117.81530	2168.27164	117.81530
38900.00000	117.82574	2164.43671	117.82574
38950.00000	117.82454	2160.23629	117.82454
39000.00000	117.80150	2155.88083	117.80150
39050.00000	117.79848	2152.01880	117.79848
39100.00000	117.64046	2147.46824	117.64046
39150.00000	117.58843	2143.08013	117.58843
39200.00000	117.43346	2139.01881	117.43346
39250.00000	117.34515	2134.92833	117.34515
39300.00000	117.23629	2131.05721	117.23629
39350.00000	117.04015	2127.59859	117.04015
39400.00000	116.92601	2123.11494	116.92601
39450.00000	116.68652	2120.04600	116.68652
39500.00000	116.65107	2116.04073	116.65107
39550.00000	116.48274	2112.40223	116.48274
39600.00000	116.19568	2108.61638	116.19568
39650.00000	116.10694	2105.47451	116.10694
39700.00000	115.92658	2101.87520	115.92658
39750.00000	115.79571	2097.94320	115.79571
39800.00000	115.67591	2094.70193	115.67591
39850.00000	115.44476	2091.56029	115.44476
39900.00000	115.26674	2088.32899	115.26674
39950.00000	115.13717	2085.20107	115.13717
40000.00000	114.86695	2083.22924	114.86695
40050.00000	114.76891	2079.05519	114.76891
40100.00000	114.63217	2076.07806	114.63217
40150.00000	114.36365	2073.01466	114.36365
40200.00000	114.25861	2070.18826	114.25861
40250.00000	114.15450	2067.84394	114.15450
40300.00000	114.16443	2065.10283	114.16443
40350.00000	113.73290	2062.56733	113.73290
40400.00000	113.61237	2059.87099	113.61237
40450.00000	113.48021	2058.08893	113.48021
40500.00000	113.45984	2056.01655	113.45984
40550.00000	113.31021	2053.19736	113.31021
40600.00000	113.17227	2051.46657	113.17227
40650.00000	113.09739	2049.87683	113.09739
40700.00000	112.80826	2048.51550	112.80826
40750.00000	112.99775	2046.53945	112.99775
40800.00000	112.83774	2044.50602	112.83774
40850.00000	112.76560	2043.90185	112.76560
40900.00000	112.72997	2042.20187	112.72997
40950.00000	112.62122	2041.60413	112.62122
41000.00000	112.53599	2040.29729	112.53599
41050.00000	112.65912	2039.35387	112.65912
41100.00000	112.83403	2037.52787	112.83403
41150.00000	112.95330	2038.55017	112.95330
41200.00000	113.13151	2037.14646	113.13151
41250.00000	113.15568	2034.06306	113.15568
41300.00000	113.05082	2034.64266	113.05082
41350.00000	113.35253	2034.64550	113.35253
41400.00000	113.45355	2029.12994	113.45355
41450.00000	113.82736	2031.06946	113.82736
41500.00000	113.82876	2029.67295	113.82876
41550.00000	113.99725	2032.29668	113.99725
41600.00000	113.79708	2029.01153	113.79708
41650.00000	114.45646	2026.29368	114.45646
41700.00000	114.67258	2026.74783	114.67258
41750.00000	114.75479	2029.05498	114.75479
41800.00000	114.06943	2022.63717	114.06943
41850.00000	114.09994	2027.15012	114.09994
41900.00000	114.32018	2022.06768	114.32018
41950.00000	115.75935	2025.77439	115.75935
42000.00000	114.90552	2018.85766	114.90552
42050.00000	114.13733	2017.41315	114.13733
42100.00000	114.86030	2016.59893	114.86030
42150.00000	114.32863	2011.24655	114.32863
42200.00000	114.52166	2016.66299	114.52166
42250.00000	114.50463	2014.64329	114.50463
42300.00000	113.76375	2009.70965	113.76375
42350.00000	114.37140	2010.49024	114.37140
42400.00000	114.12011	2010.94986	114.12011
42450.00000	114.63642	2005.25680	114.63642
42500.00000	114.00489	2004.29302	114.00489
42550.00000	114.15254	2014.02529	114.15254
42600.00000	113.80119	2007.03162	113.80119
42650.00000	113.44052	2006.76285	113.44052
42700.00000	113.03375	2004.65277	113.03375
42750.00000	113.97832	2001.77222	113.97832
42800.00000	113.30416	1995.69456	113.30416
42850.00000	112.87004	1994.58513	112.87004
42900.00000	113.78000	1998.95054	113.78000
42950.00000	112.82989	1995.57358	112.82989
43000.00000	113.17798	1984.93867	113.17798
43050.00000	112.24600	1984.40104	112.24600
43100.00000	112.77102	1988.05844	112.77102
43150.00000	111.53043	1984.18584	111.53043
43200.00000	111.81826	1979.95261	111.81826
43250.00000	111.92883	1978.95233	111.92883
43300.00000	111.82441	1977.59429	111.82441
43350.00000	112.52157	1973.91668	112.52157
43400.00000	111.85394	1970.51735	111.85394
43450.00000	112.33284	1971.09826	112.33284
43500.00000	110.94717	1962.79152	110.94717
43550.00000	111.70912	1960.63639	111.70912
43600.00000	111.13877	1956.12621	111.13877
43650.00000	111.40391	1946.43189	111.40391
43700.00000	110.82843	1946.99930	110.82843
43750.00000	110.02041	1945.18188	110.02041
43800.00000	110.45726	1936.96614	110.45726
43850.00000	110.71991	1931.74154	110.71991
43900.00000	110.59846	1930.40935	110.59846
43950.00000	110.38534	1924.32957	110.38534
44000.00000	109.36935	1921.37978	109.36935
44050.00000	109.69514	1916.96355	109.69514
44100.00000	109.52950	1904.25254	109.52950
44150.00000	108.93478	1906.35009	108.93478
44200.00000	108.85103	1905.41887	108.85103
44250.00000	108.83298	1897.17590	108.83298
44300.00000	108.58842	1891.47047	108.58842
44350.00000	107.54402	1886.03011	107.54402
44400.00000	108.14275	1884.48118	108.14275
44450.00000	107.98418	1881.56415	107.98418
44500.00000	107.37030	1876.22752	107.37030
44550.00000	108.40718	1866.99803	108.40718
44600.00000	107.25600	1868.73221	107.25600
44650.00000	106.98473	1860.00893	106.98473
44700.00000	106.41478	1857.62258	106.41478
44750.00000	106.18821	1856.11081	106.18821
44800.00000	106.86725	1848.03694	106.86725
44850.00000	106.19202	1842.27303	106.19202
44900.00000	105.82057	1841.77965	105.82057
44950.00000	105.87516	1834.13476	105.87516
45000.00000	105.84859	1828.21018	105.84859
45050.00000	104.43858	1832.46509	104.43858
45100.00000	104.71287	1823.69979	104.71287
45150.00000	104.47806	1812.46990	104.47806
45200.00000	104.03617	1815.39002	104.03617
45250.00000	104.30122	1807.79551	104.30122
45300.00000	103.86867	1803.08141	103.86867
45350.00000	103.46194	1794.06969	103.46194
45400.00000	102.84938	1794.42250	102.84938
45450.00000	103.11326	1782.99825	103.11326
45500.00000	101.61608	1775.26133	101.61608
45550.00000	102.19979	1778.59431	102.19979
45600.00000	102.40805	1769.41449	102.40805
45650.00000	100.53895	1759.19105	100.53895
45700.00000	100.14538	1757.77553	100.14538
45750.00000	100.95572	1761.83106	100.95572
45800.00000	100.09419	1750.61027	100.09419
45850.00000	99.69945	1745.53736	99.69945
45900.00000	99.53808	1741.85796	99.53808
45950.00000	98.50848	1740.13486	98.50848
46000.00000	97.42396	1719.78498	97.42396
46050.00000	97.31164	1719.33062	97.31164
46100.00000	96.14013	1722.92702	96.14013
46150.00000	95.31507	1716.53127	95.31507
46200.00000	93.51883	1706.50415	93.51883
46250.00000	94.80968	1711.81984	94.80968
46300.00000	92.28417	1708.13413	92.28417
46350.00000	94.60708	1695.27963	94.60708
46400.00000	91.86011	1698.58742	91.86011
46450.00000	89.44026	1695.98207	89.44026
46500.00000	91.82388	1695.06922	91.82388
46550.00000	89.67363	1695.69313	89.67363
46600.00000	90.92017	1696.38719	90.92017
46650.00000	88.06372	1692.67862	88.06372
46700.00000	86.11677	1694.20059	86.11677
46750.00000	88.27764	1696.34314	88.27764
46800.00000	86.35320	1692.68085	86.35320
46850.00000	88.33341	1350.27778	88.33341
46900.00000	87.03095	1341.27906	87.03095
46950.00000	87.72003	1345.47086	87.72003
47000.00000	86.74196	1340.78842	86.74196
47050.00000	88.74293	1330.49108	88.74293
47100.00000	86.68370	1331.63679	86.68370
47150.00000	87.14174	1337.32532	87.14174
47200.00000	87.10814	1334.06295	87.10814
47250.00000	89.11549	1334.52277	89.11549
47300.00000	87.01712	1318.91441	87.01712
47350.00000	87.49248	967.27805	87.49248
47400.00000	86.46542	969.30501	86.46542
47450.00000	86.84077	963.19275	86.84077
47500.00000	84.15040	953.96022	84.15040
47550.00000	82.97202	599.10760	82.97202
47600.00000	86.63874	601.58663	86.63874
47650.00000	87.28270	599.30884	87.28270
47700.00000	86.91058	599.97805	86.91058
47750.00000	83.93608	600.48938	83.93608
47800.00000	84.63553	590.21539	84.63553
47850.00000	86.49498	227.50203	86.49498
47900.00000	85.97435	-124.98108	85.97435
47950.00000	85.65994	-127.35138	85.65994
48000.00000	86.91643	-122.94011	86.91643
48050.00000	88.30865	-135.21848	88.30865
48100.00000	87.70395	-145.83030	87.70395
48150.00000	86.89683	-496.35143	86.89683
48200.00000	86.68800	-495.79617	86.68800
48250.00000	87.33838	-507.81065	87.33838
48300.00000	87.88915	-506.92122	87.88915
48350.00000	87.50021	-520.31290	87.50021
48400.00000	88.76824	-864.94763	88.76824
48450.00000	87.25815	-873.08901	87.25815
48500.00000	86.60265	-890.77158	86.60265
48550.00000	86.31099	-881.69076	86.31099
48600.00000	88.66501	-1247.83362	88.66501
48650.00000	88.55905	-1239.33758	88.55905
48700.00000	88.31377	-1254.48156	88.31377
48750.00000	87.03267	-1610.43784	87.03267
48800.00000	87.64574	-1618.72459	87.64574
48850.00000	88.65370	-1620.29153	88.65370
48900.00000	88.18016	-1976.85727	88.18016
48950.00000	87.56645	-1996.26433	87.56645
49000.00000	89.09593	-1997.11842	89.09593
49050.00000	87.84816	-1997.25824	87.84816
49100.00000	87.68683	-2354.56015	87.68683
49150.00000	88.42597	-2714.59933	88.42597
49200.00000	89.00231	-2728.89973	89.00231
49250.00000	89.07479	-3087.70600	89.07479
49300.00000	91.26615	-2740.60378	91.26615
49350.00000	88.23706	-2733.46614	88.23706
49400.00000	89.15195	-2372.08958	89.15195
49450.00000	89.45311	-2018.00820	89.45311
49500.00000	89.30698	-1680.41801	89.30698
49550.00000	90.11854	-1325.90759	90.11854
49600.00000	90.84164	-1313.32901	90.84164
49650.00000	91.78848	-1320.52195	91.78848
49700.00000	90.67984	-988.13037	90.67984
49750.00000	92.04456	-980.70912	92.04456
49800.00000	91.51633	-996.35320	91.51633
49850.00000	92.63254	-979.25727	92.63254
49900.00000	91.51185	-632.54062	91.51185
49950.00000	93.87600	-304.18502	93.87600
