---ACOUSTIC CALIBRATION---
Filename: C:\Data\AZH DATA\AZH21\RightPrimary.calib
Date: 8/27/2019 12:03:01 PM
Format: 4
Probe Tube Correction File: C:\Data\Probe Tube Calibrations\50_ProbeTube.calib
Experiment VIs: 850
EPL_CFTS.exe V12.0.1 (2012)
DAQmx V9.6

Attenuation (dB): 40.000000
Min Freq (Hz): 50.000000
Max Freq (Hz): 49950.000000
Freq Step (Hz): 50.000000
Sample Rate (Hz): 100000.000000
[Smoothing]
Method=None
MA.Iterations=0
MA.Length=0
Loess.Length=0
Loess.Type=Linear
Loess.Robust=FALSE


Freq(Hz)	Mag(dB)	Phase(deg)	Unsmoothed(dB)

50.00000	105.28622	472.59085	105.28622
100.00000	75.33035	543.94712	75.33035
150.00000	77.00710	490.76203	77.00710
200.00000	81.00260	450.11813	81.00260
250.00000	90.91751	454.51319	90.91751
300.00000	93.64031	358.42169	93.64031
350.00000	81.72012	395.45462	81.72012
400.00000	86.19630	395.30434	86.19630
450.00000	88.50501	365.14767	88.50501
500.00000	90.19798	397.94501	90.19798
550.00000	93.59879	371.17325	93.59879
600.00000	96.13164	354.01674	96.13164
650.00000	97.81185	346.20434	97.81185
700.00000	100.57700	328.30698	100.57700
750.00000	102.17178	313.39442	102.17178
800.00000	102.43132	293.61045	102.43132
850.00000	101.93499	274.41966	101.93499
900.00000	99.95906	258.50107	99.95906
950.00000	98.29925	255.76946	98.29925
1000.00000	96.80720	255.65131	96.80720
1050.00000	94.82821	272.11957	94.82821
1100.00000	96.78870	294.39368	96.78870
1150.00000	99.52500	299.28125	99.52500
1200.00000	102.04476	298.20322	102.04476
1250.00000	103.79820	289.49823	103.79820
1300.00000	105.47578	283.45035	105.47578
1350.00000	106.83882	274.54518	106.83882
1400.00000	107.78181	267.36890	107.78181
1450.00000	108.69429	260.73121	108.69429
1500.00000	109.95132	254.58410	109.95132
1550.00000	110.67028	244.76702	110.67028
1600.00000	111.96381	234.94691	111.96381
1650.00000	113.04061	218.32988	113.04061
1700.00000	111.78603	207.90914	111.78603
1750.00000	111.49504	202.79022	111.49504
1800.00000	111.25863	198.18567	111.25863
1850.00000	111.40860	197.32544	111.40860
1900.00000	112.64967	193.40360	112.64967
1950.00000	113.21117	179.33445	113.21117
2000.00000	112.20450	167.33317	112.20450
2050.00000	110.86609	172.47649	110.86609
2100.00000	112.76452	171.60389	112.76452
2150.00000	113.37577	160.32447	113.37577
2200.00000	113.21065	150.47736	113.21065
2250.00000	112.67053	143.08968	112.67053
2300.00000	112.64999	137.83987	112.64999
2350.00000	112.39843	131.29819	112.39843
2400.00000	112.12439	125.78411	112.12439
2450.00000	111.75800	119.51075	111.75800
2500.00000	111.40989	114.83371	111.40989
2550.00000	110.90572	109.35706	110.90572
2600.00000	110.32783	104.88076	110.32783
2650.00000	109.83845	101.63193	109.83845
2700.00000	109.26081	97.67947	109.26081
2750.00000	108.62637	94.80413	108.62637
2800.00000	107.90635	92.57840	107.90635
2850.00000	107.12487	90.66814	107.12487
2900.00000	106.45526	89.83889	106.45526
2950.00000	105.66082	89.12691	105.66082
3000.00000	104.75029	89.57305	104.75029
3050.00000	103.64571	91.92208	103.64571
3100.00000	102.78357	96.88711	102.78357
3150.00000	101.76469	103.91270	101.76469
3200.00000	101.31264	117.37244	101.31264
3250.00000	101.94415	130.30308	101.94415
3300.00000	103.12853	141.83677	103.12853
3350.00000	104.71198	151.01347	104.71198
3400.00000	106.90557	157.35222	106.90557
3450.00000	109.19317	158.27635	109.19317
3500.00000	111.44303	154.92201	111.44303
3550.00000	113.13060	148.95884	113.13060
3600.00000	114.65184	143.23733	114.65184
3650.00000	115.92132	136.06848	115.92132
3700.00000	117.05967	129.08955	117.05967
3750.00000	118.11642	121.30256	118.11642
3800.00000	118.99508	112.95032	118.99508
3850.00000	119.62647	105.04020	119.62647
3900.00000	120.23974	97.91863	120.23974
3950.00000	120.86710	90.77416	120.86710
4000.00000	121.45112	83.26003	121.45112
4050.00000	122.04112	75.88007	122.04112
4100.00000	122.64452	68.14367	122.64452
4150.00000	123.40575	59.56217	123.40575
4200.00000	123.82103	49.52952	123.82103
4250.00000	124.19346	39.03922	124.19346
4300.00000	124.32621	28.10748	124.32621
4350.00000	124.23629	17.36307	124.23629
4400.00000	123.97699	 7.53008	123.97699
4450.00000	123.61898	-1.59561	123.61898
4500.00000	123.23103	-9.94179	123.23103
4550.00000	122.82872	-18.00208	122.82872
4600.00000	122.37372	-25.73134	122.37372
4650.00000	121.95151	-33.24669	121.95151
4700.00000	121.44921	-41.20093	121.44921
4750.00000	120.76892	-49.33407	120.76892
4800.00000	119.89969	-57.09932	119.89969
4850.00000	118.77118	-63.52617	118.77118
4900.00000	117.52331	-67.86455	117.52331
4950.00000	116.32086	-69.77142	116.32086
5000.00000	115.21372	-70.20209	115.21372
5050.00000	114.36483	-69.85238	114.36483
5100.00000	113.42054	-66.07221	113.42054
5150.00000	113.54386	-61.65456	113.54386
5200.00000	113.26048	-57.19949	113.26048
5250.00000	114.99646	-54.22383	114.99646
5300.00000	115.76466	-65.08806	115.76466
5350.00000	115.31508	-72.75522	115.31508
5400.00000	114.77902	-76.75283	114.77902
5450.00000	114.36727	-79.32118	114.36727
5500.00000	114.07112	-81.44990	114.07112
5550.00000	113.84901	-83.48128	113.84901
5600.00000	113.66282	-85.37813	113.66282
5650.00000	113.49876	-87.24544	113.49876
5700.00000	113.34685	-89.41492	113.34685
5750.00000	113.23431	-91.28095	113.23431
5800.00000	113.12369	-93.21212	113.12369
5850.00000	113.05840	-95.14551	113.05840
5900.00000	113.04491	-97.07051	113.04491
5950.00000	113.05581	-99.20965	113.05581
6000.00000	113.07989	-101.53503	113.07989
6050.00000	113.08367	-104.14619	113.08367
6100.00000	113.07070	-107.07584	113.07070
6150.00000	113.02325	-110.09780	113.02325
6200.00000	112.94132	-112.95399	112.94132
6250.00000	112.87561	-115.72221	112.87561
6300.00000	112.81601	-118.43245	112.81601
6350.00000	112.72296	-121.24869	112.72296
6400.00000	112.63068	-123.77723	112.63068
6450.00000	112.58805	-126.43615	112.58805
6500.00000	112.50991	-129.21487	112.50991
6550.00000	112.42037	-131.76424	112.42037
6600.00000	112.34726	-134.23935	112.34726
6650.00000	112.28961	-136.85879	112.28961
6700.00000	112.27577	-139.50067	112.27577
6750.00000	112.22171	-142.17191	112.22171
6800.00000	112.18318	-144.76905	112.18318
6850.00000	112.16021	-147.46797	112.16021
6900.00000	112.12553	-150.07035	112.12553
6950.00000	112.10275	-152.74294	112.10275
7000.00000	112.09880	-155.65385	112.09880
7050.00000	112.06209	-158.48963	112.06209
7100.00000	112.06678	-161.42099	112.06678
7150.00000	112.03682	-164.28757	112.03682
7200.00000	112.03080	-167.36941	112.03080
7250.00000	111.97413	-170.60050	111.97413
7300.00000	111.98136	-173.73952	111.98136
7350.00000	111.92403	-176.95588	111.92403
7400.00000	111.89358	-180.28625	111.89358
7450.00000	111.85230	-183.69363	111.85230
7500.00000	111.79248	-187.20720	111.79248
7550.00000	111.73041	-190.62923	111.73041
7600.00000	111.63131	-194.12659	111.63131
7650.00000	111.55139	-197.65806	111.55139
7700.00000	111.49238	-201.17682	111.49238
7750.00000	111.33927	-204.83826	111.33927
7800.00000	111.20791	-208.38037	111.20791
7850.00000	111.05949	-211.92439	111.05949
7900.00000	110.91942	-215.44711	110.91942
7950.00000	110.76347	-218.97916	110.76347
8000.00000	110.60031	-222.54077	110.60031
8050.00000	110.41143	-226.40489	110.41143
8100.00000	110.22983	-229.40034	110.22983
8150.00000	109.96728	-232.83118	109.96728
8200.00000	109.75600	-235.88720	109.75600
8250.00000	109.48303	-239.30392	109.48303
8300.00000	109.23014	-242.39506	109.23014
8350.00000	108.92402	-245.31079	108.92402
8400.00000	108.62479	-248.78359	108.62479
8450.00000	108.23970	-251.81992	108.23970
8500.00000	107.87155	-254.98108	107.87155
8550.00000	107.55935	-257.73998	107.55935
8600.00000	107.22515	-260.84618	107.22515
8650.00000	106.88196	-263.64868	106.88196
8700.00000	106.59363	-266.81041	106.59363
8750.00000	106.23201	-268.28575	106.23201
8800.00000	105.96855	-270.78431	105.96855
8850.00000	105.66311	-272.66670	105.66311
8900.00000	105.39852	-274.27400	105.39852
8950.00000	105.09881	-276.33555	105.09881
9000.00000	104.71452	-277.97984	104.71452
9050.00000	104.42067	-280.21815	104.42067
9100.00000	104.08641	-281.94081	104.08641
9150.00000	103.79021	-283.96746	103.79021
9200.00000	103.54942	-286.05232	103.54942
9250.00000	103.26540	-288.33845	103.26540
9300.00000	103.08877	-290.30012	103.08877
9350.00000	102.96954	-292.07174	102.96954
9400.00000	102.74310	-293.42947	102.74310
9450.00000	102.63945	-294.47392	102.63945
9500.00000	102.52848	-294.69809	102.52848
9550.00000	102.51510	-295.11514	102.51510
9600.00000	102.46308	-296.71082	102.46308
9650.00000	102.26750	-298.24828	102.26750
9700.00000	102.02865	-299.26329	102.02865
9750.00000	101.87768	-301.70578	101.87768
9800.00000	101.64420	-303.28655	101.64420
9850.00000	101.48986	-304.92021	101.48986
9900.00000	101.25464	-307.18769	101.25464
9950.00000	101.15935	-308.58649	101.15935
10000.00000	101.07218	-310.74021	101.07218
10050.00000	100.95733	-312.22122	100.95733
10100.00000	100.83807	-313.32224	100.83807
10150.00000	100.59130	-315.11222	100.59130
10200.00000	100.40661	-316.64469	100.40661
10250.00000	100.16730	-318.51495	100.16730
10300.00000	100.05033	-320.42255	100.05033
10350.00000	99.80775	-322.45251	99.80775
10400.00000	99.58022	-324.94115	99.58022
10450.00000	99.54994	-327.60809	99.54994
10500.00000	99.51633	-329.83171	99.51633
10550.00000	99.47353	-332.12548	99.47353
10600.00000	99.38150	-333.79909	99.38150
10650.00000	99.28341	-335.14641	99.28341
10700.00000	99.18340	-337.41493	99.18340
10750.00000	99.07117	-339.09264	99.07117
10800.00000	98.85865	-340.54785	98.85865
10850.00000	98.65419	-343.39615	98.65419
10900.00000	98.50057	-345.35095	98.50057
10950.00000	98.33163	-347.37265	98.33163
11000.00000	98.17858	-349.49716	98.17858
11050.00000	97.86918	-351.51186	97.86918
11100.00000	97.69738	-353.89420	97.69738
11150.00000	97.40479	-355.56515	97.40479
11200.00000	97.23198	-357.23134	97.23198
11250.00000	96.92073	-359.31083	96.92073
11300.00000	96.57376	-361.11737	96.57376
11350.00000	96.29530	-362.60092	96.29530
11400.00000	95.94215	-364.31239	95.94215
11450.00000	95.65496	-366.37669	95.65496
11500.00000	95.52450	-367.32323	95.52450
11550.00000	95.22326	-368.49703	95.22326
11600.00000	95.08864	-370.17284	95.08864
11650.00000	94.87025	-370.26558	94.87025
11700.00000	94.66846	-371.07533	94.66846
11750.00000	94.54527	-372.16391	94.54527
11800.00000	94.37362	-373.59882	94.37362
11850.00000	94.30390	-373.49503	94.30390
11900.00000	93.98567	-374.84619	93.98567
11950.00000	93.89872	-375.75722	93.89872
12000.00000	93.66104	-376.48408	93.66104
12050.00000	93.45146	-376.99690	93.45146
12100.00000	93.36856	-378.84165	93.36856
12150.00000	93.18293	-380.32206	93.18293
12200.00000	93.13019	-381.89214	93.13019
12250.00000	93.04671	-382.89156	93.04671
12300.00000	93.98385	-384.32862	93.98385
12350.00000	92.77503	-385.65979	92.77503
12400.00000	92.57472	-385.65640	92.57472
12450.00000	92.41212	-386.78704	92.41212
12500.00000	92.17880	-388.40616	92.17880
12550.00000	92.06907	-390.00871	92.06907
12600.00000	91.82118	-391.97110	91.82118
12650.00000	91.80706	-392.76751	91.80706
12700.00000	91.50938	-393.94004	91.50938
12750.00000	91.37388	-395.17790	91.37388
12800.00000	91.16793	-395.94287	91.16793
12850.00000	90.65221	-397.03508	90.65221
12900.00000	90.48407	-398.12001	90.48407
12950.00000	90.36885	-398.84697	90.36885
13000.00000	90.09340	-401.13381	90.09340
13050.00000	89.86521	-400.47886	89.86521
13100.00000	89.51001	-401.79402	89.51001
13150.00000	89.49949	-402.83961	89.49949
13200.00000	89.10891	-401.03133	89.10891
13250.00000	88.86872	-402.32946	88.86872
13300.00000	88.69208	-400.40913	88.69208
13350.00000	88.42756	-400.40394	88.42756
13400.00000	88.28740	-401.14855	88.28740
13450.00000	87.96574	-400.05081	87.96574
13500.00000	87.93940	-398.45880	87.93940
13550.00000	87.64054	-398.74591	87.64054
13600.00000	87.60001	-397.14633	87.60001
13650.00000	87.48808	-396.44380	87.48808
13700.00000	87.24012	-394.90355	87.24012
13750.00000	86.98198	-394.27178	86.98198
13800.00000	86.72489	-395.86139	86.72489
13850.00000	86.83358	-397.44630	86.83358
13900.00000	86.78021	-396.09069	86.78021
13950.00000	86.98324	-393.51577	86.98324
14000.00000	87.05124	-391.35005	87.05124
14050.00000	87.08607	-389.60690	87.08607
14100.00000	86.80234	-389.07100	86.80234
14150.00000	86.94370	-389.26253	86.94370
14200.00000	87.20152	-387.82877	87.20152
14250.00000	87.73805	-386.10472	87.73805
14300.00000	87.79949	-384.74994	87.79949
14350.00000	87.91300	-381.65868	87.91300
14400.00000	87.74667	-381.64452	87.74667
14450.00000	87.79823	-379.55342	87.79823
14500.00000	88.01413	-379.54883	88.01413
14550.00000	88.36700	-379.16272	88.36700
14600.00000	88.61237	-379.00712	88.61237
14650.00000	89.12282	-377.21842	89.12282
14700.00000	89.41274	-380.54436	89.41274
14750.00000	89.64590	-378.66664	89.64590
14800.00000	89.77971	-377.97994	89.77971
14850.00000	90.24819	-378.45073	90.24819
14900.00000	90.75246	-378.94123	90.75246
14950.00000	91.17554	-378.39775	91.17554
15000.00000	91.51280	-378.96154	91.51280
15050.00000	91.70741	-377.79486	91.70741
15100.00000	92.08545	-377.25684	92.08545
15150.00000	92.46662	-378.44581	92.46662
15200.00000	92.82597	-378.38304	92.82597
15250.00000	93.06718	-379.62535	93.06718
15300.00000	93.60207	-380.32979	93.60207
15350.00000	93.95026	-382.38459	93.95026
15400.00000	94.31027	-381.69287	94.31027
15450.00000	94.69191	-382.83067	94.69191
15500.00000	95.21183	-384.04251	95.21183
15550.00000	95.66799	-385.67402	95.66799
15600.00000	95.99595	-387.38025	95.99595
15650.00000	96.58015	-387.20309	96.58015
15700.00000	96.93144	-390.23541	96.93144
15750.00000	97.49911	-391.80335	97.49911
15800.00000	97.91039	-392.98104	97.91039
15850.00000	98.28485	-394.91882	98.28485
15900.00000	98.65818	-397.74798	98.65818
15950.00000	99.04372	-400.53026	99.04372
16000.00000	99.54028	-402.93927	99.54028
16050.00000	100.02606	-405.39949	100.02606
16100.00000	100.20193	-408.24499	100.20193
16150.00000	100.45750	-411.37939	100.45750
16200.00000	100.87344	-415.04357	100.87344
16250.00000	101.17472	-418.05770	101.17472
16300.00000	101.65207	-421.20861	101.65207
16350.00000	101.89854	-424.15745	101.89854
16400.00000	102.08554	-426.90346	102.08554
16450.00000	102.29354	-430.09968	102.29354
16500.00000	102.50061	-433.32229	102.50061
16550.00000	102.78579	-437.14393	102.78579
16600.00000	102.98434	-440.17265	102.98434
16650.00000	103.16837	-443.06588	103.16837
16700.00000	103.36396	-445.63280	103.36396
16750.00000	103.44376	-449.39431	103.44376
16800.00000	103.62990	-452.46995	103.62990
16850.00000	103.85167	-455.73207	103.85167
16900.00000	104.04275	-459.00545	104.04275
16950.00000	104.20115	-461.93466	104.20115
17000.00000	104.17764	-465.28132	104.17764
17050.00000	104.39492	-467.53290	104.39492
17100.00000	104.39942	-469.63092	104.39942
17150.00000	104.66731	-473.50386	104.66731
17200.00000	104.82111	-476.39965	104.82111
17250.00000	104.84706	-479.99214	104.84706
17300.00000	105.06825	-482.71746	105.06825
17350.00000	105.03514	-485.51598	105.03514
17400.00000	105.18680	-488.45262	105.18680
17450.00000	105.24000	-491.97691	105.24000
17500.00000	105.38465	-494.95881	105.38465
17550.00000	105.49484	-497.78522	105.49484
17600.00000	105.69418	-500.24563	105.69418
17650.00000	105.74515	-504.21908	105.74515
17700.00000	105.79610	-507.42563	105.79610
17750.00000	106.01210	-509.81640	106.01210
17800.00000	105.98152	-513.66492	105.98152
17850.00000	106.09878	-516.31151	106.09878
17900.00000	106.16881	-519.54582	106.16881
17950.00000	106.29698	-522.81436	106.29698
18000.00000	106.35215	-526.67026	106.35215
18050.00000	106.55571	-529.40356	106.55571
18100.00000	106.52982	-533.19974	106.52982
18150.00000	106.57333	-536.00823	106.57333
18200.00000	106.56895	-539.63846	106.56895
18250.00000	106.65389	-542.44810	106.65389
18300.00000	106.75652	-545.58357	106.75652
18350.00000	106.78499	-549.00381	106.78499
18400.00000	106.76406	-552.69776	106.76406
18450.00000	106.73245	-557.12128	106.73245
18500.00000	106.73613	-560.26401	106.73613
18550.00000	106.72327	-563.13905	106.72327
18600.00000	106.77240	-567.10509	106.77240
18650.00000	106.61349	-570.12152	106.61349
18700.00000	106.56813	-573.78281	106.56813
18750.00000	106.56340	-576.87014	106.56340
18800.00000	106.61500	-579.71117	106.61500
18850.00000	106.43054	-583.15416	106.43054
18900.00000	106.32230	-586.06841	106.32230
18950.00000	106.28745	-589.58701	106.28745
19000.00000	106.06511	-592.02869	106.06511
19050.00000	106.12325	-595.11362	106.12325
19100.00000	105.99045	-597.82345	105.99045
19150.00000	106.04804	-600.52804	106.04804
19200.00000	105.94988	-602.99536	105.94988
19250.00000	105.83841	-606.78496	105.83841
19300.00000	105.70949	-608.90383	105.70949
19350.00000	105.66805	-611.67116	105.66805
19400.00000	105.57681	-614.21253	105.57681
19450.00000	105.61027	-616.27831	105.61027
19500.00000	105.44087	-619.72557	105.44087
19550.00000	105.42903	-622.34760	105.42903
19600.00000	105.41146	-625.51058	105.41146
19650.00000	105.28955	-627.70125	105.28955
19700.00000	105.11936	-630.64093	105.11936
19750.00000	105.02543	-632.82026	105.02543
19800.00000	105.05307	-636.26863	105.05307
19850.00000	105.00360	-638.54760	105.00360
19900.00000	104.87496	-642.03656	104.87496
19950.00000	104.76195	-644.42295	104.76195
20000.00000	104.67072	-647.17619	104.67072
20050.00000	104.59539	-649.71103	104.59539
20100.00000	104.39878	-652.48036	104.39878
20150.00000	104.35182	-654.25865	104.35182
20200.00000	104.19901	-657.37137	104.19901
20250.00000	104.02449	-659.72566	104.02449
20300.00000	103.83035	-662.24766	103.83035
20350.00000	103.76304	-664.77280	103.76304
20400.00000	103.55441	-666.28582	103.55441
20450.00000	103.34008	-668.58506	103.34008
20500.00000	103.25066	-671.06497	103.25066
20550.00000	102.86381	-672.28235	102.86381
20600.00000	102.79374	-673.88579	102.79374
20650.00000	102.62888	-675.48992	102.62888
20700.00000	102.42175	-676.93503	102.42175
20750.00000	102.32842	-678.25039	102.32842
20800.00000	102.14942	-679.06272	102.14942
20850.00000	102.09211	-680.30417	102.09211
20900.00000	101.95192	-681.08396	101.95192
20950.00000	101.86252	-681.36602	101.86252
21000.00000	101.82841	-681.93601	101.82841
21050.00000	101.96432	-682.31264	101.96432
21100.00000	101.98308	-682.70436	101.98308
21150.00000	102.13465	-683.56756	102.13465
21200.00000	102.29953	-684.23846	102.29953
21250.00000	102.43192	-686.48063	102.43192
21300.00000	102.65863	-687.32320	102.65863
21350.00000	102.81492	-688.84139	102.81492
21400.00000	102.96702	-691.07935	102.96702
21450.00000	103.16020	-693.21865	103.16020
21500.00000	103.30677	-695.84974	103.30677
21550.00000	103.34188	-697.90707	103.34188
21600.00000	103.52808	-700.79737	103.52808
21650.00000	103.56585	-703.60561	103.56585
21700.00000	103.61862	-705.91351	103.61862
21750.00000	103.66963	-708.66003	103.66963
21800.00000	103.69417	-711.40151	103.69417
21850.00000	103.63182	-713.71065	103.63182
21900.00000	103.68110	-716.24142	103.68110
21950.00000	103.63580	-718.52111	103.63580
22000.00000	103.68074	-720.82670	103.68074
22050.00000	103.63531	-722.95565	103.63531
22100.00000	103.64430	-725.41127	103.64430
22150.00000	103.58801	-727.53673	103.58801
22200.00000	103.63188	-729.69378	103.63188
22250.00000	103.59101	-731.47217	103.59101
22300.00000	103.45711	-733.91804	103.45711
22350.00000	103.60634	-736.34945	103.60634
22400.00000	103.63688	-738.61829	103.63688
22450.00000	103.56999	-740.73612	103.56999
22500.00000	103.52542	-741.89810	103.52542
22550.00000	103.52184	-744.66352	103.52184
22600.00000	103.55957	-747.57090	103.55957
22650.00000	103.58454	-749.87542	103.58454
22700.00000	103.54139	-751.78780	103.54139
22750.00000	103.51536	-752.44914	103.51536
22800.00000	103.58475	-756.92849	103.58475
22850.00000	103.63944	-760.30044	103.63944
22900.00000	103.66686	-760.97287	103.66686
22950.00000	103.64001	-763.43473	103.64001
23000.00000	103.62915	-765.25872	103.62915
23050.00000	103.52268	-769.12951	103.52268
23100.00000	103.66990	-770.57750	103.66990
23150.00000	103.44363	-772.44719	103.44363
23200.00000	103.58961	-776.41284	103.58961
23250.00000	103.35372	-779.77378	103.35372
23300.00000	103.64227	-782.78818	103.64227
23350.00000	103.28765	-785.33076	103.28765
23400.00000	103.25400	-788.14434	103.25400
23450.00000	103.31384	-791.30170	103.31384
23500.00000	103.05683	-793.60365	103.05683
23550.00000	102.92594	-794.70369	102.92594
23600.00000	102.74593	-799.45231	102.74593
23650.00000	102.70039	-801.75556	102.70039
23700.00000	102.78862	-806.68793	102.78862
23750.00000	102.51018	-808.66404	102.51018
23800.00000	102.07164	-810.17436	102.07164
23850.00000	101.95730	-812.05708	101.95730
23900.00000	102.21122	-815.33939	102.21122
23950.00000	101.57756	-818.49820	101.57756
24000.00000	101.26161	-821.78938	101.26161
24050.00000	101.09206	-822.42278	101.09206
24100.00000	101.12890	-825.79953	101.12890
24150.00000	100.85938	-827.77241	100.85938
24200.00000	100.48821	-831.27700	100.48821
24250.00000	99.94015	-830.94091	99.94015
24300.00000	99.86591	-832.98037	99.86591
24350.00000	99.66309	-834.84043	99.66309
24400.00000	99.32991	-835.79657	99.32991
24450.00000	98.90104	-837.33005	98.90104
24500.00000	99.09565	-837.89298	99.09565
24550.00000	98.76405	-840.50752	98.76405
24600.00000	98.90624	-840.19353	98.90624
24650.00000	98.46937	-843.00068	98.46937
24700.00000	98.26551	-840.96307	98.26551
24750.00000	98.13617	-485.19241	98.13617
24800.00000	98.05240	-484.02198	98.05240
24850.00000	97.58571	-124.38923	97.58571
24900.00000	97.68057	235.91068	97.68057
24950.00000	97.76559	235.46605	97.76559
25000.00000	97.68262	229.76290	97.68262
25050.00000	98.04803	233.13562	98.04803
25100.00000	97.35866	230.12596	97.35866
25150.00000	97.89195	231.72853	97.89195
25200.00000	97.61718	229.58112	97.61718
25250.00000	97.93836	229.84868	97.93836
25300.00000	98.17710	229.19052	98.17710
25350.00000	98.08737	224.32787	98.08737
25400.00000	98.08596	220.70870	98.08596
25450.00000	98.55388	222.19413	98.55388
25500.00000	98.27648	220.47777	98.27648
25550.00000	98.48665	219.22393	98.48665
25600.00000	98.63439	216.07770	98.63439
25650.00000	98.73836	215.69119	98.73836
25700.00000	98.87763	213.34653	98.87763
25750.00000	98.70047	211.08468	98.70047
25800.00000	99.00024	208.13226	99.00024
25850.00000	99.00269	206.51115	99.00269
25900.00000	99.11334	203.08174	99.11334
25950.00000	98.97002	205.26476	98.97002
26000.00000	99.00284	199.68928	99.00284
26050.00000	99.10478	197.88186	99.10478
26100.00000	99.27616	196.20886	99.27616
26150.00000	99.15058	193.97896	99.15058
26200.00000	99.36112	191.92900	99.36112
26250.00000	99.21410	189.92669	99.21410
26300.00000	99.59530	186.40969	99.59530
26350.00000	99.05531	184.93766	99.05531
26400.00000	99.21913	183.34970	99.21913
26450.00000	99.51445	179.83634	99.51445
26500.00000	99.27565	178.34470	99.27565
26550.00000	99.31588	172.53216	99.31588
26600.00000	99.29803	171.22715	99.29803
26650.00000	99.33270	171.73729	99.33270
26700.00000	99.28325	168.59917	99.28325
26750.00000	99.21877	166.48232	99.21877
26800.00000	99.16205	161.08454	99.16205
26850.00000	99.36891	161.16895	99.36891
26900.00000	99.40918	160.66424	99.40918
26950.00000	99.51711	156.06867	99.51711
27000.00000	99.15782	156.24101	99.15782
27050.00000	99.44251	153.88400	99.44251
27100.00000	99.19673	151.93883	99.19673
27150.00000	99.18826	148.41229	99.18826
27200.00000	99.41500	146.59260	99.41500
27250.00000	98.97196	146.72007	98.97196
27300.00000	98.82476	143.34228	98.82476
27350.00000	98.97139	143.29234	98.97139
27400.00000	98.90019	140.86724	98.90019
27450.00000	98.85982	139.14255	98.85982
27500.00000	98.78727	138.18714	98.78727
27550.00000	98.93273	135.49023	98.93273
27600.00000	99.26923	133.21075	99.26923
27650.00000	98.79775	132.94533	98.79775
27700.00000	98.94578	128.19614	98.94578
27750.00000	99.03997	126.38174	99.03997
27800.00000	99.08969	122.90921	99.08969
27850.00000	99.37734	125.34940	99.37734
27900.00000	98.93320	123.05571	98.93320
27950.00000	98.43041	120.53290	98.43041
28000.00000	98.63144	119.74122	98.63144
28050.00000	99.31564	116.40753	99.31564
28100.00000	98.71338	115.23236	98.71338
28150.00000	98.73951	113.36180	98.73951
28200.00000	99.15499	108.79951	99.15499
28250.00000	98.86439	105.76260	98.86439
28300.00000	98.56725	107.27818	98.56725
28350.00000	98.88403	105.72770	98.88403
28400.00000	98.68574	104.63182	98.68574
28450.00000	99.27931	101.48634	99.27931
28500.00000	98.79000	99.95396	98.79000
28550.00000	98.82774	101.51024	98.82774
28600.00000	98.86663	98.15868	98.86663
28650.00000	99.03415	93.34478	99.03415
28700.00000	98.84996	94.49110	98.84996
28750.00000	99.53266	94.44824	99.53266
28800.00000	99.38880	91.89613	99.38880
28850.00000	98.71713	87.34409	98.71713
28900.00000	98.77762	86.40017	98.77762
28950.00000	98.67532	86.13222	98.67532
29000.00000	98.80045	84.31473	98.80045
29050.00000	98.63052	83.29404	98.63052
29100.00000	98.64567	83.47577	98.64567
29150.00000	98.52690	81.68767	98.52690
29200.00000	98.25081	78.81061	98.25081
29250.00000	98.66955	78.14751	98.66955
29300.00000	98.51732	75.45557	98.51732
29350.00000	98.85912	73.00931	98.85912
29400.00000	98.57716	72.55189	98.57716
29450.00000	98.39245	71.71255	98.39245
29500.00000	98.79651	70.81899	98.79651
29550.00000	98.55999	66.17751	98.55999
29600.00000	98.38657	67.01952	98.38657
29650.00000	98.48643	65.23047	98.48643
29700.00000	98.25447	66.27959	98.25447
29750.00000	98.23598	65.10996	98.23598
29800.00000	97.99951	62.90149	97.99951
29850.00000	98.08341	61.16230	98.08341
29900.00000	98.38737	61.22809	98.38737
29950.00000	97.55867	60.59611	97.55867
30000.00000	98.00395	62.18341	98.00395
30050.00000	98.04330	59.03943	98.04330
30100.00000	97.65512	60.67086	97.65512
30150.00000	97.85365	57.19654	97.85365
30200.00000	97.85722	56.14709	97.85722
30250.00000	97.56275	57.07256	97.56275
30300.00000	97.50790	58.00467	97.50790
30350.00000	97.55403	59.31640	97.55403
30400.00000	97.54682	57.95807	97.54682
30450.00000	97.23492	58.01383	97.23492
30500.00000	97.32808	57.02242	97.32808
30550.00000	97.40039	59.55082	97.40039
30600.00000	97.48115	59.94875	97.48115
30650.00000	97.60417	60.84972	97.60417
30700.00000	97.85397	60.29115	97.85397
30750.00000	97.70891	62.11836	97.70891
30800.00000	97.94367	63.02793	97.94367
30850.00000	98.32702	65.02015	98.32702
30900.00000	98.37589	66.72505	98.37589
30950.00000	98.90053	66.50398	98.90053
31000.00000	99.28254	66.26359	99.28254
31050.00000	99.71935	67.37839	99.71935
31100.00000	100.34995	67.79916	100.34995
31150.00000	100.48035	67.25935	100.48035
31200.00000	101.43330	67.07764	101.43330
31250.00000	101.84025	66.06921	101.84025
31300.00000	102.41738	64.96091	102.41738
31350.00000	103.07589	63.28142	103.07589
31400.00000	103.44252	61.09148	103.44252
31450.00000	104.07196	58.76375	104.07196
31500.00000	104.64792	55.63322	104.64792
31550.00000	105.07256	53.16314	105.07256
31600.00000	105.77063	49.41358	105.77063
31650.00000	106.17202	45.91067	106.17202
31700.00000	106.60498	42.77868	106.60498
31750.00000	107.09712	40.19142	107.09712
31800.00000	107.45647	35.20858	107.45647
31850.00000	107.85899	30.92362	107.85899
31900.00000	108.01784	27.25826	108.01784
31950.00000	108.43586	22.86831	108.43586
32000.00000	108.73221	18.65681	108.73221
32050.00000	108.98963	14.81309	108.98963
32100.00000	109.19094	 9.63534	109.19094
32150.00000	109.41563	 6.82745	109.41563
32200.00000	109.72408	 1.99385	109.72408
32250.00000	109.84620	-2.80742	109.84620
32300.00000	109.99707	-6.51953	109.99707
32350.00000	110.12192	-10.32998	110.12192
32400.00000	110.42170	-14.51749	110.42170
32450.00000	110.37891	-18.97496	110.37891
32500.00000	110.53884	-22.62359	110.53884
32550.00000	110.73346	-27.69298	110.73346
32600.00000	110.74086	-30.67526	110.74086
32650.00000	110.94573	-35.55220	110.94573
32700.00000	110.84536	-39.88915	110.84536
32750.00000	110.92878	-44.27916	110.92878
32800.00000	111.09985	-47.65224	111.09985
32850.00000	111.18645	-52.35142	111.18645
32900.00000	111.10288	-56.51397	111.10288
32950.00000	111.05273	-61.69811	111.05273
33000.00000	111.02174	-63.94802	111.02174
33050.00000	110.95942	-69.23981	110.95942
33100.00000	111.00022	-72.94178	111.00022
33150.00000	110.88633	-76.49236	110.88633
33200.00000	110.99171	-79.38636	110.99171
33250.00000	110.80995	-83.16237	110.80995
33300.00000	110.71416	-88.07812	110.71416
33350.00000	110.55878	-91.59524	110.55878
33400.00000	110.55024	-94.56379	110.55024
33450.00000	110.45724	-98.84139	110.45724
33500.00000	110.41850	-100.78314	110.41850
33550.00000	110.06042	-105.72748	110.06042
33600.00000	110.16303	-108.40595	110.16303
33650.00000	109.96933	-112.94416	109.96933
33700.00000	109.77198	-114.82756	109.77198
33750.00000	109.53902	-118.56856	109.53902
33800.00000	109.41656	-121.93188	109.41656
33850.00000	108.95012	-123.47463	108.95012
33900.00000	109.09875	-127.34527	109.09875
33950.00000	108.85282	-129.20087	108.85282
34000.00000	108.72079	-132.23791	108.72079
34050.00000	108.48988	-134.84617	108.48988
34100.00000	108.15282	-136.62561	108.15282
34150.00000	108.10970	-138.69055	108.10970
34200.00000	107.89809	-139.44818	107.89809
34250.00000	107.80688	-143.34907	107.80688
34300.00000	107.46794	-144.81541	107.46794
34350.00000	107.46326	-146.69854	107.46326
34400.00000	106.99767	-147.21561	106.99767
34450.00000	106.99584	-150.91710	106.99584
34500.00000	106.70917	-151.61162	106.70917
34550.00000	106.72218	-153.14156	106.72218
34600.00000	106.23249	-155.55563	106.23249
34650.00000	106.22726	-153.61306	106.22726
34700.00000	105.77051	-153.54677	105.77051
34750.00000	105.94235	-158.91114	105.94235
34800.00000	105.94255	-156.10762	105.94255
34850.00000	106.16937	-155.29958	106.16937
34900.00000	106.19297	-158.66820	106.19297
34950.00000	105.90746	-157.29502	105.90746
35000.00000	106.00244	-159.47136	106.00244
35050.00000	106.17160	-158.58955	106.17160
35100.00000	106.25402	-160.48538	106.25402
35150.00000	105.94253	-159.84554	105.94253
35200.00000	106.01064	-161.84117	106.01064
35250.00000	106.10752	-163.69629	106.10752
35300.00000	106.31162	-164.51754	106.31162
35350.00000	106.43639	-164.98308	106.43639
35400.00000	106.61383	-166.08469	106.61383
35450.00000	106.64651	-166.61419	106.64651
35500.00000	106.44829	-167.31789	106.44829
35550.00000	106.84804	-166.44508	106.84804
35600.00000	106.95570	-169.18938	106.95570
35650.00000	106.97475	-169.50141	106.97475
35700.00000	107.17950	-172.11461	107.17950
35750.00000	107.24144	-171.39447	107.24144
35800.00000	107.43358	-171.19539	107.43358
35850.00000	107.68889	-174.26848	107.68889
35900.00000	107.84095	-175.29083	107.84095
35950.00000	108.11860	-176.37854	108.11860
36000.00000	107.84245	-177.83233	107.84245
36050.00000	108.43890	-178.90717	108.43890
36100.00000	108.79297	-180.88534	108.79297
36150.00000	108.74671	-181.82943	108.74671
36200.00000	108.85423	-182.72889	108.85423
36250.00000	109.10594	-184.77780	109.10594
36300.00000	109.18616	-185.41250	109.18616
36350.00000	109.50079	-187.07671	109.50079
36400.00000	109.58114	-188.45681	109.58114
36450.00000	109.68017	-190.42482	109.68017
36500.00000	110.08989	-190.68964	110.08989
36550.00000	110.16063	-194.24231	110.16063
36600.00000	110.33410	-195.05329	110.33410
36650.00000	110.73631	-196.50890	110.73631
36700.00000	110.99753	-200.62326	110.99753
36750.00000	111.04165	-202.19754	111.04165
36800.00000	111.21839	-203.25460	111.21839
36850.00000	111.19103	-205.73848	111.19103
36900.00000	111.69989	-208.17484	111.69989
36950.00000	111.55232	-210.05356	111.55232
37000.00000	111.58857	-211.76002	111.58857
37050.00000	111.73714	-212.82402	111.73714
37100.00000	112.20495	-216.24689	112.20495
37150.00000	112.44913	-218.33482	112.44913
37200.00000	112.89540	-219.70247	112.89540
37250.00000	112.81970	-222.80929	112.81970
37300.00000	113.01691	-226.02162	113.01691
37350.00000	113.47701	-229.02914	113.47701
37400.00000	113.38863	-231.06027	113.38863
37450.00000	113.51088	-233.56008	113.51088
37500.00000	114.07978	-237.67194	114.07978
37550.00000	113.84158	-239.30564	113.84158
37600.00000	114.16525	-242.08383	114.16525
37650.00000	114.45365	-244.26666	114.45365
37700.00000	114.72334	-248.80415	114.72334
37750.00000	114.97077	-250.93359	114.97077
37800.00000	115.04199	-254.78332	115.04199
37850.00000	115.31829	-259.34612	115.31829
37900.00000	115.47867	-262.75977	115.47867
37950.00000	115.72292	-265.67990	115.72292
38000.00000	115.72770	-268.67012	115.72770
38050.00000	115.99514	-272.42194	115.99514
38100.00000	116.27627	-276.41972	116.27627
38150.00000	116.40514	-280.79330	116.40514
38200.00000	116.77633	-285.04587	116.77633
38250.00000	116.82389	-288.66413	116.82389
38300.00000	117.12918	-293.46694	117.12918
38350.00000	117.23427	-296.82449	117.23427
38400.00000	117.40847	-301.41077	117.40847
38450.00000	117.54606	-306.65476	117.54606
38500.00000	117.76940	-311.30790	117.76940
38550.00000	117.92863	-315.44483	117.92863
38600.00000	118.14725	-320.04383	118.14725
38650.00000	118.27162	-325.09620	118.27162
38700.00000	118.36434	-329.68538	118.36434
38750.00000	118.54008	-334.32528	118.54008
38800.00000	118.68340	-339.28411	118.68340
38850.00000	118.78952	-344.43651	118.78952
38900.00000	118.91715	-349.51691	118.91715
38950.00000	118.97107	-355.07362	118.97107
39000.00000	119.04518	-360.17003	119.04518
39050.00000	119.16478	-365.18232	119.16478
39100.00000	119.03840	-370.80130	119.03840
39150.00000	118.99315	-376.42600	118.99315
39200.00000	118.99579	-381.09932	118.99579
39250.00000	118.98257	-386.56950	118.98257
39300.00000	118.93992	-391.92889	118.93992
39350.00000	118.80014	-396.77613	118.80014
39400.00000	118.68316	-402.17079	118.68316
39450.00000	118.49636	-406.89754	118.49636
39500.00000	118.37112	-412.13618	118.37112
39550.00000	118.16504	-417.41661	118.16504
39600.00000	117.83304	-422.02180	117.83304
39650.00000	117.64836	-426.25248	117.64836
39700.00000	117.33362	-430.39227	117.33362
39750.00000	117.10146	-435.08451	117.10146
39800.00000	116.83088	-439.10934	116.83088
39850.00000	116.49678	-443.23683	116.49678
39900.00000	116.19457	-446.94230	116.19457
39950.00000	115.93478	-450.51763	115.93478
40000.00000	115.41586	-452.72724	115.41586
40050.00000	115.23709	-457.11715	115.23709
40100.00000	114.95338	-460.24408	114.95338
40150.00000	114.59472	-463.29480	114.59472
40200.00000	114.24023	-466.45010	114.24023
40250.00000	113.94901	-468.94413	113.94901
40300.00000	113.70833	-470.83168	113.70833
40350.00000	113.22881	-473.44933	113.22881
40400.00000	112.87051	-475.52410	112.87051
40450.00000	112.63346	-477.36787	112.63346
40500.00000	112.42999	-479.31954	112.42999
40550.00000	112.13930	-481.28363	112.13930
40600.00000	111.88030	-482.62359	111.88030
40650.00000	111.56380	-484.01211	111.56380
40700.00000	111.14118	-484.76082	111.14118
40750.00000	111.12042	-485.98983	111.12042
40800.00000	110.81206	-487.58206	110.81206
40850.00000	110.57810	-487.91866	110.57810
40900.00000	110.28128	-489.05120	110.28128
40950.00000	110.08474	-489.37228	110.08474
41000.00000	109.73409	-490.18694	109.73409
41050.00000	109.72368	-490.46972	109.72368
41100.00000	109.68209	-491.42585	109.68209
41150.00000	109.53548	-490.32334	109.53548
41200.00000	109.51794	-491.21013	109.51794
41250.00000	109.26480	-493.65911	109.26480
41300.00000	109.00071	-492.66879	109.00071
41350.00000	109.02071	-491.64506	109.02071
41400.00000	109.08366	-496.07705	109.08366
41450.00000	109.07051	-493.68036	109.07051
41500.00000	108.85935	-495.33280	108.85935
41550.00000	108.77484	-491.72760	108.77484
41600.00000	108.46467	-493.90879	108.46467
41650.00000	108.97094	-495.63773	108.97094
41700.00000	108.91545	-495.00126	108.91545
41750.00000	108.76018	-492.50858	108.76018
41800.00000	107.88718	-498.34092	107.88718
41850.00000	107.69837	-497.40726	107.69837
41900.00000	107.70167	-497.63522	107.70167
41950.00000	108.70673	-493.03458	108.70673
42000.00000	107.56464	-499.60226	107.56464
42050.00000	106.71422	-499.82851	106.71422
42100.00000	107.24986	-498.64081	107.24986
42150.00000	106.60031	-504.20887	106.60031
42200.00000	106.53963	-498.95978	106.53963
42250.00000	106.38813	-501.75441	106.38813
42300.00000	105.47273	-504.09317	105.47273
42350.00000	106.21731	-502.35256	106.21731
42400.00000	105.95264	-502.59122	105.95264
42450.00000	106.28117	-508.20342	106.28117
42500.00000	105.24253	-509.59223	105.24253
42550.00000	105.74902	-498.97401	105.74902
42600.00000	105.37301	-507.39666	105.37301
42650.00000	104.68423	-506.85114	104.68423
42700.00000	104.87020	-512.90541	104.87020
42750.00000	105.77344	-514.82782	105.77344
42800.00000	105.23675	-521.08615	105.23675
42850.00000	104.52704	-522.69385	104.52704
42900.00000	105.80469	-517.92503	105.80469
42950.00000	104.75679	-525.48029	104.75679
43000.00000	105.50578	-535.99586	105.50578
43050.00000	105.00977	-536.94231	105.00977
43100.00000	105.37022	-531.08913	105.37022
43150.00000	104.72470	-539.36859	104.72470
43200.00000	105.06560	-541.20070	105.06560
43250.00000	105.77841	-546.35609	105.77841
43300.00000	105.59976	-547.87950	105.59976
43350.00000	106.39924	-555.28838	106.39924
43400.00000	106.09032	-558.38988	106.09032
43450.00000	107.09712	-557.52878	107.09712
43500.00000	105.72982	-567.30796	105.72982
43550.00000	106.44003	-570.43392	106.44003
43600.00000	106.44604	-572.01765	106.44604
43650.00000	106.87123	-581.46346	106.87123
43700.00000	106.93371	-582.15978	106.93371
43750.00000	106.46590	-584.15052	106.46590
43800.00000	107.15615	-592.94626	107.15615
43850.00000	107.55272	-598.71600	107.55272
43900.00000	108.20434	-598.79874	108.20434
43950.00000	108.14822	-605.44160	108.14822
44000.00000	107.75288	-610.79736	107.75288
44050.00000	108.02651	-616.26088	108.02651
44100.00000	108.16822	-627.60313	108.16822
44150.00000	108.09824	-624.96759	108.09824
44200.00000	108.14268	-626.83055	108.14268
44250.00000	108.57525	-633.13095	108.57525
44300.00000	108.92241	-641.35299	108.92241
44350.00000	107.74660	-645.08291	107.74660
44400.00000	108.56743	-648.87718	108.56743
44450.00000	108.62729	-650.67079	108.62729
44500.00000	108.50910	-654.51934	108.50910
44550.00000	109.80118	-663.91909	109.80118
44600.00000	108.74663	-663.79464	108.74663
44650.00000	108.31345	-672.77617	108.31345
44700.00000	108.08553	-675.29097	108.08553
44750.00000	108.32778	-677.49185	108.32778
44800.00000	108.79696	-685.00287	108.79696
44850.00000	108.53420	-688.67449	108.53420
44900.00000	107.98665	-691.14757	107.98665
44950.00000	108.35624	-696.78857	108.35624
45000.00000	108.27051	-704.64399	108.27051
45050.00000	106.69131	-698.68380	106.69131
45100.00000	107.20158	-707.57583	107.20158
45150.00000	107.21000	-717.17230	107.21000
45200.00000	106.92819	-714.41151	106.92819
45250.00000	106.74198	-717.79455	106.74198
45300.00000	106.45777	-724.00551	106.45777
45350.00000	106.19651	-730.57157	106.19651
45400.00000	106.57335	-730.07662	106.57335
45450.00000	106.05277	-739.14013	106.05277
45500.00000	104.56307	-741.97239	104.56307
45550.00000	104.52752	-737.51669	104.52752
45600.00000	105.62077	-747.30702	105.62077
45650.00000	103.60108	-752.94782	103.60108
45700.00000	103.88747	-754.29421	103.88747
45750.00000	104.67509	-749.55883	104.67509
45800.00000	103.27649	-757.98273	103.27649
45850.00000	103.35591	-760.48484	103.35591
45900.00000	103.05662	-760.55793	103.05662
45950.00000	102.51119	-760.63501	102.51119
46000.00000	100.83487	-777.11654	100.83487
46050.00000	101.34485	-775.91134	101.34485
46100.00000	99.98728	-772.35446	99.98728
46150.00000	99.90605	-773.96470	99.90605
46200.00000	98.20578	-785.66889	98.20578
46250.00000	99.39371	-781.81290	99.39371
46300.00000	98.18405	-783.46963	98.18405
46350.00000	99.20343	-785.76887	99.20343
46400.00000	97.28409	-787.11050	97.28409
46450.00000	95.63622	-787.92017	95.63622
46500.00000	96.33135	-785.64279	96.33135
46550.00000	96.94585	-783.63799	96.94585
46600.00000	96.71467	-779.90409	96.71467
46650.00000	93.96407	-783.70832	93.96407
46700.00000	93.93793	-776.97500	93.93793
46750.00000	94.90675	-768.56629	94.90675
46800.00000	92.86999	-776.10417	92.86999
46850.00000	94.21494	-1122.56259	94.21494
46900.00000	94.34586	-1132.55474	94.34586
46950.00000	95.16845	-1131.81129	95.16845
47000.00000	94.76596	-1125.47065	94.76596
47050.00000	96.24850	-1134.42887	96.24850
47100.00000	95.16372	-1133.23212	95.16372
47150.00000	96.42964	-1133.65689	96.42964
47200.00000	94.60887	-1133.64620	94.60887
47250.00000	96.62630	-1132.58566	96.62630
47300.00000	96.12851	-1144.14314	96.12851
47350.00000	95.97779	-1492.62850	95.97779
47400.00000	95.49656	-1494.64488	95.49656
47450.00000	96.86607	-1495.69014	96.86607
47500.00000	94.80683	-1507.36705	94.80683
47550.00000	95.00204	-1855.49905	95.00204
47600.00000	95.01998	-1864.30984	95.01998
47650.00000	96.51569	-1864.91284	96.51569
47700.00000	95.00174	-1867.41406	95.00174
47750.00000	93.60401	-1865.65910	93.60401
47800.00000	94.32207	-1883.42047	94.32207
47850.00000	95.09917	-2231.00563	95.09917
47900.00000	95.04447	-2581.78041	95.04447
47950.00000	94.65136	-2583.52081	94.65136
48000.00000	94.45511	-2584.15078	94.45511
48050.00000	95.28662	-2590.79096	95.28662
48100.00000	94.50101	-2590.38305	94.50101
48150.00000	94.75558	-2948.35056	94.75558
48200.00000	95.27107	-2943.43458	95.27107
48250.00000	94.83963	-2953.37518	94.83963
48300.00000	95.20873	-2953.62289	95.20873
48350.00000	95.59468	-2961.02042	95.59468
48400.00000	95.83726	-3301.76054	95.83726
48450.00000	96.90795	-3310.58143	96.90795
48500.00000	96.30372	-3315.04887	96.30372
48550.00000	95.15942	-3321.69450	95.15942
48600.00000	97.41712	-3676.87072	97.41712
48650.00000	97.45481	-3677.97857	97.45481
48700.00000	97.57291	-3686.61511	97.57291
48750.00000	96.44515	-4034.90540	96.44515
48800.00000	97.39673	-4046.72403	97.39673
48850.00000	97.48549	-4052.91251	97.48549
48900.00000	96.19725	-4404.43121	96.19725
48950.00000	97.46824	-4423.20824	97.46824
49000.00000	97.66539	-4421.95700	97.66539
49050.00000	96.57086	-4428.22061	96.57086
49100.00000	96.76106	-4789.38046	96.76106
49150.00000	97.97416	-5147.16976	97.97416
49200.00000	96.81201	-5157.86991	96.81201
49250.00000	96.68423	-5511.17748	96.68423
49300.00000	97.21130	-5170.14224	97.21130
49350.00000	95.02764	-5153.60965	95.02764
49400.00000	95.64577	-4807.55025	95.64577
49450.00000	93.51194	-4452.51734	93.51194
49500.00000	93.90521	-4101.38367	93.90521
49550.00000	95.61703	-3750.26693	95.61703
49600.00000	93.40507	-3747.16297	93.40507
49650.00000	93.83230	-3741.45469	93.83230
49700.00000	93.38731	-3408.74694	93.38731
49750.00000	92.88999	-3407.83198	92.88999
49800.00000	90.05740	-3401.17530	90.05740
49850.00000	87.30479	-3382.80600	87.30479
49900.00000	81.16702	-3033.70189	81.16702
49950.00000	81.60532	-2678.78516	81.60532
