---ACOUSTIC CALIBRATION---
Filename: C:\Data\AZH DATA\AZH62\RightSecondary.calib
Date: 8/27/2019 4:13:40 PM
Format: 4
Probe Tube Correction File: C:\Data\Probe Tube Calibrations\50_ProbeTube.calib
Experiment VIs: 850
EPL_CFTS.exe V12.0.1 (2012)
DAQmx V9.6

Attenuation (dB): 40.000000
Min Freq (Hz): 50.000000
Max Freq (Hz): 49950.000000
Freq Step (Hz): 50.000000
Sample Rate (Hz): 100000.000000
[Smoothing]
Method=None
MA.Iterations=0
MA.Length=0
Loess.Length=0
Loess.Type=Linear
Loess.Robust=FALSE


Freq(Hz)	Mag(dB)	Phase(deg)	Unsmoothed(dB)

50.00000	102.90617	338.76636	102.90617
100.00000	79.55858	313.11270	79.55858
150.00000	71.69091	418.27704	71.69091
200.00000	69.80257	388.15124	69.80257
250.00000	87.36261	392.56296	87.36261
300.00000	85.10207	325.12633	85.10207
350.00000	82.43618	336.96307	82.43618
400.00000	84.60214	330.88321	84.60214
450.00000	84.55255	306.79667	84.55255
500.00000	87.06946	330.62301	87.06946
550.00000	88.56634	318.57326	88.56634
600.00000	91.32454	320.78989	91.32454
650.00000	92.26591	308.07068	92.26591
700.00000	94.25310	302.44890	94.25310
750.00000	95.49781	295.60342	95.49781
800.00000	98.21527	290.09181	98.21527
850.00000	100.31965	277.27562	100.31965
900.00000	101.91780	259.81887	101.91780
950.00000	103.08216	241.87951	103.08216
1000.00000	102.92919	224.40517	102.92919
1050.00000	102.29533	215.27339	102.29533
1100.00000	102.46750	203.52087	102.46750
1150.00000	101.48815	192.40405	101.48815
1200.00000	100.97869	190.28604	100.97869
1250.00000	101.02011	179.02806	101.02011
1300.00000	99.83194	171.54537	99.83194
1350.00000	98.95531	168.55579	98.95531
1400.00000	98.35957	168.84432	98.35957
1450.00000	98.23832	169.68825	98.23832
1500.00000	98.52901	166.78062	98.52901
1550.00000	98.21273	166.96655	98.21273
1600.00000	99.64756	164.63594	99.64756
1650.00000	99.73433	154.84409	99.73433
1700.00000	98.79580	149.91196	98.79580
1750.00000	98.24575	149.36304	98.24575
1800.00000	97.82374	148.14239	97.82374
1850.00000	97.58202	149.74049	97.58202
1900.00000	98.55321	151.01817	98.55321
1950.00000	99.36984	142.65574	99.36984
2000.00000	99.26254	133.97421	99.26254
2050.00000	98.08915	130.35646	98.08915
2100.00000	98.31885	129.06254	98.31885
2150.00000	97.70299	124.35866	97.70299
2200.00000	97.39167	122.59595	97.39167
2250.00000	96.46376	119.63849	96.46376
2300.00000	96.34188	121.04685	96.34188
2350.00000	96.07013	120.51837	96.07013
2400.00000	95.89457	120.53065	95.89457
2450.00000	95.81142	119.58042	95.81142
2500.00000	95.06766	118.49445	95.06766
2550.00000	94.84954	124.11224	94.84954
2600.00000	94.96059	129.08790	94.96059
2650.00000	95.53894	138.42411	95.53894
2700.00000	97.36270	137.69512	97.36270
2750.00000	98.79876	133.23535	98.79876
2800.00000	99.40417	123.60271	99.40417
2850.00000	99.39440	114.50731	99.39440
2900.00000	99.03534	108.06515	99.03534
2950.00000	98.67386	103.88070	98.67386
3000.00000	98.28233	100.13108	98.28233
3050.00000	97.81418	96.91493	97.81418
3100.00000	97.61047	95.26376	97.61047
3150.00000	97.07519	91.43840	97.07519
3200.00000	96.37026	89.32668	96.37026
3250.00000	95.67876	88.39228	95.67876
3300.00000	94.69901	88.01309	94.69901
3350.00000	93.50749	91.13283	93.50749
3400.00000	92.74413	99.64811	92.74413
3450.00000	92.70389	109.08633	92.70389
3500.00000	93.39448	115.23624	93.39448
3550.00000	93.93136	117.08715	93.93136
3600.00000	94.21808	118.06503	94.21808
3650.00000	94.08951	120.74987	94.08951
3700.00000	93.67782	129.43005	93.67782
3750.00000	94.63981	140.47556	94.63981
3800.00000	96.52928	150.09796	96.52928
3850.00000	98.10306	153.48815	98.10306
3900.00000	99.96523	154.51033	99.96523
3950.00000	101.67106	152.20935	101.67106
4000.00000	103.00135	148.42341	103.00135
4050.00000	104.11648	143.71577	104.11648
4100.00000	105.01021	139.99360	105.01021
4150.00000	106.01308	136.75005	106.01308
4200.00000	106.80429	133.58526	106.80429
4250.00000	107.59960	130.53276	107.59960
4300.00000	108.51435	128.06873	108.51435
4350.00000	109.46999	125.90902	109.46999
4400.00000	110.57534	123.59825	110.57534
4450.00000	111.83332	120.43360	111.83332
4500.00000	113.18899	116.07472	113.18899
4550.00000	114.58654	110.40949	114.58654
4600.00000	115.95649	103.39802	115.95649
4650.00000	117.37246	94.94294	117.37246
4700.00000	118.70630	84.44412	118.70630
4750.00000	119.86490	71.94503	119.86490
4800.00000	120.74492	57.47163	120.74492
4850.00000	121.15548	41.92591	121.15548
4900.00000	121.07008	26.23859	121.07008
4950.00000	120.49378	11.67544	120.49378
5000.00000	119.44644	-0.38949	119.44644
5050.00000	118.38139	-8.62815	118.38139
5100.00000	117.16972	-18.13116	117.16972
5150.00000	114.69090	-20.60943	114.69090
5200.00000	113.58190	-2.32315	113.58190
5250.00000	116.66110	 3.30087	116.66110
5300.00000	118.37826	-10.00294	118.37826
5350.00000	118.67014	-23.51965	118.67014
5400.00000	118.40243	-34.45316	118.40243
5450.00000	117.96105	-43.13160	117.96105
5500.00000	117.48212	-50.53875	117.48212
5550.00000	117.00881	-56.94087	117.00881
5600.00000	116.54188	-62.75444	116.54188
5650.00000	116.10210	-68.02658	116.10210
5700.00000	115.65644	-73.12891	115.65644
5750.00000	115.24014	-77.70409	115.24014
5800.00000	114.82217	-82.18043	114.82217
5850.00000	114.43805	-86.45432	114.43805
5900.00000	114.05979	-90.52715	114.05979
5950.00000	113.68900	-94.41603	113.68900
6000.00000	113.33550	-98.08300	113.33550
6050.00000	112.97165	-101.76677	112.97165
6100.00000	112.62865	-105.30169	112.62865
6150.00000	112.28149	-108.75540	112.28149
6200.00000	111.93002	-112.05352	111.93002
6250.00000	111.60747	-115.28925	111.60747
6300.00000	111.30143	-118.48784	111.30143
6350.00000	110.97444	-121.66269	110.97444
6400.00000	110.64741	-124.61508	110.64741
6450.00000	110.35403	-127.63528	110.35403
6500.00000	110.01614	-130.50595	110.01614
6550.00000	109.68873	-133.13355	109.68873
6600.00000	109.37973	-135.71392	109.37973
6650.00000	109.08192	-138.20187	109.08192
6700.00000	108.77036	-140.67872	108.77036
6750.00000	108.46497	-142.92015	108.46497
6800.00000	108.16823	-145.02344	108.16823
6850.00000	107.87996	-146.98513	107.87996
6900.00000	107.61128	-148.83322	107.61128
6950.00000	107.35950	-150.47584	107.35950
7000.00000	107.14332	-152.16551	107.14332
7050.00000	106.93801	-153.89463	106.93801
7100.00000	106.76112	-155.59630	106.76112
7150.00000	106.58343	-157.09029	106.58343
7200.00000	106.40873	-158.51523	106.40873
7250.00000	106.23615	-159.92266	106.23615
7300.00000	106.13665	-161.12948	106.13665
7350.00000	106.02971	-162.28052	106.02971
7400.00000	105.98085	-163.58467	105.98085
7450.00000	105.94569	-164.71127	105.94569
7500.00000	105.96544	-165.90431	105.96544
7550.00000	106.03858	-167.31301	106.03858
7600.00000	106.11771	-168.97932	106.11771
7650.00000	106.21423	-170.84754	106.21423
7700.00000	106.36310	-172.83988	106.36310
7750.00000	106.48061	-175.10209	106.48061
7800.00000	106.63382	-177.63949	106.63382
7850.00000	106.78704	-180.53528	106.78704
7900.00000	106.91213	-183.61273	106.91213
7950.00000	107.01553	-187.03462	107.01553
8000.00000	107.10153	-190.50133	107.10153
8050.00000	107.15706	-194.62284	107.15706
8100.00000	107.19891	-198.15566	107.19891
8150.00000	107.13820	-202.10462	107.13820
8200.00000	107.09253	-205.88337	107.09253
8250.00000	106.99530	-209.99370	106.99530
8300.00000	106.91550	-213.99510	106.91550
8350.00000	106.75811	-217.79701	106.75811
8400.00000	106.55958	-222.05219	106.55958
8450.00000	106.28007	-225.82602	106.28007
8500.00000	106.02675	-229.49196	106.02675
8550.00000	105.79459	-232.69550	105.79459
8600.00000	105.51118	-236.24421	105.51118
8650.00000	105.18689	-239.42585	105.18689
8700.00000	104.91917	-243.13718	104.91917
8750.00000	104.56424	-245.32727	104.56424
8800.00000	104.26223	-248.56040	104.26223
8850.00000	103.91772	-251.38332	103.91772
8900.00000	103.62907	-253.70592	103.62907
8950.00000	103.33131	-256.35737	103.33131
9000.00000	103.00972	-258.45582	103.00972
9050.00000	102.81441	-260.93978	102.81441
9100.00000	102.58179	-262.97943	102.58179
9150.00000	102.37830	-264.86583	102.37830
9200.00000	102.22163	-266.77683	102.22163
9250.00000	102.00229	-268.71476	102.00229
9300.00000	101.84178	-270.55625	101.84178
9350.00000	101.71542	-272.37675	101.71542
9400.00000	101.46408	-273.83675	101.46408
9450.00000	101.36355	-275.55307	101.36355
9500.00000	101.27053	-277.33112	101.27053
9550.00000	101.11887	-279.28802	101.11887
9600.00000	101.06606	-281.43934	101.06606
9650.00000	100.98054	-283.71590	100.98054
9700.00000	100.89854	-285.24094	100.89854
9750.00000	100.87886	-288.01428	100.87886
9800.00000	100.76577	-289.68253	100.76577
9850.00000	100.64907	-291.17657	100.64907
9900.00000	100.38068	-293.18712	100.38068
9950.00000	100.19912	-294.69443	100.19912
10000.00000	100.00642	-297.08520	100.00642
10050.00000	99.76742	-299.13690	99.76742
10100.00000	99.54053	-301.23236	99.54053
10150.00000	99.24576	-304.21003	99.24576
10200.00000	99.07798	-306.65260	99.07798
10250.00000	98.89407	-309.25525	98.89407
10300.00000	98.87602	-311.55960	98.87602
10350.00000	98.72721	-313.41496	98.72721
10400.00000	98.54757	-315.47459	98.54757
10450.00000	98.51293	-317.46039	98.51293
10500.00000	98.44282	-319.16729	98.44282
10550.00000	98.29696	-321.14949	98.29696
10600.00000	98.12479	-322.96334	98.12479
10650.00000	97.94889	-324.68568	97.94889
10700.00000	97.82407	-327.81242	97.82407
10750.00000	97.74728	-330.29427	97.74728
10800.00000	97.59270	-332.45251	97.59270
10850.00000	97.49223	-335.60097	97.49223
10900.00000	97.39636	-337.64336	97.39636
10950.00000	97.29069	-339.43864	97.29069
11000.00000	97.12081	-341.39531	97.12081
11050.00000	96.78667	-343.33696	96.78667
11100.00000	96.54489	-345.87065	96.54489
11150.00000	96.20369	-347.93430	96.20369
11200.00000	96.01319	-350.10229	96.01319
11250.00000	95.70623	-352.60861	95.70623
11300.00000	95.41279	-354.85543	95.41279
11350.00000	95.18890	-356.33351	95.18890
11400.00000	94.88964	-357.76959	94.88964
11450.00000	94.68563	-359.62695	94.68563
11500.00000	94.57030	-360.26733	94.57030
11550.00000	94.24831	-361.24293	94.24831
11600.00000	94.12740	-363.22409	94.12740
11650.00000	93.89147	-363.60856	93.89147
11700.00000	93.78708	-364.85641	93.78708
11750.00000	93.73880	-366.38769	93.73880
11800.00000	93.67328	-368.20472	93.67328
11850.00000	93.67191	-368.54051	93.67191
11900.00000	93.43417	-370.44864	93.43417
11950.00000	93.42500	-371.48764	93.42500
12000.00000	93.27033	-372.72919	93.27033
12050.00000	93.07672	-374.25665	93.07672
12100.00000	92.99251	-377.09390	92.99251
12150.00000	92.87088	-379.37364	92.87088
12200.00000	92.85583	-382.00052	92.85583
12250.00000	92.77885	-383.79406	92.77885
12300.00000	93.79032	-386.44788	93.79032
12350.00000	92.55704	-388.47217	92.55704
12400.00000	92.36460	-389.76333	92.36460
12450.00000	92.13344	-391.58398	92.13344
12500.00000	91.85809	-394.07396	91.85809
12550.00000	91.59389	-396.09411	91.59389
12600.00000	91.26481	-398.39086	91.26481
12650.00000	91.13553	-400.25341	91.13553
12700.00000	90.79686	-402.07852	90.79686
12750.00000	90.53447	-404.08823	90.53447
12800.00000	90.21743	-404.94954	90.21743
12850.00000	89.67099	-405.97404	89.67099
12900.00000	89.46454	-407.66833	89.46454
12950.00000	89.32285	-408.91552	89.32285
13000.00000	89.05979	-410.78189	89.05979
13050.00000	88.87850	-410.71324	88.87850
13100.00000	88.63332	-411.38814	88.63332
13150.00000	88.50388	-413.02964	88.50388
13200.00000	88.18571	-412.56570	88.18571
13250.00000	87.87971	-413.43624	87.87971
13300.00000	87.62570	-412.68525	87.62570
13350.00000	87.35572	-414.23032	87.35572
13400.00000	87.31773	-415.85467	87.31773
13450.00000	87.01736	-415.01442	87.01736
13500.00000	86.98324	-415.02871	86.98324
13550.00000	86.60941	-415.40941	86.60941
13600.00000	86.48701	-415.25035	86.48701
13650.00000	86.26245	-415.63717	86.26245
13700.00000	85.83032	-416.45819	85.83032
13750.00000	85.62008	-416.56154	85.62008
13800.00000	85.39820	-418.00556	85.39820
13850.00000	85.22345	-418.98064	85.22345
13900.00000	84.96100	-419.41163	84.96100
13950.00000	84.99597	-418.69112	84.99597
14000.00000	85.12016	-418.32568	85.12016
14050.00000	85.06414	-418.07185	85.06414
14100.00000	84.93304	-416.60282	84.93304
14150.00000	84.87579	-416.80738	84.87579
14200.00000	84.85162	-415.50242	84.85162
14250.00000	85.01703	-412.70628	85.01703
14300.00000	84.89826	-413.53939	84.89826
14350.00000	84.85017	-412.74717	84.85017
14400.00000	84.58906	-412.69499	84.58906
14450.00000	84.66624	-413.13655	84.66624
14500.00000	84.61878	-413.94436	84.61878
14550.00000	84.98848	-413.57357	84.98848
14600.00000	85.01684	-414.38494	85.01684
14650.00000	85.13764	-411.80524	85.13764
14700.00000	85.23422	-415.49929	85.23422
14750.00000	85.22136	-414.64754	85.22136
14800.00000	85.09109	-413.42007	85.09109
14850.00000	85.35884	-414.06583	85.35884
14900.00000	85.56225	-415.23704	85.56225
14950.00000	85.69678	-415.28148	85.69678
15000.00000	85.95289	-416.36936	85.95289
15050.00000	85.94744	-415.87353	85.94744
15100.00000	86.01710	-415.46525	86.01710
15150.00000	86.34184	-416.90914	86.34184
15200.00000	86.33988	-416.67524	86.33988
15250.00000	86.24322	-416.91206	86.24322
15300.00000	86.52772	-417.63566	86.52772
15350.00000	86.48269	-418.34961	86.48269
15400.00000	86.35435	-417.76878	86.35435
15450.00000	86.63271	-419.05648	86.63271
15500.00000	86.86797	-420.02425	86.86797
15550.00000	87.08279	-422.08876	87.08279
15600.00000	87.17552	-422.16354	87.17552
15650.00000	87.43515	-420.47882	87.43515
15700.00000	87.59973	-422.01328	87.59973
15750.00000	87.64319	-422.58943	87.64319
15800.00000	87.75127	-422.25074	87.75127
15850.00000	87.90873	-422.67044	87.90873
15900.00000	87.96265	-423.93634	87.96265
15950.00000	88.36045	-423.79032	88.36045
16000.00000	88.49905	-424.10687	88.49905
16050.00000	88.84624	-425.17182	88.84624
16100.00000	88.87432	-426.59787	88.87432
16150.00000	89.03315	-427.58537	89.03315
16200.00000	89.37302	-429.29897	89.37302
16250.00000	89.68546	-428.62537	89.68546
16300.00000	90.04592	-429.38389	90.04592
16350.00000	90.08903	-429.87652	90.08903
16400.00000	90.19602	-431.40071	90.19602
16450.00000	90.53802	-432.88879	90.53802
16500.00000	90.74150	-434.05272	90.74150
16550.00000	90.97662	-435.61411	90.97662
16600.00000	91.38768	-437.08122	91.38768
16650.00000	91.56272	-438.34621	91.56272
16700.00000	91.89713	-438.12264	91.89713
16750.00000	91.92072	-441.20545	91.92072
16800.00000	92.29397	-442.67845	92.29397
16850.00000	92.58603	-444.06794	92.58603
16900.00000	92.94929	-446.10212	92.94929
16950.00000	93.08724	-446.95150	93.08724
17000.00000	93.21016	-449.07926	93.21016
17050.00000	93.51273	-450.13771	93.51273
17100.00000	93.62004	-451.96205	93.62004
17150.00000	93.99793	-454.81805	93.99793
17200.00000	94.25164	-456.19670	94.25164
17250.00000	94.32815	-458.31929	94.32815
17300.00000	94.60931	-460.03457	94.60931
17350.00000	94.68789	-461.96461	94.68789
17400.00000	94.86297	-464.00423	94.86297
17450.00000	94.99811	-466.14502	94.99811
17500.00000	95.23654	-467.50907	95.23654
17550.00000	95.40620	-469.43042	95.40620
17600.00000	95.68509	-470.86476	95.68509
17650.00000	95.84219	-473.46745	95.84219
17700.00000	95.96725	-475.57573	95.96725
17750.00000	96.33705	-476.73811	96.33705
17800.00000	96.44920	-479.07526	96.44920
17850.00000	96.69692	-480.25466	96.69692
17900.00000	96.84702	-482.16425	96.84702
17950.00000	97.08862	-484.67316	97.08862
18000.00000	97.37975	-487.15006	97.37975
18050.00000	97.68351	-488.56614	97.68351
18100.00000	97.86128	-491.64701	97.86128
18150.00000	98.08962	-493.12540	98.08962
18200.00000	98.25793	-495.70993	98.25793
18250.00000	98.53543	-497.61661	98.53543
18300.00000	98.86171	-499.91295	98.86171
18350.00000	99.07440	-502.15770	99.07440
18400.00000	99.26307	-504.93859	99.26307
18450.00000	99.48331	-508.47188	99.48331
18500.00000	99.69062	-511.03742	99.69062
18550.00000	99.94781	-513.15339	99.94781
18600.00000	100.29806	-516.44884	100.29806
18650.00000	100.37155	-518.88116	100.37155
18700.00000	100.65145	-522.42871	100.65145
18750.00000	100.91529	-525.46912	100.91529
18800.00000	101.28635	-527.91152	101.28635
18850.00000	101.36101	-531.37681	101.36101
18900.00000	101.51791	-534.83451	101.51791
18950.00000	101.79382	-538.91935	101.79382
19000.00000	101.81284	-541.79531	101.81284
19050.00000	102.09951	-545.86853	102.09951
19100.00000	102.17522	-549.41131	102.17522
19150.00000	102.41427	-552.92235	102.41427
19200.00000	102.49567	-556.33641	102.49567
19250.00000	102.56775	-561.17518	102.56775
19300.00000	102.55661	-564.30311	102.55661
19350.00000	102.62916	-568.00567	102.62916
19400.00000	102.64156	-571.66485	102.64156
19450.00000	102.76117	-574.65188	102.76117
19500.00000	102.66456	-579.27920	102.66456
19550.00000	102.69422	-582.58149	102.69422
19600.00000	102.73780	-586.51061	102.73780
19650.00000	102.65430	-589.59294	102.65430
19700.00000	102.55721	-593.01502	102.55721
19750.00000	102.47625	-595.93543	102.47625
19800.00000	102.53425	-600.23908	102.53425
19850.00000	102.50588	-603.08840	102.50588
19900.00000	102.38290	-607.15120	102.38290
19950.00000	102.33273	-610.19680	102.33273
20000.00000	102.23277	-613.42191	102.23277
20050.00000	102.17784	-616.70665	102.17784
20100.00000	101.99215	-619.90803	101.99215
20150.00000	101.97888	-622.04499	101.97888
20200.00000	101.84099	-625.96813	101.84099
20250.00000	101.66651	-628.67733	101.66651
20300.00000	101.47332	-631.75628	101.47332
20350.00000	101.41785	-634.79529	101.41785
20400.00000	101.22568	-636.80044	101.22568
20450.00000	100.97496	-639.49139	100.97496
20500.00000	100.87462	-642.39684	100.87462
20550.00000	100.47251	-643.93584	100.47251
20600.00000	100.38903	-645.99065	100.38903
20650.00000	100.22207	-648.01122	100.22207
20700.00000	99.99146	-649.65185	99.99146
20750.00000	99.87241	-651.12195	99.87241
20800.00000	99.66033	-652.11643	99.66033
20850.00000	99.60226	-653.52647	99.60226
20900.00000	99.44247	-654.32692	99.44247
20950.00000	99.33420	-654.68169	99.33420
21000.00000	99.29701	-655.24031	99.29701
21050.00000	99.43928	-655.51182	99.43928
21100.00000	99.46956	-656.04255	99.46956
21150.00000	99.64400	-656.81632	99.64400
21200.00000	99.81345	-657.39990	99.81345
21250.00000	100.00489	-659.54621	100.00489
21300.00000	100.27227	-660.45969	100.27227
21350.00000	100.47817	-661.94682	100.47817
21400.00000	100.67041	-664.24327	100.67041
21450.00000	100.91109	-666.55846	100.91109
21500.00000	101.10296	-669.34109	101.10296
21550.00000	101.19735	-671.75530	101.19735
21600.00000	101.42530	-674.49344	101.42530
21650.00000	101.50235	-677.61999	101.50235
21700.00000	101.59717	-680.22682	101.59717
21750.00000	101.68793	-683.09128	101.68793
21800.00000	101.75945	-686.01289	101.75945
21850.00000	101.72384	-688.83495	101.72384
21900.00000	101.78497	-691.73761	101.78497
21950.00000	101.76010	-694.11253	101.76010
22000.00000	101.86010	-697.00200	101.86010
22050.00000	101.81185	-699.19537	101.81185
22100.00000	101.75868	-701.86681	101.75868
22150.00000	101.73634	-704.04798	101.73634
22200.00000	101.80286	-706.82710	101.80286
22250.00000	101.72572	-708.52415	101.72572
22300.00000	101.58415	-710.80123	101.58415
22350.00000	101.66452	-713.50395	101.66452
22400.00000	101.64956	-715.65361	101.64956
22450.00000	101.56076	-717.69444	101.56076
22500.00000	101.44951	-718.65222	101.44951
22550.00000	101.44687	-720.80317	101.44687
22600.00000	101.40072	-723.52654	101.40072
22650.00000	101.35571	-725.35152	101.35571
22700.00000	101.37364	-727.01611	101.37364
22750.00000	101.33586	-727.04734	101.33586
22800.00000	101.38217	-730.59949	101.38217
22850.00000	101.41449	-732.99936	101.41449
22900.00000	101.43614	-733.04715	101.43614
22950.00000	101.52978	-734.84160	101.52978
23000.00000	101.52337	-735.58600	101.52337
23050.00000	101.46469	-738.64675	101.46469
23100.00000	101.62407	-739.44861	101.62407
23150.00000	101.58425	-739.64039	101.58425
23200.00000	101.75499	-742.91705	101.75499
23250.00000	101.62972	-745.35248	101.62972
23300.00000	101.99818	-747.58685	101.99818
23350.00000	101.78417	-749.51644	101.78417
23400.00000	101.83135	-751.08510	101.83135
23450.00000	102.07251	-753.00206	102.07251
23500.00000	101.99101	-754.23873	101.99101
23550.00000	102.05757	-754.66696	102.05757
23600.00000	102.05711	-758.80818	102.05711
23650.00000	102.27445	-759.69112	102.27445
23700.00000	102.41558	-764.26212	102.41558
23750.00000	102.52595	-765.06957	102.52595
23800.00000	102.24025	-765.82570	102.24025
23850.00000	102.54632	-766.97267	102.54632
23900.00000	102.92228	-769.85373	102.92228
23950.00000	102.69089	-772.87265	102.69089
24000.00000	102.60095	-775.95642	102.60095
24050.00000	102.86061	-776.20462	102.86061
24100.00000	103.17450	-780.16234	103.17450
24150.00000	103.28568	-782.38323	103.28568
24200.00000	103.24553	-786.57443	103.24553
24250.00000	103.03525	-787.06109	103.03525
24300.00000	103.60963	-790.45038	103.60963
24350.00000	103.39254	-793.02726	103.39254
24400.00000	103.31046	-796.52954	103.31046
24450.00000	103.14747	-798.48488	103.14747
24500.00000	103.64618	-800.19746	103.64618
24550.00000	103.51223	-445.68873	103.51223
24600.00000	104.02826	-87.43981	104.02826
24650.00000	103.71076	267.93689	103.71076
24700.00000	103.63402	628.01691	103.63402
24750.00000	103.63614	982.14873	103.63614
24800.00000	103.61798	1339.67904	103.61798
24850.00000	103.32165	1697.86428	103.32165
24900.00000	103.41682	2056.24911	103.41682
24950.00000	103.63280	2411.16184	103.63280
25000.00000	103.46721	2402.96625	103.46721
25050.00000	103.62696	2405.59621	103.62696
25100.00000	103.05258	2399.39297	103.05258
25150.00000	103.33354	2397.64914	103.33354
25200.00000	103.06676	2393.05475	103.06676
25250.00000	103.19341	2392.64719	103.19341
25300.00000	103.04406	2390.41398	103.04406
25350.00000	102.95272	2383.68244	102.95272
25400.00000	102.88312	2378.80102	102.88312
25450.00000	102.87676	2376.43211	102.87676
25500.00000	102.57407	2375.12377	102.57407
25550.00000	102.58570	2370.47734	102.58570
25600.00000	102.52581	2367.52396	102.52581
25650.00000	102.29191	2366.21689	102.29191
25700.00000	102.28021	2361.53401	102.28021
25750.00000	102.04080	2358.36743	102.04080
25800.00000	101.87408	2354.37263	101.87408
25850.00000	101.81660	2351.09435	101.81660
25900.00000	101.69623	2346.61337	101.69623
25950.00000	101.27722	2347.28582	101.27722
26000.00000	101.26745	2341.64789	101.26745
26050.00000	101.07183	2339.19076	101.07183
26100.00000	100.98743	2336.24328	100.98743
26150.00000	100.74852	2333.09241	100.74852
26200.00000	100.74643	2330.34907	100.74643
26250.00000	100.45380	2326.93176	100.45380
26300.00000	100.47058	2323.47480	100.47058
26350.00000	99.88525	2321.87784	99.88525
26400.00000	99.77151	2318.96398	99.77151
26450.00000	99.95642	2315.15143	99.95642
26500.00000	99.52853	2311.68160	99.52853
26550.00000	99.31908	2306.02050	99.31908
26600.00000	99.02109	2304.28633	99.02109
26650.00000	99.01159	2303.41011	99.01159
26700.00000	98.82808	2300.18756	98.82808
26750.00000	98.50451	2297.12881	98.50451
26800.00000	98.21631	2292.30710	98.21631
26850.00000	98.36669	2291.06809	98.36669
26900.00000	98.18576	2288.80044	98.18576
26950.00000	98.04754	2284.87270	98.04754
27000.00000	97.47406	2283.71657	97.47406
27050.00000	97.63610	2280.29100	97.63610
27100.00000	97.10072	2278.82747	97.10072
27150.00000	96.97571	2274.26373	96.97571
27200.00000	96.96396	2272.24638	96.96396
27250.00000	96.30835	2272.30310	96.30835
27300.00000	96.14739	2267.87465	96.14739
27350.00000	95.90161	2267.02797	95.90161
27400.00000	95.66204	2264.10614	95.66204
27450.00000	95.31046	2262.78157	95.31046
27500.00000	94.94119	2261.57059	94.94119
27550.00000	95.08430	2258.19050	95.08430
27600.00000	95.19651	2254.86663	95.19651
27650.00000	94.69378	2254.66790	94.69378
27700.00000	94.47753	2250.22661	94.47753
27750.00000	94.43495	2247.29430	94.43495
27800.00000	94.30884	2243.11366	94.30884
27850.00000	94.42270	2247.48125	94.42270
27900.00000	93.77709	2244.72755	93.77709
27950.00000	93.03930	2241.95793	93.03930
28000.00000	92.91969	2240.33990	92.91969
28050.00000	93.65101	2237.91204	93.65101
28100.00000	92.95498	2236.69376	92.95498
28150.00000	92.64932	2234.99100	92.64932
28200.00000	92.80399	2230.53097	92.80399
28250.00000	92.28064	2229.25636	92.28064
28300.00000	91.96032	2227.86840	91.96032
28350.00000	91.78716	2226.00987	91.78716
28400.00000	91.88378	2227.28101	91.88378
28450.00000	92.35426	2224.78630	92.35426
28500.00000	91.57969	2223.56687	91.57969
28550.00000	91.43526	2225.48887	91.43526
28600.00000	91.42908	2223.93149	91.42908
28650.00000	91.38645	2219.63092	91.38645
28700.00000	90.97028	2222.29331	90.97028
28750.00000	91.65923	2221.60839	91.65923
28800.00000	90.92407	2220.72220	90.92407
28850.00000	90.63450	2215.40068	90.63450
28900.00000	90.89420	2216.68738	90.89420
28950.00000	90.39352	2216.33876	90.39352
29000.00000	90.50904	2215.73867	90.50904
29050.00000	90.37473	2215.86787	90.37473
29100.00000	90.19522	2216.35503	90.19522
29150.00000	90.24157	2215.82405	90.24157
29200.00000	89.83796	2215.80894	89.83796
29250.00000	90.03859	2216.42590	90.03859
29300.00000	90.22297	2213.51951	90.22297
29350.00000	89.99215	2213.05925	89.99215
29400.00000	90.09606	2214.26562	90.09606
29450.00000	89.82034	2211.97439	89.82034
29500.00000	90.24415	2214.66621	90.24415
29550.00000	90.12249	2208.95826	90.12249
29600.00000	89.88036	2210.15290	89.88036
29650.00000	90.03984	2211.42030	90.03984
29700.00000	89.77410	2213.16847	89.77410
29750.00000	89.98651	2214.60367	89.98651
29800.00000	89.71022	2214.28799	89.71022
29850.00000	89.65081	2213.36495	89.65081
29900.00000	90.44091	2214.41409	90.44091
29950.00000	89.69786	2213.60977	89.69786
30000.00000	89.91932	2219.58984	89.91932
30050.00000	90.29709	2216.99750	90.29709
30100.00000	89.88747	2217.40572	89.88747
30150.00000	90.36764	2216.91959	90.36764
30200.00000	90.35124	2217.83098	90.35124
30250.00000	90.37957	2220.21895	90.37957
30300.00000	90.36862	2220.90240	90.36862
30350.00000	90.55265	2224.32731	90.55265
30400.00000	90.78462	2222.79472	90.78462
30450.00000	90.88090	2223.43910	90.88090
30500.00000	91.05794	2224.10807	91.05794
30550.00000	91.40210	2228.01798	91.40210
30600.00000	91.57091	2228.84081	91.57091
30650.00000	91.86515	2230.80585	91.86515
30700.00000	92.31330	2230.44550	92.31330
30750.00000	92.38365	2233.08005	92.38365
30800.00000	92.87477	2234.09920	92.87477
30850.00000	93.46276	2236.16423	93.46276
30900.00000	93.59774	2237.57977	93.59774
30950.00000	94.32294	2237.37383	94.32294
31000.00000	94.71229	2236.32934	94.71229
31050.00000	95.32619	2238.95734	95.32619
31100.00000	96.16345	2239.09348	96.16345
31150.00000	96.29720	2238.13292	96.29720
31200.00000	97.28311	2237.44392	97.28311
31250.00000	97.82894	2236.16227	97.82894
31300.00000	98.41116	2234.76104	98.41116
31350.00000	99.12274	2232.86689	99.12274
31400.00000	99.48789	2229.59485	99.48789
31450.00000	100.14457	2227.59786	100.14457
31500.00000	100.62494	2224.26709	100.62494
31550.00000	101.11795	2221.55041	101.11795
31600.00000	101.62129	2216.95016	101.62129
31650.00000	101.96003	2213.51006	101.96003
31700.00000	102.39090	2210.45334	102.39090
31750.00000	102.75663	2207.61153	102.75663
31800.00000	102.98937	2202.69270	102.98937
31850.00000	103.39293	2197.92841	103.39293
31900.00000	103.40209	2195.05658	103.40209
31950.00000	103.66239	2190.26292	103.66239
32000.00000	103.82061	2185.26443	103.82061
32050.00000	104.02572	2182.04059	104.02572
32100.00000	104.08838	2177.60270	104.08838
32150.00000	104.11375	2174.03565	104.11375
32200.00000	104.25276	2169.69482	104.25276
32250.00000	104.22417	2164.48228	104.22417
32300.00000	104.23528	2161.81291	104.23528
32350.00000	104.23736	2158.34490	104.23736
32400.00000	104.34037	2154.61503	104.34037
32450.00000	104.12313	2149.92010	104.12313
32500.00000	104.19941	2147.41156	104.19941
32550.00000	104.27257	2142.46486	104.27257
32600.00000	104.07377	2139.09061	104.07377
32650.00000	104.18419	2136.21048	104.18419
32700.00000	103.85357	2131.59206	103.85357
32750.00000	103.87422	2128.29079	103.87422
32800.00000	103.88143	2126.37678	103.88143
32850.00000	103.83062	2121.94052	103.83062
32900.00000	103.61037	2117.79781	103.61037
32950.00000	103.45635	2114.05032	103.45635
33000.00000	103.38317	2112.66498	103.38317
33050.00000	103.07056	2108.66854	103.07056
33100.00000	103.17393	2106.59445	103.17393
33150.00000	103.12409	2104.31237	103.12409
33200.00000	103.15645	2102.86232	103.15645
33250.00000	102.94122	2099.70721	102.94122
33300.00000	102.66616	2096.47457	102.66616
33350.00000	102.66934	2093.79492	102.66934
33400.00000	102.73827	2091.81314	102.73827
33450.00000	102.77517	2088.03066	102.77517
33500.00000	102.68861	2087.79759	102.68861
33550.00000	102.52720	2084.60895	102.52720
33600.00000	102.81681	2081.50007	102.81681
33650.00000	102.87003	2079.82104	102.87003
33700.00000	102.95559	2076.22649	102.95559
33750.00000	102.77206	2073.46193	102.77206
33800.00000	102.82278	2071.20895	102.82278
33850.00000	102.69414	2069.55354	102.69414
33900.00000	103.10087	2065.13833	103.10087
33950.00000	103.10091	2063.24962	103.10091
34000.00000	103.11086	2059.11384	103.11086
34050.00000	103.21271	2057.18881	103.21271
34100.00000	103.04908	2053.31110	103.04908
34150.00000	102.98953	2050.44466	102.98953
34200.00000	103.15710	2050.07301	103.15710
34250.00000	103.08471	2044.79360	103.08471
34300.00000	103.10610	2042.00865	103.10610
34350.00000	103.22584	2040.05392	103.22584
34400.00000	103.07349	2038.14977	103.07349
34450.00000	103.26536	2032.82010	103.26536
34500.00000	103.14806	2031.48938	103.14806
34550.00000	103.29045	2028.46324	103.29045
34600.00000	102.92816	2024.63498	102.92816
34650.00000	103.49690	2025.99034	103.49690
34700.00000	103.21812	2022.08602	103.21812
34750.00000	103.31403	2015.69064	103.31403
34800.00000	103.56432	2016.72801	103.56432
34850.00000	103.61164	2016.18070	103.61164
34900.00000	103.79270	2011.21370	103.79270
34950.00000	103.58830	2010.54406	103.58830
35000.00000	103.60335	2006.70107	103.60335
35050.00000	104.01365	2004.88138	104.01365
35100.00000	104.11724	2001.60597	104.11724
35150.00000	103.65952	2000.57016	103.65952
35200.00000	103.82231	1996.99146	103.82231
35250.00000	104.03811	1993.04932	104.03811
35300.00000	104.35129	1991.63079	104.35129
35350.00000	104.54247	1988.19098	104.54247
35400.00000	104.42250	1987.21633	104.42250
35450.00000	104.19075	1984.53511	104.19075
35500.00000	104.15643	1982.90459	104.15643
35550.00000	104.64603	1981.50040	104.64603
35600.00000	104.41461	1976.03214	104.41461
35650.00000	104.53251	1976.51711	104.53251
35700.00000	104.65872	1974.34690	104.65872
35750.00000	104.78175	1973.89238	104.78175
35800.00000	104.75955	1971.96535	104.75955
35850.00000	105.09617	1969.01215	105.09617
35900.00000	105.35640	1967.63357	105.35640
35950.00000	105.53401	1965.22039	105.53401
36000.00000	105.43978	1964.70934	105.43978
36050.00000	105.83268	1962.74104	105.83268
36100.00000	105.92944	1960.93120	105.92944
36150.00000	106.12398	1958.38040	106.12398
36200.00000	106.10330	1956.72570	106.10330
36250.00000	106.24934	1955.62717	106.24934
36300.00000	106.48850	1953.55828	106.48850
36350.00000	106.72863	1952.21703	106.72863
36400.00000	106.62390	1950.41362	106.62390
36450.00000	106.86939	1948.77840	106.86939
36500.00000	107.35585	1946.59085	107.35585
36550.00000	107.39456	1943.79173	107.39456
36600.00000	107.48134	1943.87422	107.48134
36650.00000	108.26897	1941.57344	108.26897
36700.00000	108.38080	1938.57646	108.38080
36750.00000	108.32285	1935.76156	108.32285
36800.00000	108.42880	1935.20256	108.42880
36850.00000	108.57630	1933.36781	108.57630
36900.00000	109.13014	1931.14354	109.13014
36950.00000	109.17322	1927.16127	109.17322
37000.00000	109.07553	1927.27491	109.07553
37050.00000	109.25829	1926.19476	109.25829
37100.00000	109.64250	1922.04132	109.64250
37150.00000	109.85363	1919.36978	109.85363
37200.00000	110.14237	1918.91898	110.14237
37250.00000	109.76566	1914.71671	109.76566
37300.00000	110.30746	1913.29040	110.30746
37350.00000	110.65628	1912.29623	110.65628
37400.00000	110.54564	1910.09020	110.54564
37450.00000	110.61477	1908.31805	110.61477
37500.00000	111.18058	1905.02015	111.18058
37550.00000	111.03544	1903.49170	111.03544
37600.00000	111.21505	1901.72273	111.21505
37650.00000	111.23201	1899.61414	111.23201
37700.00000	111.51481	1895.12390	111.51481
37750.00000	111.71253	1893.40225	111.71253
37800.00000	111.68775	1890.99380	111.68775
37850.00000	111.90872	1887.21804	111.90872
37900.00000	111.97620	1885.00238	111.97620
37950.00000	112.10846	1882.35353	112.10846
38000.00000	112.02677	1880.70263	112.02677
38050.00000	112.28843	1877.30534	112.28843
38100.00000	112.42816	1874.76239	112.42816
38150.00000	112.54083	1871.58207	112.54083
38200.00000	112.68626	1868.15533	112.68626
38250.00000	112.80068	1865.41097	112.80068
38300.00000	113.01148	1860.83360	113.01148
38350.00000	112.97307	1858.15912	112.97307
38400.00000	113.02345	1854.78324	113.02345
38450.00000	113.10105	1850.25812	113.10105
38500.00000	113.22879	1846.50427	113.22879
38550.00000	113.37888	1843.09558	113.37888
38600.00000	113.39507	1839.63947	113.39507
38650.00000	113.54490	1835.74695	113.54490
38700.00000	113.52056	1831.12895	113.52056
38750.00000	113.60133	1827.94805	113.60133
38800.00000	113.74198	1823.39153	113.74198
38850.00000	113.79670	1818.87147	113.79670
38900.00000	113.81954	1814.34805	113.81954
38950.00000	113.80479	1809.73593	113.80479
39000.00000	113.85817	1804.93032	113.85817
39050.00000	113.93794	1800.22646	113.93794
39100.00000	113.81756	1795.16437	113.81756
39150.00000	113.68167	1790.03374	113.68167
39200.00000	113.60837	1785.58023	113.60837
39250.00000	113.49185	1780.34410	113.49185
39300.00000	113.39892	1775.41248	113.39892
39350.00000	113.21949	1771.02770	113.21949
39400.00000	113.02035	1766.02401	113.02035
39450.00000	112.79656	1761.36199	112.79656
39500.00000	112.66624	1756.39713	112.66624
39550.00000	112.43138	1751.77495	112.43138
39600.00000	112.11259	1747.18636	112.11259
39650.00000	111.88284	1743.57472	111.88284
39700.00000	111.58051	1739.22304	111.58051
39750.00000	111.33083	1734.78487	111.33083
39800.00000	111.08038	1730.79999	111.08038
39850.00000	110.77383	1726.79409	110.77383
39900.00000	110.50426	1723.83664	110.50426
39950.00000	110.23834	1719.99206	110.23834
40000.00000	109.81235	1718.09367	109.81235
40050.00000	109.64661	1713.46482	109.64661
40100.00000	109.37110	1709.95955	109.37110
40150.00000	108.92777	1706.64246	108.92777
40200.00000	108.67493	1703.76794	108.67493
40250.00000	108.45473	1701.36508	108.45473
40300.00000	108.27142	1699.72528	108.27142
40350.00000	107.93681	1696.78235	107.93681
40400.00000	107.71906	1693.97270	107.71906
40450.00000	107.50988	1692.65938	107.50988
40500.00000	107.31889	1690.44221	107.31889
40550.00000	107.12235	1688.37454	107.12235
40600.00000	106.95822	1686.74147	106.95822
40650.00000	106.71302	1685.33934	106.71302
40700.00000	106.53852	1684.02207	106.53852
40750.00000	106.62452	1682.20184	106.62452
40800.00000	106.43991	1680.03666	106.43991
40850.00000	106.32438	1680.32347	106.32438
40900.00000	106.25119	1678.65196	106.25119
40950.00000	106.22598	1677.55022	106.22598
41000.00000	105.89012	1677.37941	105.89012
41050.00000	106.14193	1676.09677	106.14193
41100.00000	106.36792	1674.24913	106.36792
41150.00000	106.42609	1675.44651	106.42609
41200.00000	106.60866	1673.08858	106.60866
41250.00000	106.74352	1670.63891	106.74352
41300.00000	106.57676	1670.57009	106.57676
41350.00000	106.78160	1670.47787	106.78160
41400.00000	106.99863	1665.09689	106.99863
41450.00000	107.39719	1666.41722	107.39719
41500.00000	107.28355	1664.67270	107.28355
41550.00000	107.31027	1667.04870	107.31027
41600.00000	107.13997	1663.14434	107.13997
41650.00000	107.89978	1661.21177	107.89978
41700.00000	107.99115	1660.31334	107.99115
41750.00000	108.05381	1662.06048	108.05381
41800.00000	107.25735	1655.73291	107.25735
41850.00000	107.61467	1658.00860	107.61467
41900.00000	107.30895	1654.19769	107.30895
41950.00000	108.85796	1658.54015	108.85796
42000.00000	107.80680	1649.39653	107.80680
42050.00000	106.90011	1647.52911	106.90011
42100.00000	107.52476	1647.73133	107.52476
42150.00000	107.21443	1643.09375	107.21443
42200.00000	106.92782	1647.00646	106.92782
42250.00000	106.83682	1644.38320	106.83682
42300.00000	105.98742	1641.06041	105.98742
42350.00000	106.36683	1640.76813	106.36683
42400.00000	105.88341	1640.46000	105.88341
42450.00000	106.66618	1634.63738	106.66618
42500.00000	105.75756	1635.95937	105.75756
42550.00000	105.34376	1646.65126	105.34376
42600.00000	104.86395	1637.74922	104.86395
42650.00000	104.35883	1638.78729	104.35883
42700.00000	104.43213	1636.36619	104.43213
42750.00000	104.88227	1636.80559	104.88227
42800.00000	104.24771	1630.06399	104.24771
42850.00000	103.35353	1626.83309	103.35353
42900.00000	104.46268	1635.09407	104.46268
42950.00000	103.45103	1631.14792	103.45103
43000.00000	103.37819	1621.76816	103.37819
43050.00000	102.83237	1619.00786	102.83237
43100.00000	102.90054	1629.73323	102.90054
43150.00000	101.92960	1623.05016	101.92960
43200.00000	102.14314	1621.43576	102.14314
43250.00000	102.00298	1621.15268	102.00298
43300.00000	102.46830	1620.76674	102.46830
43350.00000	102.77731	1614.41038	102.77731
43400.00000	101.78734	1614.87305	101.78734
43450.00000	102.54041	1615.57689	102.54041
43500.00000	101.09131	1606.43420	101.09131
43550.00000	101.99232	1605.52645	101.99232
43600.00000	101.57590	1605.51447	101.57590
43650.00000	101.88460	1591.45592	101.88460
43700.00000	101.66699	1593.80593	101.66699
43750.00000	100.98897	1594.93327	100.98897
43800.00000	100.69342	1586.25841	100.69342
43850.00000	101.59793	1584.70031	101.59793
43900.00000	101.01873	1577.55135	101.01873
43950.00000	100.55086	1576.06153	100.55086
44000.00000	99.70583	1568.72106	99.70583
44050.00000	100.07934	1564.46992	100.07934
44100.00000	100.79568	1555.06985	100.79568
44150.00000	99.76652	1558.90369	99.76652
44200.00000	99.47813	1555.79523	99.47813
44250.00000	99.34858	1549.69481	99.34858
44300.00000	99.98920	1540.25350	99.98920
44350.00000	98.51151	1538.14842	98.51151
44400.00000	99.00399	1534.68674	99.00399
44450.00000	99.48840	1534.87948	99.48840
44500.00000	97.70349	1528.79980	97.70349
44550.00000	98.97684	1512.42488	98.97684
44600.00000	98.92827	1523.92980	98.92827
44650.00000	97.64106	1509.20076	97.64106
44700.00000	97.82317	1507.05602	97.82317
44750.00000	97.79161	1507.87046	97.79161
44800.00000	97.54428	1499.01710	97.54428
44850.00000	96.60010	1491.95250	96.60010
44900.00000	96.42409	1493.36404	96.42409
44950.00000	95.55407	1484.78044	95.55407
45000.00000	96.20927	1477.60451	96.20927
45050.00000	94.27656	1478.04625	94.27656
45100.00000	95.63592	1475.57533	95.63592
45150.00000	96.20944	1460.15537	96.20944
45200.00000	94.92768	1475.13210	94.92768
45250.00000	94.87488	1460.89266	94.87488
45300.00000	94.48735	1452.05688	94.48735
45350.00000	93.98044	1437.29367	93.98044
45400.00000	92.97335	1441.05743	92.97335
45450.00000	94.67531	1435.25549	94.67531
45500.00000	90.65848	1436.48122	90.65848
45550.00000	90.99642	1430.43887	90.99642
45600.00000	92.88273	1421.81451	92.88273
45650.00000	90.24807	1411.08008	90.24807
45700.00000	89.93100	1405.52343	89.93100
45750.00000	91.99475	1420.69631	91.99475
45800.00000	90.13339	1398.97825	90.13339
45850.00000	89.71451	1411.20795	89.71451
45900.00000	89.68580	1395.80949	89.68580
45950.00000	88.92285	1389.04002	88.92285
46000.00000	84.63808	1369.88264	84.63808
46050.00000	87.36066	1367.78696	87.36066
46100.00000	84.04354	1363.21136	84.04354
46150.00000	82.62777	1371.00667	82.62777
46200.00000	83.70331	1373.14605	83.70331
46250.00000	81.25671	1377.74119	81.25671
46300.00000	82.16771	1370.57909	82.16771
46350.00000	83.91483	1362.09940	83.91483
46400.00000	82.00097	1358.04114	82.00097
46450.00000	78.03415	1364.59493	78.03415
46500.00000	81.09942	1357.08631	81.09942
46550.00000	78.73303	1351.23143	78.73303
46600.00000	81.38327	1360.56024	81.38327
46650.00000	78.83460	1355.91365	78.83460
46700.00000	76.94505	1352.09784	76.94505
46750.00000	51.15750	1489.18456	51.15750
46800.00000	74.99851	1333.22967	74.99851
46850.00000	78.70106	1015.91942	78.70106
46900.00000	73.50581	1006.77188	73.50581
46950.00000	75.93275	1004.52092	75.93275
47000.00000	76.89753	1009.66827	76.89753
47050.00000	77.38014	972.87003	77.38014
47100.00000	78.49986	1018.86130	78.49986
47150.00000	78.37235	996.00515	78.37235
47200.00000	76.35757	1003.42877	76.35757
47250.00000	79.04942	997.64916	79.04942
47300.00000	75.91156	986.09869	75.91156
47350.00000	76.52776	666.65030	76.52776
47400.00000	79.05815	641.56751	79.05815
47450.00000	78.79043	633.00417	78.79043
47500.00000	76.08019	630.31575	76.08019
47550.00000	75.55971	276.97932	75.55971
47600.00000	75.36371	295.34906	75.36371
47650.00000	78.23832	251.33145	78.23832
47700.00000	78.31564	281.58967	78.31564
47750.00000	75.99259	241.09199	75.99259
47800.00000	74.86301	249.08829	74.86301
47850.00000	76.71531	-97.79592	76.71531
47900.00000	74.73948	-482.37670	74.73948
47950.00000	77.93972	-450.81079	77.93972
48000.00000	77.24564	-467.87197	77.24564
48050.00000	79.72317	-458.06755	79.72317
48100.00000	80.56050	-484.89331	80.56050
48150.00000	76.95607	-818.60444	76.95607
48200.00000	77.52964	-853.84544	77.52964
48250.00000	78.04641	-851.70981	78.04641
48300.00000	77.54964	-851.95053	77.54964
48350.00000	75.56714	-852.74692	75.56714
48400.00000	78.45160	-1215.56221	78.45160
48450.00000	76.45211	-1206.18512	76.45211
48500.00000	78.32810	-1227.04929	78.32810
48550.00000	78.61432	-1218.00305	78.61432
48600.00000	79.32909	-1564.38009	79.32909
48650.00000	77.34756	-1568.15502	77.34756
48700.00000	80.79808	-1582.36809	80.79808
48750.00000	77.15608	-1921.44827	77.15608
48800.00000	80.47372	-1936.82123	80.47372
48850.00000	79.27375	-1967.88532	79.27375
48900.00000	76.81265	-2310.16259	76.81265
48950.00000	77.72985	-2318.76128	77.72985
49000.00000	80.36074	-2335.45836	80.36074
49050.00000	81.74630	-2346.03942	81.74630
49100.00000	77.30834	-2704.80589	77.30834
49150.00000	83.33445	-3055.21128	83.33445
49200.00000	80.30603	-3093.34680	80.30603
49250.00000	81.83543	-3435.37959	81.83543
49300.00000	80.02239	-3084.81126	80.02239
49350.00000	78.21025	-3097.32474	78.21025
49400.00000	79.77391	-2730.80760	79.77391
49450.00000	77.65359	-2406.49645	77.65359
49500.00000	82.08292	-2016.74835	82.08292
49550.00000	76.27624	-1673.10411	76.27624
49600.00000	78.41984	-1664.86440	78.41984
49650.00000	83.30702	-1671.50724	83.30702
49700.00000	82.04591	-1303.84710	82.04591
49750.00000	78.10125	-1347.84305	78.10125
49800.00000	78.71213	-1367.07823	78.71213
49850.00000	74.93454	-1297.42755	74.93454
49900.00000	81.46704	-1012.13375	81.46704
49950.00000	83.66439	-676.79267	83.66439
