---ACOUSTIC CALIBRATION---
Filename: C:\Data\AZH DATA\AZH62\RightSecondary.calib
Date: 8/27/2019 4:14:50 PM
Format: 4
Probe Tube Correction File: C:\Data\Probe Tube Calibrations\50_ProbeTube.calib
Experiment VIs: 850
EPL_CFTS.exe V12.0.1 (2012)
DAQmx V9.6

Attenuation (dB): 40.000000
Min Freq (Hz): 50.000000
Max Freq (Hz): 49950.000000
Freq Step (Hz): 50.000000
Sample Rate (Hz): 100000.000000
[Smoothing]
Method=None
MA.Iterations=0
MA.Length=0
Loess.Length=0
Loess.Type=Linear
Loess.Robust=FALSE


Freq(Hz)	Mag(dB)	Phase(deg)	Unsmoothed(dB)

50.00000	104.92848	479.56235	104.92848
100.00000	72.67971	462.29815	72.67971
150.00000	65.72550	342.57291	65.72550
200.00000	61.04558	329.00725	61.04558
250.00000	60.35861	387.88768	60.35861
300.00000	70.87586	373.35415	70.87586
350.00000	54.71949	343.97466	54.71949
400.00000	71.43721	211.88260	71.43721
450.00000	45.98101	198.22042	45.98101
500.00000	71.33710	204.52019	71.33710
550.00000	62.07335	181.10606	62.07335
600.00000	78.05802	227.19281	78.05802
650.00000	66.35289	197.96600	66.35289
700.00000	78.55590	205.70527	78.55590
750.00000	69.09472	170.85010	69.09472
800.00000	80.62347	196.07773	80.62347
850.00000	70.60316	144.09158	70.60316
900.00000	76.69375	159.83734	76.69375
950.00000	66.63915	131.08046	66.63915
1000.00000	72.11692	214.86528	72.11692
1050.00000	62.15422	163.80658	62.15422
1100.00000	68.57088	243.65588	68.57088
1150.00000	66.17465	195.65395	66.17465
1200.00000	71.02169	280.33338	71.02169
1250.00000	69.81256	202.95957	69.81256
1300.00000	72.89988	265.18556	72.89988
1350.00000	71.75113	187.47061	71.75113
1400.00000	64.40065	310.01898	64.40065
1450.00000	72.36970	195.75968	72.36970
1500.00000	66.34542	169.57197	66.34542
1550.00000	72.92129	176.42981	72.92129
1600.00000	70.52766	89.28927	70.52766
1650.00000	71.82776	182.51028	71.82776
1700.00000	64.36023	86.41243	64.36023
1750.00000	70.39800	151.14298	70.39800
1800.00000	74.18335	105.67296	74.18335
1850.00000	60.08868	143.92667	60.08868
1900.00000	73.40115	108.24558	73.40115
1950.00000	66.51387	126.18280	66.51387
2000.00000	76.34664	136.88991	76.34664
2050.00000	63.34358	85.34710	63.34358
2100.00000	76.87428	118.61625	76.87428
2150.00000	67.02201	72.23117	67.02201
2200.00000	70.54676	131.24095	70.54676
2250.00000	69.27858	61.51380	69.27858
2300.00000	70.89579	121.48077	70.89579
2350.00000	70.58459	57.47461	70.58459
2400.00000	50.08960	40.87778	50.08960
2450.00000	70.17538	64.60406	70.17538
2500.00000	59.45458	119.18081	59.45458
2550.00000	69.05820	59.93528	69.05820
2600.00000	66.27531	30.72176	66.27531
2650.00000	66.37939	57.54132	66.37939
2700.00000	61.83227	-37.26355	61.83227
2750.00000	63.11328	58.91941	63.11328
2800.00000	62.53972	57.64350	62.53972
2850.00000	61.75080	46.47133	61.75080
2900.00000	66.69831	25.76402	66.69831
2950.00000	62.71116	55.44908	62.71116
3000.00000	48.43440	55.63288	48.43440
3050.00000	60.30674	51.30207	60.30674
3100.00000	60.16477	65.06895	60.16477
3150.00000	55.09146	80.24111	55.09146
3200.00000	53.24165	82.21813	53.24165
3250.00000	56.62757	58.07218	56.62757
3300.00000	53.45302	55.37304	53.45302
3350.00000	59.03058	104.55779	59.03058
3400.00000	56.78637	128.13994	56.78637
3450.00000	60.15395	142.91333	60.15395
3500.00000	61.19101	122.99817	61.19101
3550.00000	64.62844	129.43484	64.62844
3600.00000	65.03954	132.88495	65.03954
3650.00000	67.34875	110.24942	67.34875
3700.00000	70.83354	103.36193	70.83354
3750.00000	70.85225	98.14213	70.85225
3800.00000	71.97571	98.09547	71.97571
3850.00000	71.81373	94.19144	71.81373
3900.00000	73.50298	91.33587	73.50298
3950.00000	73.64533	81.44838	73.64533
4000.00000	73.45706	64.31597	73.45706
4050.00000	75.15128	62.54179	75.15128
4100.00000	75.18870	52.48318	75.18870
4150.00000	76.42507	47.53624	76.42507
4200.00000	78.38281	35.88343	78.38281
4250.00000	78.32204	27.62387	78.32204
4300.00000	79.57131	18.18048	79.57131
4350.00000	78.08297	 7.03845	78.08297
4400.00000	77.74580	 0.74190	77.74580
4450.00000	77.75901	-13.27835	77.75901
4500.00000	76.51046	-4.25820	76.51046
4550.00000	76.98798	-34.84618	76.98798
4600.00000	76.97902	-42.52237	76.97902
4650.00000	76.64986	-46.67970	76.64986
4700.00000	75.69647	-48.22466	75.69647
4750.00000	75.62245	-55.17392	75.62245
4800.00000	74.22113	-60.07549	74.22113
4850.00000	73.28420	-70.50211	73.28420
4900.00000	71.90805	-79.52428	71.90805
4950.00000	70.29692	-82.68045	70.29692
5000.00000	70.57291	-90.88932	70.57291
5050.00000	68.13252	-79.83849	68.13252
5100.00000	67.94204	-84.09370	67.94204
5150.00000	68.01264	-71.00473	68.01264
5200.00000	66.77762	-62.76533	66.77762
5250.00000	68.85255	-57.67942	68.85255
5300.00000	69.84306	-65.80566	69.84306
5350.00000	69.88718	-78.05925	69.88718
5400.00000	69.47729	-87.00633	69.47729
5450.00000	68.82188	-90.38810	68.82188
5500.00000	69.18673	-90.33483	69.18673
5550.00000	69.10494	-89.50268	69.10494
5600.00000	67.90406	-95.77809	67.90406
5650.00000	68.65385	-92.95679	68.65385
5700.00000	68.30798	-93.75634	68.30798
5750.00000	68.10872	-100.59345	68.10872
5800.00000	66.79257	-100.40832	66.79257
5850.00000	67.26835	-102.07483	67.26835
5900.00000	67.60539	-106.47761	67.60539
5950.00000	67.02047	-107.09590	67.02047
6000.00000	67.49408	-107.88433	67.49408
6050.00000	67.82984	-113.51462	67.82984
6100.00000	67.10877	-114.79599	67.10877
6150.00000	66.78558	-114.97552	66.78558
6200.00000	66.86707	-119.18330	66.86707
6250.00000	66.79982	-119.63846	66.79982
6300.00000	66.80532	-125.88402	66.80532
6350.00000	67.29230	-127.21664	67.29230
6400.00000	66.32667	-127.41626	66.32667
6450.00000	67.24944	-129.67331	67.24944
6500.00000	66.20889	-130.48069	66.20889
6550.00000	66.43557	-134.40767	66.43557
6600.00000	65.76797	-135.30297	65.76797
6650.00000	66.54126	-139.29161	66.54126
6700.00000	66.12382	-142.29392	66.12382
6750.00000	66.49344	-142.96674	66.49344
6800.00000	65.81178	-140.14470	65.81178
6850.00000	65.93089	-145.65839	65.93089
6900.00000	66.47869	-146.95211	66.47869
6950.00000	67.40701	-155.08925	67.40701
7000.00000	66.09305	-154.60744	66.09305
7050.00000	66.04165	-156.04644	66.04165
7100.00000	66.50042	-160.97820	66.50042
7150.00000	66.38064	-160.14737	66.38064
7200.00000	65.87337	-164.69195	65.87337
7250.00000	65.62834	-167.44638	65.62834
7300.00000	66.71474	-174.61983	66.71474
7350.00000	66.25898	-174.15283	66.25898
7400.00000	66.51220	-174.90398	66.51220
7450.00000	66.03067	-177.66728	66.03067
7500.00000	66.46872	-176.44008	66.46872
7550.00000	65.73665	-187.84494	65.73665
7600.00000	65.87752	-188.40291	65.87752
7650.00000	67.26555	-190.38501	67.26555
7700.00000	66.88189	-195.12625	66.88189
7750.00000	66.28259	-195.48642	66.28259
7800.00000	65.99717	-199.84554	65.99717
7850.00000	65.94026	-205.17317	65.94026
7900.00000	65.76555	-209.12776	65.76555
7950.00000	65.73467	-212.78832	65.73467
8000.00000	66.17651	-209.88253	66.17651
8050.00000	65.34662	-220.48289	65.34662
8100.00000	65.48235	-217.66371	65.48235
8150.00000	64.86171	-225.71241	64.86171
8200.00000	65.53814	-230.85996	65.53814
8250.00000	65.20712	-231.35549	65.20712
8300.00000	65.53714	-235.25979	65.53714
8350.00000	63.99965	-229.76976	63.99965
8400.00000	64.16309	-244.59338	64.16309
8450.00000	64.27682	-248.12395	64.27682
8500.00000	64.26126	-252.44491	64.26126
8550.00000	63.73692	-249.02136	63.73692
8600.00000	63.32387	-253.81528	63.32387
8650.00000	61.29787	-261.85408	61.29787
8700.00000	62.18607	-257.80229	62.18607
8750.00000	62.52518	-260.45883	62.52518
8800.00000	61.21332	-262.04949	61.21332
8850.00000	61.36767	-263.35001	61.36767
8900.00000	60.77373	-272.03484	60.77373
8950.00000	60.70754	-272.27035	60.70754
9000.00000	61.43672	-275.87093	61.43672
9050.00000	61.14242	-278.47701	61.14242
9100.00000	59.35896	-276.43401	59.35896
9150.00000	60.01771	-269.90052	60.01771
9200.00000	58.93089	-285.38785	58.93089
9250.00000	59.91818	-279.81856	59.91818
9300.00000	59.32002	-296.04769	59.32002
9350.00000	58.30170	-289.36099	58.30170
9400.00000	58.09202	-289.82056	58.09202
9450.00000	58.52365	-291.15705	58.52365
9500.00000	57.23915	-290.22496	57.23915
9550.00000	58.18575	-300.54897	58.18575
9600.00000	58.10375	-296.07795	58.10375
9650.00000	58.06776	-282.58819	58.06776
9700.00000	57.79541	-293.14615	57.79541
9750.00000	56.02851	-299.19207	56.02851
9800.00000	57.82089	-297.97922	57.82089
9850.00000	57.78833	-303.18160	57.78833
9900.00000	56.77917	-287.93784	56.77917
9950.00000	56.64403	-305.93807	56.64403
10000.00000	53.09402	-317.03621	53.09402
10050.00000	55.42921	-306.00998	55.42921
10100.00000	55.71967	-299.10606	55.71967
10150.00000	55.84471	-304.62087	55.84471
10200.00000	54.55228	-296.77950	54.55228
10250.00000	55.00806	-318.29750	55.00806
10300.00000	55.74267	-314.99111	55.74267
10350.00000	54.96838	-310.85434	54.96838
10400.00000	54.55446	-310.85545	54.55446
10450.00000	53.92481	-325.36680	53.92481
10500.00000	55.60197	-326.41976	55.60197
10550.00000	54.02212	-316.50397	54.02212
10600.00000	53.90597	-316.84201	53.90597
10650.00000	54.47228	-323.42800	54.47228
10700.00000	54.86500	-331.60873	54.86500
10750.00000	54.52563	-327.20530	54.52563
10800.00000	55.23436	-326.49032	55.23436
10850.00000	53.72844	-340.59559	53.72844
10900.00000	54.66949	-338.30767	54.66949
10950.00000	53.60593	-334.15110	53.60593
11000.00000	53.60724	-335.36668	53.60724
11050.00000	53.54719	-339.80311	53.54719
11100.00000	52.51506	-346.25719	52.51506
11150.00000	53.70104	-340.46586	53.70104
11200.00000	53.14849	-342.27753	53.14849
11250.00000	52.72692	-352.60058	52.72692
11300.00000	51.10829	-354.94966	51.10829
11350.00000	52.14744	-354.23710	52.14744
11400.00000	51.67689	-349.33370	51.67689
11450.00000	52.42741	-353.78090	52.42741
11500.00000	52.44691	-353.26825	52.44691
11550.00000	51.33396	-360.17202	51.33396
11600.00000	51.44268	-356.66939	51.44268
11650.00000	49.75768	-352.25725	49.75768
11700.00000	51.18793	-348.13617	51.18793
11750.00000	50.20221	-360.41308	50.20221
11800.00000	51.42395	-357.26410	51.42395
11850.00000	50.76014	-361.31248	50.76014
11900.00000	49.87928	-356.61477	49.87928
11950.00000	52.13795	-365.36087	52.13795
12000.00000	52.62013	-368.13301	52.62013
12050.00000	51.20536	-356.78048	51.20536
12100.00000	50.81737	-353.30341	50.81737
12150.00000	51.17700	-376.27851	51.17700
12200.00000	50.35786	-368.06543	50.35786
12250.00000	49.99122	-340.52199	49.99122
12300.00000	51.59286	-373.84718	51.59286
12350.00000	50.02480	-387.75729	50.02480
12400.00000	52.48217	-373.69892	52.48217
12450.00000	50.94437	-352.82373	50.94437
12500.00000	47.08725	-394.56259	47.08725
12550.00000	47.42642	-394.19368	47.42642
12600.00000	49.47414	-372.28605	49.47414
12650.00000	49.49295	-380.96556	49.49295
12700.00000	49.61704	-405.35091	49.61704
12750.00000	49.82206	-389.30737	49.82206
12800.00000	52.21179	-396.01320	52.21179
12850.00000	45.28661	-393.03296	45.28661
12900.00000	49.77737	-402.08022	49.77737
12950.00000	47.98312	-389.57072	47.98312
13000.00000	46.98665	-400.86945	46.98665
13050.00000	43.65754	-446.63877	43.65754
13100.00000	47.01460	-424.04590	47.01460
13150.00000	46.27554	-386.68045	46.27554
13200.00000	47.82913	-422.05070	47.82913
13250.00000	39.44097	-447.06951	39.44097
13300.00000	46.96047	-416.52677	46.96047
13350.00000	42.01603	-365.17164	42.01603
13400.00000	40.08518	-386.90714	40.08518
13450.00000	48.43273	-406.62774	48.43273
13500.00000	47.87234	-411.22551	47.87234
13550.00000	44.78756	-407.97574	44.78756
13600.00000	42.10460	-394.26238	42.10460
13650.00000	47.35604	-419.73856	47.35604
13700.00000	45.74847	-322.48075	45.74847
13750.00000	45.37867	-68.55409	45.37867
13800.00000	45.67080	-83.09653	45.67080
13850.00000	43.87674	22.54496	43.87674
13900.00000	48.01653	-36.22608	48.01653
13950.00000	46.28278	13.88638	46.28278
14000.00000	47.58628	-19.37712	47.58628
14050.00000	50.49611	-48.99782	50.49611
14100.00000	50.18012	27.01550	50.18012
14150.00000	47.42264	 0.64709	47.42264
14200.00000	45.67579	-37.86997	45.67579
14250.00000	50.89720	-62.04077	50.89720
14300.00000	41.74086	-15.56321	41.74086
14350.00000	45.00139	263.90618	45.00139
14400.00000	48.14231	334.42115	48.14231
14450.00000	37.41972	581.54936	37.41972
14500.00000	32.08701	860.12595	32.08701
14550.00000	44.58644	939.79089	44.58644
14600.00000	45.30548	1044.11205	45.30548
14650.00000	44.48218	1249.05564	44.48218
14700.00000	42.36425	1489.94151	42.36425
14750.00000	47.12951	1427.65893	47.12951
14800.00000	49.64342	1366.48454	49.64342
14850.00000	47.73642	1462.34917	47.73642
14900.00000	48.32067	1416.80448	48.32067
14950.00000	50.65457	1395.38075	50.65457
15000.00000	49.49495	1426.44890	49.49495
15050.00000	54.50597	1714.08700	54.50597
15100.00000	49.24371	1785.17155	49.24371
15150.00000	42.57207	2034.87073	42.57207
15200.00000	52.77736	2094.76283	52.77736
15250.00000	48.24035	2176.81045	48.24035
15300.00000	41.48982	2441.24314	41.48982
15350.00000	47.79262	2462.98348	47.79262
15400.00000	50.28705	2483.59369	50.28705
15450.00000	41.21507	2502.56223	41.21507
15500.00000	47.38382	2721.74762	47.38382
15550.00000	45.55508	2869.11734	45.55508
15600.00000	47.61302	2883.12550	47.61302
15650.00000	13.00176	3112.98138	13.00176
15700.00000	52.43055	3164.39108	52.43055
15750.00000	51.49644	3170.53284	51.49644
15800.00000	52.77635	3139.49716	52.77635
15850.00000	55.10549	3211.07168	55.10549
15900.00000	46.70103	3253.82224	46.70103
15950.00000	51.53047	3543.29281	51.53047
16000.00000	49.84896	3587.98471	49.84896
16050.00000	49.57976	3599.68055	49.57976
16100.00000	52.75231	3813.68914	52.75231
16150.00000	47.48440	3880.66145	47.48440
16200.00000	51.91670	3891.84867	51.91670
16250.00000	53.93570	3921.91087	53.93570
16300.00000	48.36706	4150.79859	48.36706
16350.00000	56.12349	4301.09840	56.12349
16400.00000	57.96934	4278.91602	57.96934
16450.00000	45.31240	4301.25679	45.31240
16500.00000	50.51679	4252.67311	50.51679
16550.00000	54.00907	4291.84344	54.00907
16600.00000	49.75688	4289.42474	49.75688
16650.00000	55.16444	4294.68836	55.16444
16700.00000	54.90644	4282.77046	54.90644
16750.00000	60.34423	4239.56796	60.34423
16800.00000	51.54781	4245.19489	51.54781
16850.00000	45.32515	4351.78573	45.32515
16900.00000	57.90473	4591.26343	57.90473
16950.00000	51.53881	4574.61845	51.53881
17000.00000	48.36110	4593.67831	48.36110
17050.00000	55.43636	4567.80506	55.43636
17100.00000	57.86892	4603.38860	57.86892
17150.00000	58.27261	4574.92944	58.27261
17200.00000	55.54786	4642.08073	55.54786
17250.00000	58.93618	4609.80275	58.93618
17300.00000	54.52520	4572.89248	54.52520
17350.00000	56.78919	4568.10470	56.78919
17400.00000	53.66042	4572.64570	53.66042
17450.00000	57.59140	4537.65842	57.59140
17500.00000	56.94148	4606.17879	56.94148
17550.00000	52.01516	4557.80678	52.01516
17600.00000	59.84078	4573.90682	59.84078
17650.00000	46.04919	4575.20907	46.04919
17700.00000	54.87400	4595.36674	54.87400
17750.00000	58.12390	4565.34115	58.12390
17800.00000	56.81221	4567.76365	56.81221
17850.00000	57.09061	4580.20134	57.09061
17900.00000	59.35595	4575.70939	59.35595
17950.00000	58.95430	4563.83432	58.95430
18000.00000	60.55756	4565.96448	60.55756
18050.00000	57.77633	4564.54591	57.77633
18100.00000	59.36393	4529.56887	59.36393
18150.00000	59.34270	4545.09042	59.34270
18200.00000	57.39885	4552.04304	57.39885
18250.00000	52.71787	4561.73746	52.71787
18300.00000	58.86277	4527.50406	58.86277
18350.00000	58.37653	4576.34189	58.37653
18400.00000	59.03586	4548.52419	59.03586
18450.00000	59.42853	4556.97331	59.42853
18500.00000	52.19986	4547.48530	52.19986
18550.00000	61.15876	4504.14398	61.15876
18600.00000	61.00083	4555.74144	61.00083
18650.00000	56.69522	4535.06915	56.69522
18700.00000	58.26982	4535.70906	58.26982
18750.00000	59.92582	4503.69974	59.92582
18800.00000	54.47292	4514.50398	54.47292
18850.00000	59.99399	4536.14198	59.99399
18900.00000	59.03462	4539.84540	59.03462
18950.00000	59.91257	4514.84508	59.91257
19000.00000	56.60000	4526.04489	56.60000
19050.00000	60.20270	4496.24174	60.20270
19100.00000	61.63921	4513.02403	61.63921
19150.00000	60.21135	4516.39458	60.21135
19200.00000	61.75104	4504.18681	61.75104
19250.00000	62.11842	4497.57473	62.11842
19300.00000	62.02454	4486.56020	62.02454
19350.00000	58.73790	4480.41697	58.73790
19400.00000	60.52527	4486.49380	60.52527
19450.00000	60.04472	4483.72849	60.04472
19500.00000	60.74782	4488.57255	60.74782
19550.00000	60.90645	4469.53074	60.90645
19600.00000	60.66757	4491.09520	60.66757
19650.00000	58.88182	4472.33588	58.88182
19700.00000	62.43608	4473.69159	62.43608
19750.00000	61.30753	4475.00057	61.30753
19800.00000	63.44482	4461.63043	63.44482
19850.00000	59.66361	4465.27127	59.66361
19900.00000	61.54977	4455.19246	61.54977
19950.00000	59.60740	4456.87302	59.60740
20000.00000	58.63913	4442.16942	58.63913
20050.00000	60.73410	4450.09266	60.73410
20100.00000	59.62307	4447.52542	59.62307
20150.00000	57.91382	4446.50844	57.91382
20200.00000	62.18429	4454.49005	62.18429
20250.00000	61.16659	4435.16745	61.16659
20300.00000	59.56014	4436.26459	59.56014
20350.00000	60.43944	4446.33665	60.43944
20400.00000	59.12997	4447.33347	59.12997
20450.00000	59.80778	4420.40292	59.80778
20500.00000	59.77811	4421.28392	59.77811
20550.00000	59.28624	4418.17931	59.28624
20600.00000	59.47413	4435.94036	59.47413
20650.00000	60.00901	4413.76938	60.00901
20700.00000	61.18356	4423.71205	61.18356
20750.00000	56.99412	4411.67616	56.99412
20800.00000	60.07663	4410.11637	60.07663
20850.00000	57.58132	4423.04433	57.58132
20900.00000	60.34207	4414.31207	60.34207
20950.00000	57.57728	4420.80418	57.57728
21000.00000	58.18310	4408.16470	58.18310
21050.00000	58.12382	4421.50845	58.12382
21100.00000	59.07498	4406.55142	59.07498
21150.00000	60.08001	4417.61120	60.08001
21200.00000	57.04582	4407.94871	57.04582
21250.00000	58.81758	4411.24579	58.81758
21300.00000	57.67902	4418.89605	57.67902
21350.00000	60.77706	4752.97843	60.77706
21400.00000	59.71162	4766.14374	59.71162
21450.00000	59.51500	4761.62770	59.51500
21500.00000	59.96575	4761.92963	59.96575
21550.00000	60.88938	4747.22363	60.88938
21600.00000	59.74864	4756.14495	59.74864
21650.00000	60.35026	4742.09655	60.35026
21700.00000	60.56696	4747.95183	60.56696
21750.00000	60.11406	4738.14356	60.11406
21800.00000	63.73145	4756.56188	63.73145
21850.00000	58.10904	4743.90916	58.10904
21900.00000	62.15668	4726.33415	62.15668
21950.00000	60.40231	4723.16554	60.40231
22000.00000	62.99469	4719.52023	62.99469
22050.00000	60.61196	4723.00200	60.61196
22100.00000	61.71446	4734.57108	61.71446
22150.00000	60.85248	5072.65998	60.85248
22200.00000	61.88109	5084.63194	61.88109
22250.00000	59.74279	5071.90563	59.74279
22300.00000	60.59812	5067.54998	60.59812
22350.00000	61.90087	5071.07187	61.90087
22400.00000	61.08455	5081.79716	61.08455
22450.00000	61.44996	5414.17378	61.44996
22500.00000	60.43458	5400.68344	60.43458
22550.00000	62.05260	5386.82014	62.05260
22600.00000	64.76954	5412.21914	64.76954
22650.00000	61.19053	5442.16583	61.19053
22700.00000	62.28638	5772.60617	62.28638
22750.00000	57.64656	5798.39195	57.64656
22800.00000	65.46200	6125.93415	65.46200
22850.00000	54.36777	6157.59351	54.36777
22900.00000	60.18474	6484.77516	60.18474
22950.00000	53.31598	6529.70541	53.31598
23000.00000	65.67357	6845.81925	65.67357
23050.00000	63.27657	6854.20502	63.27657
23100.00000	66.43522	6855.91255	66.43522
23150.00000	59.69140	7176.99718	59.69140
23200.00000	63.68703	7193.36211	63.68703
23250.00000	59.47303	7231.22006	59.47303
23300.00000	63.07347	7516.99829	63.07347
23350.00000	63.26420	7534.83882	63.26420
23400.00000	63.60927	7538.04281	63.60927
23450.00000	62.27767	7556.60303	62.27767
23500.00000	56.87152	7859.56096	56.87152
23550.00000	63.51562	7917.62514	63.51562
23600.00000	54.01917	8189.94417	54.01917
23650.00000	52.83585	8245.25568	52.83585
23700.00000	58.51928	8549.26025	58.51928
23750.00000	64.54664	8609.05991	64.54664
23800.00000	52.57070	8629.17050	52.57070
23850.00000	58.87276	8638.24417	58.87276
23900.00000	55.98244	8896.57372	55.98244
23950.00000	62.60323	8979.82848	62.60323
24000.00000	60.48561	9222.55700	60.48561
24050.00000	62.51047	9288.44395	62.51047
24100.00000	61.96395	9637.89929	61.96395
24150.00000	68.11545	9674.94430	68.11545
24200.00000	64.98095	9693.16521	64.98095
24250.00000	65.38880	10042.18947	65.38880
24300.00000	70.46413	10369.77109	70.46413
24350.00000	62.41569	10370.43325	62.41569
24400.00000	64.60488	10391.60898	64.60488
24450.00000	65.18423	10402.29133	65.18423
24500.00000	62.72252	10711.21271	62.72252
24550.00000	50.71906	10843.18444	50.71906
24600.00000	67.70358	11130.08825	67.70358
24650.00000	62.35131	11420.46317	62.35131
24700.00000	67.60573	11535.04105	67.60573
24750.00000	63.40908	11797.88300	63.40908
24800.00000	62.51482	12151.59997	62.51482
24850.00000	57.35146	12215.29011	57.35146
24900.00000	69.80819	12557.29366	69.80819
24950.00000	62.04859	12914.70634	62.04859
25000.00000	61.76457	12551.25968	61.76457
25050.00000	75.91933	12346.62730	75.91933
25100.00000	63.56602	12206.75109	63.56602
25150.00000	59.54848	12132.71752	59.54848
25200.00000	60.78545	11984.22479	60.78545
25250.00000	61.47611	11743.94344	61.47611
25300.00000	66.37174	11472.50983	66.37174
25350.00000	67.92590	11414.40343	67.92590
25400.00000	58.88774	11362.88519	58.88774
25450.00000	67.19266	11009.91643	67.19266
25500.00000	59.02381	10706.18706	59.02381
25550.00000	69.74147	10699.52030	69.74147
25600.00000	56.92052	10692.07796	56.92052
25650.00000	62.98612	10639.21934	62.98612
25700.00000	61.28169	10284.35825	61.28169
25750.00000	66.39090	9978.97143	66.39090
25800.00000	67.70962	9948.07568	67.70962
25850.00000	58.32014	9617.85779	58.32014
25900.00000	56.37912	9594.18233	56.37912
25950.00000	55.32311	9341.24958	55.32311
26000.00000	66.43492	9227.32414	66.43492
26050.00000	57.45006	8907.07008	57.45006
26100.00000	61.82198	8876.14847	61.82198
26150.00000	36.97374	8723.61225	36.97374
26200.00000	61.14457	8495.74049	61.14457
26250.00000	67.50210	8167.38858	67.50210
26300.00000	56.15954	8170.81952	56.15954
26350.00000	62.57425	8140.10911	62.57425
26400.00000	59.86921	7808.27959	59.86921
26450.00000	57.92122	7592.06622	57.92122
26500.00000	59.27327	7437.89930	59.27327
26550.00000	62.60001	7358.27032	62.60001
26600.00000	59.28122	7056.23444	59.28122
26650.00000	56.76589	6735.28076	56.76589
26700.00000	61.13828	6656.82223	61.13828
26750.00000	54.26771	6582.94570	54.26771
26800.00000	57.81762	6381.99171	57.81762
26850.00000	63.00549	6307.23635	63.00549
26900.00000	60.48801	5980.82643	60.48801
26950.00000	54.69591	5880.61418	54.69591
27000.00000	58.13276	5631.53254	58.13276
27050.00000	58.30633	5576.83928	58.30633
27100.00000	53.60879	5250.30036	53.60879
27150.00000	61.12594	5194.05626	61.12594
27200.00000	53.56041	4981.10344	53.56041
27250.00000	60.39750	4839.23163	60.39750
27300.00000	61.33438	4776.62353	61.33438
27350.00000	63.50689	4482.14547	63.50689
27400.00000	57.31882	4171.08886	57.31882
27450.00000	64.69059	4055.02084	64.69059
27500.00000	64.27546	3752.70044	64.27546
27550.00000	51.41935	3645.13663	51.41935
27600.00000	61.85458	3405.72318	61.85458
27650.00000	41.66282	3411.26078	41.66282
27700.00000	59.65773	3425.68171	59.65773
27750.00000	58.93556	3387.75410	58.93556
27800.00000	53.43960	3222.55037	53.43960
27850.00000	59.71223	3040.16809	59.71223
27900.00000	54.53639	2865.49297	54.53639
27950.00000	53.50641	2770.73115	53.50641
28000.00000	58.70252	2589.79747	58.70252
28050.00000	61.45517	2345.29200	61.45517
28100.00000	59.15830	2269.72161	59.15830
28150.00000	51.91986	2123.88956	51.91986
28200.00000	45.22306	1828.63971	45.22306
28250.00000	57.04491	1830.80046	57.04491
28300.00000	56.69594	1681.01911	56.69594
28350.00000	59.02109	1462.81235	59.02109
28400.00000	60.28472	1257.89746	60.28472
28450.00000	39.07459	1210.64029	39.07459
28500.00000	60.23351	1206.79404	60.23351
28550.00000	58.89523	1151.05504	58.89523
28600.00000	62.70036	839.48880	62.70036
28650.00000	54.84331	742.59413	54.84331
28700.00000	61.15166	752.95252	61.15166
28750.00000	61.32532	490.96119	61.32532
28800.00000	56.76905	167.82636	56.76905
28850.00000	52.52510	-100.40428	52.52510
28900.00000	57.20604	-285.35835	57.20604
28950.00000	59.38921	-610.27351	59.38921
29000.00000	47.62173	-626.13990	47.62173
29050.00000	58.79392	-662.36312	58.79392
29100.00000	61.17875	-816.14457	61.17875
29150.00000	58.00368	-1013.72381	58.00368
29200.00000	60.18892	-1149.50646	60.18892
29250.00000	59.27913	-1280.52312	59.27913
29300.00000	60.95943	-1291.41367	60.95943
29350.00000	56.79361	-1433.69141	56.79361
29400.00000	59.06848	-1686.96488	59.06848
29450.00000	52.37347	-1787.45641	52.37347
29500.00000	61.22196	-2057.83881	61.22196
29550.00000	62.56492	-2130.24800	62.56492
29600.00000	50.84835	-2225.90715	50.84835
29650.00000	60.09466	-2406.26636	60.09466
29700.00000	54.00569	-2665.64163	54.00569
29750.00000	53.36420	-2746.02899	53.36420
29800.00000	58.69401	-2836.21468	58.69401
29850.00000	53.87689	-3056.29330	53.87689
29900.00000	59.31377	-3208.82041	59.31377
29950.00000	51.90954	-3525.77157	51.90954
30000.00000	62.94746	-3840.53861	62.94746
30050.00000	55.68153	-3869.55044	55.68153
30100.00000	42.04331	-3964.93487	42.04331
30150.00000	51.77449	-4192.78729	51.77449
30200.00000	45.23786	-4371.34563	45.23786
30250.00000	54.88262	-4526.02377	54.88262
30300.00000	60.07979	-4570.06288	60.07979
30350.00000	50.91197	-4804.15745	50.91197
30400.00000	45.87796	-4776.94628	45.87796
30450.00000	56.60322	-4962.04360	56.60322
30500.00000	42.16812	-5171.37085	42.16812
30550.00000	60.60878	-5289.63099	60.60878
30600.00000	61.38745	-5364.23654	61.38745
30650.00000	59.68782	-5632.96009	59.68782
30700.00000	43.17508	-5647.47544	43.17508
30750.00000	53.17996	-5612.97716	53.17996
30800.00000	54.37084	-5656.76574	54.37084
30850.00000	44.82252	-5922.06275	44.82252
30900.00000	49.15027	-5947.54145	49.15027
30950.00000	55.98341	-5992.10038	55.98341
31000.00000	57.86482	-5957.44132	57.86482
31050.00000	58.56261	-5961.94112	58.56261
31100.00000	51.83724	-5961.87069	51.83724
31150.00000	58.82798	-5986.49181	58.82798
31200.00000	58.41667	-6017.39846	58.41667
31250.00000	65.10460	-6328.04891	65.10460
31300.00000	58.63809	-6334.49291	58.63809
31350.00000	61.45302	-6363.41321	61.45302
31400.00000	65.25429	-6356.04812	65.25429
31450.00000	64.93962	-6342.89661	64.93962
31500.00000	63.46494	-6396.57098	63.46494
31550.00000	61.58440	-6423.80408	61.58440
31600.00000	65.27839	-6725.18228	65.27839
31650.00000	67.87602	-6729.39576	67.87602
31700.00000	62.68025	-6749.24166	62.68025
31750.00000	69.67914	-6727.50567	69.67914
31800.00000	69.97966	-6756.29286	69.97966
31850.00000	60.05685	-6717.32904	60.05685
31900.00000	69.11599	-6748.00477	69.11599
31950.00000	70.79316	-6790.27500	70.79316
32000.00000	65.07121	-7050.66465	65.07121
32050.00000	72.90297	-7129.56541	72.90297
32100.00000	69.75018	-7140.70773	69.75018
32150.00000	70.79897	-7103.22842	70.79897
32200.00000	75.72152	-7140.91802	75.72152
32250.00000	67.15968	-7148.04081	67.15968
32300.00000	72.11050	-7131.18487	72.11050
32350.00000	70.52314	-7114.91719	70.52314
32400.00000	70.91296	-7167.58569	70.91296
32450.00000	65.88564	-7114.92553	65.88564
32500.00000	74.05429	-7145.79238	74.05429
32550.00000	72.51024	-7188.50699	72.51024
32600.00000	70.56331	-7185.16680	70.56331
32650.00000	70.01933	-7162.55727	70.01933
32700.00000	72.07951	-7182.01898	72.07951
32750.00000	70.41306	-7153.94674	70.41306
32800.00000	74.57988	-7168.58158	74.57988
32850.00000	72.56178	-7188.70502	72.56178
32900.00000	71.21322	-7212.30360	71.21322
32950.00000	72.46402	-7204.18779	72.46402
33000.00000	71.48187	-7206.16889	71.48187
33050.00000	73.25731	-7182.93644	73.25731
33100.00000	68.81445	-7163.47152	68.81445
33150.00000	69.22455	-7239.24381	69.22455
33200.00000	71.24427	-7229.87826	71.24427
33250.00000	74.78934	-7225.28401	74.78934
33300.00000	67.11550	-7231.07755	67.11550
33350.00000	66.88141	-7248.66544	66.88141
33400.00000	68.17463	-7220.71651	68.17463
33450.00000	68.90876	-7255.35011	68.90876
33500.00000	70.33867	-7224.78728	70.33867
33550.00000	73.56209	-7242.05673	73.56209
33600.00000	67.43335	-7261.95270	67.43335
33650.00000	53.90942	-7484.12659	53.90942
33700.00000	74.69595	-7625.83754	74.69595
33750.00000	71.33134	-7639.76054	71.33134
33800.00000	64.48347	-7588.04929	64.48347
33850.00000	73.04504	-7588.87841	73.04504
33900.00000	62.59237	-7696.26090	62.59237
33950.00000	58.19225	-7857.71274	58.19225
34000.00000	75.82405	-7973.70317	75.82405
34050.00000	60.86193	-7980.80882	60.86193
34100.00000	57.84887	-8223.53463	57.84887
34150.00000	61.74538	-8346.95893	61.74538
34200.00000	71.49876	-8331.55444	71.49876
34250.00000	63.19080	-8422.60144	63.19080
34300.00000	59.46649	-8377.89876	59.46649
34350.00000	72.98670	-8347.78658	72.98670
34400.00000	68.63828	-8419.90571	68.63828
34450.00000	48.36918	-8436.63692	48.36918
34500.00000	62.20332	-8692.98911	62.20332
34550.00000	72.00372	-8782.26662	72.00372
34600.00000	62.88490	-8863.01107	62.88490
34650.00000	67.43667	-9026.50564	67.43667
34700.00000	70.59662	-9041.35438	70.59662
34750.00000	66.63173	-9234.08994	66.63173
34800.00000	60.23627	-9369.57241	60.23627
34850.00000	64.85428	-9416.62175	64.85428
34900.00000	68.61584	-9503.38266	68.61584
34950.00000	63.64401	-9762.91055	63.64401
35000.00000	66.23957	-10040.39431	66.23957
35050.00000	58.45829	-10098.61243	58.45829
35100.00000	58.98035	-10140.32941	58.98035
35150.00000	67.60870	-10157.34632	67.60870
35200.00000	68.82756	-10172.47667	68.82756
35250.00000	57.51355	-10183.26344	57.51355
35300.00000	67.03100	-10419.33104	67.03100
35350.00000	60.74094	-10540.12320	60.74094
35400.00000	58.85723	-10568.63312	58.85723
35450.00000	70.56349	-10664.15032	70.56349
35500.00000	70.98522	-10893.57707	70.98522
35550.00000	69.34553	-10927.58697	69.34553
35600.00000	72.06840	-10930.26920	72.06840
35650.00000	66.73587	-10984.17125	66.73587
35700.00000	65.55817	-10957.80658	65.55817
35750.00000	63.15377	-11184.00510	63.15377
35800.00000	71.41899	-11145.45022	71.41899
35850.00000	56.32981	-11077.47510	56.32981
35900.00000	73.41030	-11317.52534	73.41030
35950.00000	66.98647	-11330.43867	66.98647
36000.00000	62.43560	-11566.42968	62.43560
36050.00000	69.80229	-11669.95213	69.80229
36100.00000	70.44266	-11673.97943	70.44266
36150.00000	68.86738	-11772.49630	68.86738
36200.00000	45.01650	-11752.78427	45.01650
36250.00000	63.31440	-12021.47806	63.31440
36300.00000	73.16241	-12059.69149	73.16241
36350.00000	73.78345	-12041.16763	73.78345
36400.00000	73.51973	-11961.16828	73.51973
36450.00000	69.97882	-12005.82362	69.97882
36500.00000	72.65502	-12055.24238	72.65502
36550.00000	64.07683	-12014.75505	64.07683
36600.00000	70.20598	-11973.15647	70.20598
36650.00000	59.49505	-12103.40722	59.49505
36700.00000	76.00394	-12069.14762	76.00394
36750.00000	70.35450	-12132.79459	70.35450
36800.00000	72.46151	-12063.14376	72.46151
36850.00000	74.33328	-12050.11574	74.33328
36900.00000	74.08302	-12092.15805	74.08302
36950.00000	71.61524	-12038.64258	71.61524
37000.00000	69.02203	-12052.05558	69.02203
37050.00000	75.67028	-12087.43963	75.67028
37100.00000	70.44294	-12106.76410	70.44294
37150.00000	73.33550	-12103.62894	73.33550
37200.00000	71.46868	-12367.93487	71.46868
37250.00000	73.91329	-12387.93008	73.91329
37300.00000	78.13356	-12460.78617	78.13356
37350.00000	75.50512	-12488.32668	75.50512
37400.00000	73.73097	-12492.77885	73.73097
37450.00000	77.00046	-12475.05192	77.00046
37500.00000	78.39319	-12503.53526	78.39319
37550.00000	71.76819	-12443.70549	71.76819
37600.00000	75.14319	-12426.11744	75.14319
37650.00000	76.25685	-12463.66677	76.25685
37700.00000	76.17363	-12454.23014	76.17363
37750.00000	80.02042	-12472.77644	80.02042
37800.00000	77.06618	-12498.13007	77.06618
37850.00000	71.90676	-12464.62121	71.90676
37900.00000	73.45978	-12477.06352	73.45978
37950.00000	68.32089	-12505.50820	68.32089
38000.00000	78.73016	-12456.09567	78.73016
38050.00000	77.93393	-12468.00906	77.93393
38100.00000	78.68175	-12502.77878	78.68175
38150.00000	77.21416	-12495.10509	77.21416
38200.00000	77.54698	-12496.46634	77.54698
38250.00000	80.96666	-12492.69618	80.96666
38300.00000	80.15766	-12500.60391	80.15766
38350.00000	80.65913	-12518.09756	80.65913
38400.00000	77.98157	-12513.14223	77.98157
38450.00000	75.81087	-12500.70662	75.81087
38500.00000	79.16375	-12497.05634	79.16375
38550.00000	81.30559	-12498.25945	81.30559
38600.00000	80.59326	-12530.68409	80.59326
38650.00000	79.77293	-12523.51795	79.77293
38700.00000	78.48394	-12523.31629	78.48394
38750.00000	79.15620	-12530.66701	79.15620
38800.00000	77.35665	-12534.91322	77.35665
38850.00000	77.80213	-12552.64908	77.80213
38900.00000	78.90631	-12533.93745	78.90631
38950.00000	79.02034	-12543.62459	79.02034
39000.00000	79.30141	-12539.99951	79.30141
39050.00000	80.38014	-12552.30215	80.38014
39100.00000	79.28271	-12565.33609	79.28271
39150.00000	79.35786	-12560.40336	79.35786
39200.00000	80.60214	-12563.81686	80.60214
39250.00000	81.11466	-12577.10053	81.11466
39300.00000	79.54008	-12590.50916	79.54008
39350.00000	77.69463	-12583.63441	77.69463
39400.00000	79.61625	-12594.53332	79.61625
39450.00000	80.08042	-12587.39776	80.08042
39500.00000	79.42258	-12596.14868	79.42258
39550.00000	79.20418	-12598.40996	79.20418
39600.00000	78.78124	-12606.63343	78.78124
39650.00000	75.76646	-12629.89704	75.76646
39700.00000	73.98855	-12613.78671	73.98855
39750.00000	77.48663	-12609.29553	77.48663
39800.00000	79.17369	-12615.77921	79.17369
39850.00000	77.43939	-12620.16246	77.43939
39900.00000	74.17051	-12629.36826	74.17051
39950.00000	72.30209	-12658.39486	72.30209
40000.00000	71.64096	-12617.02942	71.64096
40050.00000	71.00454	-12656.72401	71.00454
40100.00000	76.80061	-12653.05199	76.80061
40150.00000	68.21381	-12640.65001	68.21381
40200.00000	68.74407	-12691.18482	68.74407
40250.00000	76.48238	-12633.91828	76.48238
40300.00000	70.50162	-12693.22335	70.50162
40350.00000	78.64450	-12656.65143	78.64450
40400.00000	71.13482	-12664.65792	71.13482
40450.00000	72.37739	-12654.05741	72.37739
40500.00000	68.91206	-12658.23081	68.91206
40550.00000	64.19956	-12715.25141	64.19956
40600.00000	61.81308	-12697.00034	61.81308
40650.00000	73.44788	-12704.25761	73.44788
40700.00000	71.17563	-12699.65440	71.17563
40750.00000	57.75016	-12704.99887	57.75016
40800.00000	68.58677	-12670.39532	68.58677
40850.00000	70.01686	-12637.17023	70.01686
40900.00000	71.99067	-12724.06032	71.99067
40950.00000	72.29762	-12688.50795	72.29762
41000.00000	65.15215	-12668.12582	65.15215
41050.00000	60.74457	-12768.56065	60.74457
41100.00000	68.25401	-12765.75408	68.25401
41150.00000	75.52784	-12680.88233	75.52784
41200.00000	71.38491	-12726.43997	71.38491
41250.00000	69.21039	-12695.66496	69.21039
41300.00000	71.47271	-12704.13007	71.47271
41350.00000	67.48374	-12746.44332	67.48374
41400.00000	71.12393	-12733.31256	71.12393
41450.00000	68.77972	-12714.68460	68.77972
41500.00000	73.33114	-12708.65629	73.33114
41550.00000	69.38838	-12643.62578	69.38838
41600.00000	75.94380	-12748.43339	75.94380
41650.00000	77.95676	-12709.55075	77.95676
41700.00000	76.73893	-12656.27064	76.73893
41750.00000	66.18322	-12729.85645	66.18322
41800.00000	68.39295	-12714.73689	68.39295
41850.00000	78.39568	-12735.90224	78.39568
41900.00000	71.34679	-12715.19257	71.34679
41950.00000	75.52090	-12710.72837	75.52090
42000.00000	77.54643	-12704.21035	77.54643
42050.00000	69.06202	-12712.19008	69.06202
42100.00000	73.73252	-12667.02702	73.73252
42150.00000	74.39076	-12752.43526	74.39076
42200.00000	74.24061	-12668.94932	74.24061
42250.00000	70.19313	-12761.30200	70.19313
42300.00000	77.52934	-12772.90048	77.52934
42350.00000	75.79269	-12723.97594	75.79269
42400.00000	73.12274	-12662.10230	73.12274
42450.00000	76.56714	-12824.67861	76.56714
42500.00000	66.60600	-13013.22017	66.60600
42550.00000	71.41489	-13049.21406	71.41489
42600.00000	71.04623	-13136.50752	71.04623
42650.00000	78.46143	-13086.88388	78.46143
42700.00000	77.29312	-13082.65479	77.29312
42750.00000	67.96698	-12960.12536	67.96698
42800.00000	73.21133	-13091.50675	73.21133
42850.00000	63.81771	-13059.45719	63.81771
42900.00000	75.12790	-13060.57102	75.12790
42950.00000	76.65612	-13060.21411	76.65612
43000.00000	76.68786	-13130.88629	76.68786
43050.00000	72.21461	-13317.46304	72.21461
43100.00000	81.31519	-13459.75082	81.31519
43150.00000	78.85139	-13369.64343	78.85139
43200.00000	80.78322	-13396.22069	80.78322
43250.00000	77.78130	-13442.50577	77.78130
43300.00000	69.84600	-13537.15583	69.84600
43350.00000	84.11410	-13419.53487	84.11410
43400.00000	63.87769	-13487.74735	63.87769
43450.00000	76.84711	-13410.06410	76.84711
43500.00000	68.31598	-13426.26414	68.31598
43550.00000	76.04261	-13401.04354	76.04261
43600.00000	69.90657	-13446.01225	69.90657
43650.00000	64.75997	-13438.93507	64.75997
43700.00000	74.81972	-13479.24101	74.81972
43750.00000	78.31450	-13508.92862	78.31450
43800.00000	79.85384	-13517.58225	79.85384
43850.00000	65.48671	-13555.10876	65.48671
43900.00000	63.89738	-13636.57062	63.89738
43950.00000	77.97620	-13506.05651	77.97620
44000.00000	75.54798	-13456.98432	75.54798
44050.00000	76.08523	-13525.41778	76.08523
44100.00000	74.76414	-13524.87195	74.76414
44150.00000	75.38180	-13483.18054	75.38180
44200.00000	70.89107	-13586.56255	70.89107
44250.00000	62.44452	-13456.19261	62.44452
44300.00000	70.02273	-13655.37074	70.02273
44350.00000	72.36904	-13571.76593	72.36904
44400.00000	79.21490	-13515.59485	79.21490
44450.00000	68.03346	-13623.18774	68.03346
44500.00000	73.36473	-13817.15545	73.36473
44550.00000	75.99944	-13963.28296	75.99944
44600.00000	80.81151	-13872.66823	80.81151
44650.00000	76.73704	-13942.95655	76.73704
44700.00000	75.25954	-13865.86378	75.25954
44750.00000	74.86023	-13877.30274	74.86023
44800.00000	66.80710	-14011.37794	66.80710
44850.00000	67.78271	-14164.04103	67.78271
44900.00000	61.71346	-14070.93112	61.71346
44950.00000	63.32416	-14234.96382	63.32416
45000.00000	69.61019	-14402.63760	69.61019
45050.00000	72.95797	-14278.49298	72.95797
45100.00000	62.16619	-14245.85574	62.16619
45150.00000	71.09140	-14457.05207	71.09140
45200.00000	72.08901	-14641.41364	72.08901
45250.00000	67.01718	-14750.19228	67.01718
45300.00000	58.66615	-14936.68907	58.66615
45350.00000	65.42184	-14883.91919	65.42184
45400.00000	65.27794	-14960.34158	65.27794
45450.00000	61.82163	-14914.39895	61.82163
45500.00000	71.31624	-14973.81594	71.31624
45550.00000	72.05918	-14919.00014	72.05918
45600.00000	70.14614	-14814.58793	70.14614
45650.00000	69.35477	-14889.61564	69.35477
45700.00000	73.18486	-14897.51400	73.18486
45750.00000	72.81585	-15001.77877	72.81585
45800.00000	75.62255	-15089.78716	75.62255
45850.00000	67.15761	-15071.39106	67.15761
45900.00000	71.81633	-15016.57599	71.81633
45950.00000	61.60584	-15115.33881	61.60584
46000.00000	68.18708	-15220.47993	68.18708
46050.00000	71.90707	-15265.29336	71.90707
46100.00000	71.12964	-15146.62267	71.12964
46150.00000	64.25537	-15309.60677	64.25537
46200.00000	66.22211	-15426.38552	66.22211
46250.00000	64.60641	-15578.87984	64.60641
46300.00000	65.02655	-15424.73262	65.02655
46350.00000	69.27897	-15323.71016	69.27897
46400.00000	61.68805	-15309.59449	61.68805
46450.00000	49.79461	-15206.08126	49.79461
46500.00000	68.96770	-15175.46914	68.96770
46550.00000	64.19863	-15131.24431	64.19863
46600.00000	75.02005	-15057.91651	75.02005
46650.00000	65.62004	-15083.81598	65.62004
46700.00000	63.09996	-15035.53969	63.09996
46750.00000	79.72351	-15154.11273	79.72351
46800.00000	61.22735	-15260.53373	61.22735
46850.00000	58.72465	-15649.93271	58.72465
46900.00000	58.59792	-15694.02287	58.59792
46950.00000	67.38641	-15635.97782	67.38641
47000.00000	71.17793	-15720.58350	71.17793
47050.00000	67.80320	-15771.72097	67.80320
47100.00000	51.04865	-15668.01620	51.04865
47150.00000	63.77593	-15705.90155	63.77593
47200.00000	65.79102	-15717.65958	65.79102
47250.00000	67.80259	-15703.30156	67.80259
47300.00000	70.38491	-15811.84850	70.38491
47350.00000	67.05842	-16256.12731	67.05842
47400.00000	59.93737	-16444.80216	59.93737
47450.00000	67.16789	-16510.09704	67.16789
47500.00000	61.16361	-16654.35456	61.16361
47550.00000	57.86316	-16951.89324	57.86316
47600.00000	62.91598	-16849.50687	62.91598
47650.00000	65.26700	-17031.71657	65.26700
47700.00000	67.40969	-17172.52728	67.40969
47750.00000	57.54167	-17032.39413	57.54167
47800.00000	67.93332	-16978.86103	67.93332
47850.00000	67.36445	-17254.36586	67.36445
47900.00000	71.82693	-17735.74337	71.82693
47950.00000	67.88238	-17867.75657	67.88238
48000.00000	62.39891	-17873.76074	62.39891
48050.00000	67.25663	-17836.96407	67.25663
48100.00000	66.87979	-17783.38447	66.87979
48150.00000	65.16645	-18090.23755	65.16645
48200.00000	63.53325	-18232.62290	63.53325
48250.00000	67.86795	-18236.10602	67.86795
48300.00000	68.35416	-18342.27027	68.35416
48350.00000	65.74697	-18291.53453	65.74697
48400.00000	70.40462	-18586.35440	70.40462
48450.00000	65.17416	-18696.69177	65.17416
48500.00000	70.61745	-18643.39703	70.61745
48550.00000	61.45431	-18709.96376	61.45431
48600.00000	69.41809	-19123.97184	69.41809
48650.00000	66.96904	-19111.82954	66.96904
48700.00000	66.87768	-19288.76186	66.87768
48750.00000	69.90448	-19804.62291	69.90448
48800.00000	61.08094	-19787.21213	61.08094
48850.00000	67.49201	-19972.72410	67.49201
48900.00000	58.09980	-20505.62860	58.09980
48950.00000	74.51142	-20570.08783	74.51142
49000.00000	66.80565	-20484.61186	66.80565
49050.00000	71.05231	-20340.16622	71.05231
49100.00000	69.12531	-20652.61701	69.12531
49150.00000	67.11284	-20941.47339	67.11284
49200.00000	70.35286	-20906.23376	70.35286
49250.00000	67.50210	-21164.78376	67.50210
49300.00000	65.91715	-20662.23785	65.91715
49350.00000	71.15257	-20750.42370	71.15257
49400.00000	72.38963	-20442.57926	72.38963
49450.00000	59.13184	-20226.70092	59.13184
49500.00000	66.29315	-19768.65597	66.29315
49550.00000	71.06023	-19284.18829	71.06023
49600.00000	78.52061	-19127.93044	78.52061
49650.00000	74.93835	-18976.65113	74.93835
49700.00000	63.53354	-18706.37103	63.53354
49750.00000	67.57963	-18835.59673	67.57963
49800.00000	73.86759	-18973.48364	73.86759
49850.00000	73.29940	-18801.86369	73.29940
49900.00000	77.93793	-18620.43879	77.93793
49950.00000	79.18777	-18304.05505	79.18777
