---ACOUSTIC CALIBRATION---
Filename: C:\Data\AZH DATA\AZH62\RightPrimary.calib
Date: 8/27/2019 3:45:39 PM
Format: 4
Probe Tube Correction File: C:\Data\Probe Tube Calibrations\50_ProbeTube.calib
Experiment VIs: 850
EPL_CFTS.exe V12.0.1 (2012)
DAQmx V9.6

Attenuation (dB): 40.000000
Min Freq (Hz): 50.000000
Max Freq (Hz): 49950.000000
Freq Step (Hz): 50.000000
Sample Rate (Hz): 100000.000000
[Smoothing]
Method=None
MA.Iterations=0
MA.Length=0
Loess.Length=0
Loess.Type=Linear
Loess.Robust=FALSE


Freq(Hz)	Mag(dB)	Phase(deg)	Unsmoothed(dB)

50.00000	106.45036	534.46223	106.45036
100.00000	77.78589	353.05219	77.78589
150.00000	76.84569	495.94245	76.84569
200.00000	76.04597	472.57352	76.04597
250.00000	74.70389	366.43293	74.70389
300.00000	87.12963	466.93170	87.12963
350.00000	85.99696	396.19759	85.99696
400.00000	82.82310	362.95625	82.82310
450.00000	85.72361	371.77398	85.72361
500.00000	86.32405	370.13984	86.32405
550.00000	90.69319	369.48873	90.69319
600.00000	94.22234	356.92337	94.22234
650.00000	96.79076	346.24116	96.79076
700.00000	99.06357	331.04514	99.06357
750.00000	100.81775	313.88778	100.81775
800.00000	101.95588	292.22270	101.95588
850.00000	101.38664	276.15315	101.38664
900.00000	100.10660	257.12424	100.10660
950.00000	98.22204	255.16384	98.22204
1000.00000	96.67071	254.18666	96.67071
1050.00000	94.77997	269.10208	94.77997
1100.00000	96.14578	291.56199	96.14578
1150.00000	99.08468	297.60969	99.08468
1200.00000	101.98234	296.46918	101.98234
1250.00000	103.70113	288.53159	103.70113
1300.00000	105.36001	282.31004	105.36001
1350.00000	106.69445	272.64112	106.69445
1400.00000	107.59213	265.90580	107.59213
1450.00000	108.55975	259.48597	108.55975
1500.00000	109.57542	253.43034	109.57542
1550.00000	110.43298	244.61665	110.43298
1600.00000	111.90393	235.18022	111.90393
1650.00000	112.94033	218.35235	112.94033
1700.00000	111.69289	208.23576	111.69289
1750.00000	111.48046	202.34972	111.48046
1800.00000	111.20970	197.92225	111.20970
1850.00000	111.30861	196.81824	111.30861
1900.00000	112.42824	193.12895	112.42824
1950.00000	113.16838	180.28832	113.16838
2000.00000	112.28079	168.12858	112.28079
2050.00000	110.96460	172.09877	110.96460
2100.00000	112.72926	172.53977	112.72926
2150.00000	113.45144	161.34562	113.45144
2200.00000	113.40068	151.30629	113.40068
2250.00000	112.81685	144.42213	112.81685
2300.00000	112.91584	138.72149	112.91584
2350.00000	112.67360	132.45097	112.67360
2400.00000	112.43106	127.00430	112.43106
2450.00000	112.16126	120.35514	112.16126
2500.00000	111.79091	115.29827	111.79091
2550.00000	111.33053	109.67818	111.33053
2600.00000	110.83297	105.60896	110.83297
2650.00000	110.35811	101.61032	110.35811
2700.00000	109.86236	98.10492	109.86236
2750.00000	109.31127	94.46455	109.31127
2800.00000	108.70243	91.74099	108.70243
2850.00000	108.09013	89.60120	108.09013
2900.00000	107.47433	87.63802	107.47433
2950.00000	106.84325	86.57859	106.84325
3000.00000	106.24939	85.70097	106.24939
3050.00000	105.44880	84.64099	105.44880
3100.00000	104.66941	84.88722	104.66941
3150.00000	103.49253	85.31391	103.49253
3200.00000	102.31254	91.85369	102.31254
3250.00000	101.35677	100.86824	101.35677
3300.00000	100.75491	113.49239	100.75491
3350.00000	101.00318	129.76430	101.00318
3400.00000	102.69665	146.81125	102.69665
3450.00000	105.30950	155.15954	105.30950
3500.00000	107.93593	156.50853	107.93593
3550.00000	110.01523	153.24860	110.01523
3600.00000	111.80781	149.46671	111.80781
3650.00000	113.26350	144.19528	113.26350
3700.00000	114.55918	139.17150	114.55918
3750.00000	115.85194	133.88707	115.85194
3800.00000	117.03943	127.40056	117.03943
3850.00000	118.07398	120.68544	118.07398
3900.00000	119.03056	114.14889	119.03056
3950.00000	119.96897	107.02461	119.96897
4000.00000	120.82193	99.65946	120.82193
4050.00000	121.62555	92.37366	121.62555
4100.00000	122.45747	84.86416	122.45747
4150.00000	123.48159	76.50894	123.48159
4200.00000	124.21660	66.50468	124.21660
4250.00000	124.90593	55.36438	124.90593
4300.00000	125.34607	43.23921	125.34607
4350.00000	125.47123	30.75392	125.47123
4400.00000	125.32681	19.14199	125.32681
4450.00000	125.01814	 8.50373	125.01814
4500.00000	124.62025	-1.13526	124.62025
4550.00000	124.18575	-10.16168	124.18575
4600.00000	123.70231	-18.46266	123.70231
4650.00000	123.26867	-26.35618	123.26867
4700.00000	122.79813	-34.64891	122.79813
4750.00000	122.20599	-43.23096	122.20599
4800.00000	121.41452	-51.94474	121.41452
4850.00000	120.33572	-59.87529	120.33572
4900.00000	119.02113	-65.85807	119.02113
4950.00000	117.62609	-69.18956	117.62609
5000.00000	116.29451	-70.12517	116.29451
5050.00000	115.23322	-69.83180	115.23322
5100.00000	114.00771	-66.45283	114.00771
5150.00000	113.90649	-60.43241	113.90649
5200.00000	113.18753	-57.02741	113.18753
5250.00000	114.25840	-43.66563	114.25840
5300.00000	116.80786	-49.81650	116.80786
5350.00000	117.17103	-63.02844	117.17103
5400.00000	116.64568	-71.15326	116.64568
5450.00000	116.11625	-75.71328	116.11625
5500.00000	115.68490	-79.05016	115.68490
5550.00000	115.36500	-81.57387	115.36500
5600.00000	115.10808	-84.09365	115.10808
5650.00000	114.90574	-86.37899	114.90574
5700.00000	114.71354	-88.81085	114.71354
5750.00000	114.56715	-91.09643	114.56715
5800.00000	114.41260	-93.48893	114.41260
5850.00000	114.28244	-95.91796	114.28244
5900.00000	114.16414	-98.25424	114.16414
5950.00000	114.06234	-100.51590	114.06234
6000.00000	113.96645	-102.69193	113.96645
6050.00000	113.87262	-104.99981	113.87262
6100.00000	113.80689	-107.17076	113.80689
6150.00000	113.76944	-109.50992	113.76944
6200.00000	113.71718	-111.94635	113.71718
6250.00000	113.69523	-114.51568	113.69523
6300.00000	113.66131	-117.27214	113.66131
6350.00000	113.59758	-120.06150	113.59758
6400.00000	113.52572	-122.67238	113.52572
6450.00000	113.47755	-125.42061	113.47755
6500.00000	113.38773	-128.08737	113.38773
6550.00000	113.31211	-130.77304	113.31211
6600.00000	113.24899	-133.26453	113.24899
6650.00000	113.18560	-135.81539	113.18560
6700.00000	113.15182	-138.45950	113.15182
6750.00000	113.10485	-140.95176	113.10485
6800.00000	113.06969	-143.43252	113.06969
6850.00000	113.03165	-146.02772	113.03165
6900.00000	113.02608	-148.50980	113.02608
6950.00000	113.00413	-151.08591	113.00413
7000.00000	113.00960	-153.63023	113.00960
7050.00000	113.00676	-156.39352	113.00676
7100.00000	113.02566	-159.26923	113.02566
7150.00000	113.02778	-162.00697	113.02778
7200.00000	113.03137	-164.99092	113.03137
7250.00000	113.01206	-168.11739	113.01206
7300.00000	113.03130	-171.26240	113.03130
7350.00000	113.01311	-174.25967	113.01311
7400.00000	113.01323	-177.63771	113.01323
7450.00000	112.98740	-180.95763	112.98740
7500.00000	112.96010	-184.40432	112.96010
7550.00000	112.95033	-187.66533	112.95033
7600.00000	112.89252	-191.08143	112.89252
7650.00000	112.84627	-194.49920	112.84627
7700.00000	112.82949	-197.86233	112.82949
7750.00000	112.73791	-201.36249	112.73791
7800.00000	112.68962	-204.84666	112.68962
7850.00000	112.61551	-208.35017	112.61551
7900.00000	112.56731	-211.73651	112.56731
7950.00000	112.49245	-215.34708	112.49245
8000.00000	112.42983	-219.01362	112.42983
8050.00000	112.34584	-223.07744	112.34584
8100.00000	112.26424	-226.42707	112.26424
8150.00000	112.09003	-230.07738	112.09003
8200.00000	111.97783	-233.55664	111.97783
8250.00000	111.81591	-237.60390	111.81591
8300.00000	111.66651	-241.49101	111.66651
8350.00000	111.42673	-245.23386	111.42673
8400.00000	111.21346	-249.40894	111.21346
8450.00000	110.90751	-253.39700	110.90751
8500.00000	110.64026	-257.49412	110.64026
8550.00000	110.37679	-261.35422	110.37679
8600.00000	110.06671	-265.51948	110.06671
8650.00000	109.73546	-269.33003	109.73546
8700.00000	109.42532	-273.34893	109.42532
8750.00000	109.02779	-275.80623	109.02779
8800.00000	108.69216	-279.17238	108.69216
8850.00000	108.25751	-282.10193	108.25751
8900.00000	107.87315	-284.39758	107.87315
8950.00000	107.44996	-287.17878	107.44996
9000.00000	106.93644	-289.58901	106.93644
9050.00000	106.51133	-292.49751	106.51133
9100.00000	106.07765	-294.80826	106.07765
9150.00000	105.68320	-297.38156	105.68320
9200.00000	105.36268	-299.86954	105.36268
9250.00000	105.00899	-302.15961	105.00899
9300.00000	104.74872	-304.22599	104.74872
9350.00000	104.57932	-306.13052	104.57932
9400.00000	104.26991	-307.17583	104.26991
9450.00000	104.05021	-308.12663	104.05021
9500.00000	103.81348	-307.97108	103.81348
9550.00000	103.66571	-308.00650	103.66571
9600.00000	103.53490	-309.34832	103.53490
9650.00000	103.26710	-310.95582	103.26710
9700.00000	102.98155	-311.97527	102.98155
9750.00000	102.76184	-314.38190	102.76184
9800.00000	102.49914	-315.92410	102.49914
9850.00000	102.35892	-317.44381	102.35892
9900.00000	102.10717	-319.42251	102.10717
9950.00000	102.01501	-320.72026	102.01501
10000.00000	101.93349	-322.55126	101.93349
10050.00000	101.79219	-323.56803	101.79219
10100.00000	101.63946	-324.62355	101.63946
10150.00000	101.36984	-326.20974	101.36984
10200.00000	101.16159	-327.52104	101.16159
10250.00000	100.87534	-329.47138	100.87534
10300.00000	100.76347	-331.52301	100.76347
10350.00000	100.54382	-333.56199	100.54382
10400.00000	100.30970	-336.11346	100.30970
10450.00000	100.30191	-338.60705	100.30191
10500.00000	100.29736	-340.73193	100.29736
10550.00000	100.27043	-342.71138	100.27043
10600.00000	100.19300	-344.27517	100.19300
10650.00000	100.07284	-345.32568	100.07284
10700.00000	99.96557	-347.65009	99.96557
10750.00000	99.83934	-349.44122	99.83934
10800.00000	99.61747	-351.20235	99.61747
10850.00000	99.43185	-354.20549	99.43185
10900.00000	99.27215	-356.32203	99.27215
10950.00000	99.11889	-358.35110	99.11889
11000.00000	98.99006	-360.60412	98.99006
11050.00000	98.72435	-362.82629	98.72435
11100.00000	98.55133	-365.10216	98.55133
11150.00000	98.24915	-366.80608	98.24915
11200.00000	98.07588	-368.36079	98.07588
11250.00000	97.76936	-370.44634	97.76936
11300.00000	97.43155	-372.46851	97.43155
11350.00000	97.16177	-374.02764	97.16177
11400.00000	96.81482	-375.80158	96.81482
11450.00000	96.58978	-378.22726	96.58978
11500.00000	96.49190	-379.21391	96.49190
11550.00000	96.16530	-380.44112	96.16530
11600.00000	96.05946	-382.52325	96.05946
11650.00000	95.83529	-382.73980	95.83529
11700.00000	95.71328	-383.82375	95.71328
11750.00000	95.56190	-385.16159	95.56190
11800.00000	95.40619	-386.80993	95.40619
11850.00000	95.26422	-387.16122	95.26422
11900.00000	94.92583	-389.03499	94.92583
11950.00000	94.80922	-390.07688	94.80922
12000.00000	94.60874	-391.24009	94.60874
12050.00000	94.34925	-392.44035	94.34925
12100.00000	94.25774	-394.69685	94.25774
12150.00000	94.11328	-396.21141	94.11328
12200.00000	94.07969	-397.68881	94.07969
12250.00000	93.97890	-398.74685	93.97890
12300.00000	94.93744	-400.48702	94.93744
12350.00000	93.62697	-401.84294	93.62697
12400.00000	93.43405	-402.71918	93.43405
12450.00000	93.25273	-403.99645	93.25273
12500.00000	93.03953	-406.35701	93.03953
12550.00000	92.93239	-408.13525	92.93239
12600.00000	92.65730	-410.15766	92.65730
12650.00000	92.66609	-412.06805	92.66609
12700.00000	92.38556	-413.20904	92.38556
12750.00000	92.19924	-415.02816	92.19924
12800.00000	91.91391	-416.15295	91.91391
12850.00000	91.40084	-417.50016	91.40084
12900.00000	91.16251	-419.42964	91.16251
12950.00000	90.95550	-421.14242	90.95550
13000.00000	90.61575	-423.20390	90.61575
13050.00000	90.50858	-423.80614	90.50858
13100.00000	90.18542	-425.00215	90.18542
13150.00000	90.02380	-426.93935	90.02380
13200.00000	89.70024	-426.05181	89.70024
13250.00000	89.34600	-426.87759	89.34600
13300.00000	88.93140	-425.82874	88.93140
13350.00000	88.61297	-427.43591	88.61297
13400.00000	88.52398	-428.74034	88.52398
13450.00000	88.03756	-427.81942	88.03756
13500.00000	88.00058	-427.11655	88.00058
13550.00000	87.57383	-427.87047	87.57383
13600.00000	87.35703	-426.29148	87.35703
13650.00000	87.00057	-426.84798	87.00057
13700.00000	86.55791	-427.68710	86.55791
13750.00000	86.32958	-427.24496	86.32958
13800.00000	86.25428	-428.63251	86.25428
13850.00000	86.24317	-428.82753	86.24317
13900.00000	85.87989	-426.90776	85.87989
13950.00000	85.79424	-425.70007	85.79424
14000.00000	85.61539	-423.99664	85.61539
14050.00000	85.36253	-423.78950	85.36253
14100.00000	85.23977	-424.76193	85.23977
14150.00000	85.33304	-424.01123	85.33304
14200.00000	85.39450	-423.84395	85.39450
14250.00000	85.77913	-420.51225	85.77913
14300.00000	85.52256	-420.17198	85.52256
14350.00000	85.35610	-415.92942	85.35610
14400.00000	84.96422	-416.95996	84.96422
14450.00000	84.85078	-415.24884	84.85078
14500.00000	84.87947	-415.73881	84.87947
14550.00000	84.96233	-415.39258	84.96233
14600.00000	84.94316	-415.35214	84.94316
14650.00000	85.21512	-413.62475	85.21512
14700.00000	85.33982	-415.19897	85.33982
14750.00000	85.28394	-412.78223	85.28394
14800.00000	85.15935	-411.67312	85.15935
14850.00000	85.39788	-410.93282	85.39788
14900.00000	85.69048	-411.19389	85.69048
14950.00000	85.94278	-409.92568	85.94278
15000.00000	86.30642	-410.13895	86.30642
15050.00000	86.14047	-406.98418	86.14047
15100.00000	85.97424	-405.33640	85.97424
15150.00000	86.16034	-406.97013	86.16034
15200.00000	86.39961	-405.90582	86.39961
15250.00000	86.46254	-407.43423	86.46254
15300.00000	87.07906	-407.20064	87.07906
15350.00000	87.16175	-405.71398	87.16175
15400.00000	87.14745	-403.38483	87.14745
15450.00000	87.29125	-402.95672	87.29125
15500.00000	87.46676	-401.89066	87.46676
15550.00000	87.74908	-403.24198	87.74908
15600.00000	88.05831	-403.51495	88.05831
15650.00000	88.65759	-400.50496	88.65759
15700.00000	88.81317	-401.41461	88.81317
15750.00000	89.27722	-400.26792	89.27722
15800.00000	89.56113	-398.10907	89.56113
15850.00000	89.88026	-398.99613	89.88026
15900.00000	90.11055	-399.34128	90.11055
15950.00000	90.72798	-399.65903	90.72798
16000.00000	91.20562	-399.72436	91.20562
16050.00000	91.72763	-400.20970	91.72763
16100.00000	91.98209	-399.76911	91.98209
16150.00000	92.33510	-400.20206	92.33510
16200.00000	92.74545	-401.98338	92.74545
16250.00000	93.33743	-403.09726	93.33743
16300.00000	94.07863	-404.90553	94.07863
16350.00000	94.55293	-405.70737	94.55293
16400.00000	95.03370	-405.84705	95.03370
16450.00000	95.39627	-407.23783	95.39627
16500.00000	95.80559	-409.79036	95.80559
16550.00000	96.33129	-412.22543	96.33129
16600.00000	96.81114	-414.57500	96.81114
16650.00000	97.34145	-417.05900	97.34145
16700.00000	97.77458	-418.64067	97.77458
16750.00000	98.08653	-421.47952	98.08653
16800.00000	98.53648	-424.50713	98.53648
16850.00000	98.99699	-427.31835	98.99699
16900.00000	99.38464	-430.74316	99.38464
16950.00000	99.82145	-433.64719	99.82145
17000.00000	100.06096	-436.59644	100.06096
17050.00000	100.41180	-439.14307	100.41180
17100.00000	100.57778	-441.85082	100.57778
17150.00000	100.98599	-445.68720	100.98599
17200.00000	101.28096	-448.99130	101.28096
17250.00000	101.48955	-452.85844	101.48955
17300.00000	101.79178	-455.73401	101.79178
17350.00000	101.88447	-458.68258	101.88447
17400.00000	102.14489	-462.20612	102.14489
17450.00000	102.27216	-465.93056	102.27216
17500.00000	102.52295	-469.29450	102.52295
17550.00000	102.69909	-472.43796	102.69909
17600.00000	102.92552	-474.97740	102.92552
17650.00000	103.04257	-478.89460	103.04257
17700.00000	103.13820	-482.42839	103.13820
17750.00000	103.39099	-485.04412	103.39099
17800.00000	103.41251	-488.73691	103.41251
17850.00000	103.59145	-491.08467	103.59145
17900.00000	103.71077	-494.09235	103.71077
17950.00000	103.86259	-497.60901	103.86259
18000.00000	103.96575	-501.19390	103.96575
18050.00000	104.22376	-503.93495	104.22376
18100.00000	104.31060	-507.48012	104.31060
18150.00000	104.37558	-510.00546	104.37558
18200.00000	104.45503	-513.61407	104.45503
18250.00000	104.58344	-516.09013	104.58344
18300.00000	104.75169	-519.29893	104.75169
18350.00000	104.86394	-522.57767	104.86394
18400.00000	104.93140	-526.05208	104.93140
18450.00000	104.96775	-530.32984	104.96775
18500.00000	105.05708	-533.51496	105.05708
18550.00000	105.09725	-536.31845	105.09725
18600.00000	105.25644	-540.20173	105.25644
18650.00000	105.16337	-543.22781	105.16337
18700.00000	105.16141	-546.72437	105.16141
18750.00000	105.23079	-549.74766	105.23079
18800.00000	105.36342	-552.50943	105.36342
18850.00000	105.23474	-555.98964	105.23474
18900.00000	105.22020	-558.77204	105.22020
18950.00000	105.26832	-562.07481	105.26832
19000.00000	105.11113	-564.46349	105.11113
19050.00000	105.25149	-567.39470	105.25149
19100.00000	105.24636	-570.06507	105.24636
19150.00000	105.37858	-572.57473	105.37858
19200.00000	105.40806	-575.12552	105.40806
19250.00000	105.43909	-578.95341	105.43909
19300.00000	105.41494	-581.03448	105.41494
19350.00000	105.46985	-583.90358	105.46985
19400.00000	105.50576	-586.71868	105.50576
19450.00000	105.65623	-589.18096	105.65623
19500.00000	105.61710	-592.93742	105.61710
19550.00000	105.69576	-595.86085	105.69576
19600.00000	105.80317	-599.40399	105.80317
19650.00000	105.78520	-602.11888	105.78520
19700.00000	105.73397	-605.52278	105.73397
19750.00000	105.75708	-608.11734	105.75708
19800.00000	105.85899	-612.15045	105.85899
19850.00000	105.88548	-615.16640	105.88548
19900.00000	105.82189	-619.31975	105.82189
19950.00000	105.78714	-622.45920	105.78714
20000.00000	105.78249	-625.83074	105.78249
20050.00000	105.73503	-629.16566	105.73503
20100.00000	105.59520	-632.57429	105.59520
20150.00000	105.59227	-635.09700	105.59227
20200.00000	105.46714	-639.07134	105.46714
20250.00000	105.33416	-642.14567	105.33416
20300.00000	105.13653	-645.36866	105.13653
20350.00000	105.09211	-648.65521	105.09211
20400.00000	104.87989	-650.87013	104.87989
20450.00000	104.63974	-653.97218	104.63974
20500.00000	104.54634	-656.95003	104.54634
20550.00000	104.14619	-658.81115	104.14619
20600.00000	104.05478	-661.09967	104.05478
20650.00000	103.87580	-663.28683	103.87580
20700.00000	103.64497	-665.25181	103.64497
20750.00000	103.51739	-667.09785	103.51739
20800.00000	103.29468	-668.44864	103.29468
20850.00000	103.19958	-670.06810	103.19958
20900.00000	103.00296	-671.45089	103.00296
20950.00000	102.87252	-672.09721	102.87252
21000.00000	102.79459	-673.01492	102.79459
21050.00000	102.88246	-673.65729	102.88246
21100.00000	102.83637	-674.36863	102.83637
21150.00000	102.94001	-675.64680	102.94001
21200.00000	103.04990	-676.35650	103.04990
21250.00000	103.13953	-678.82048	103.13953
21300.00000	103.32427	-679.80087	103.32427
21350.00000	103.42731	-681.45951	103.42731
21400.00000	103.54491	-683.71045	103.54491
21450.00000	103.67354	-685.91810	103.67354
21500.00000	103.80300	-688.63591	103.80300
21550.00000	103.80838	-690.75227	103.80838
21600.00000	103.94871	-693.46328	103.94871
21650.00000	103.96540	-696.40459	103.96540
21700.00000	103.96562	-698.80986	103.96562
21750.00000	103.99649	-701.51827	103.99649
21800.00000	103.99811	-704.16307	103.99811
21850.00000	103.91503	-706.37384	103.91503
21900.00000	103.90552	-709.11861	103.90552
21950.00000	103.84343	-711.30181	103.84343
22000.00000	103.85211	-713.55853	103.85211
22050.00000	103.81026	-715.43209	103.81026
22100.00000	103.73060	-717.78072	103.73060
22150.00000	103.66048	-719.78025	103.66048
22200.00000	103.69243	-721.77765	103.69243
22250.00000	103.60604	-723.34126	103.60604
22300.00000	103.49089	-725.79856	103.49089
22350.00000	103.57761	-727.62710	103.57761
22400.00000	103.57418	-729.88226	103.57418
22450.00000	103.50408	-731.50750	103.50408
22500.00000	103.42140	-732.77073	103.42140
22550.00000	103.40802	-734.66260	103.40802
22600.00000	103.38882	-737.34510	103.38882
22650.00000	103.36096	-739.14585	103.36096
22700.00000	103.34580	-740.91569	103.34580
22750.00000	103.35163	-740.72845	103.35163
22800.00000	103.37580	-744.80272	103.37580
22850.00000	103.40940	-747.31353	103.40940
22900.00000	103.41607	-747.97200	103.41607
22950.00000	103.46712	-749.83751	103.46712
23000.00000	103.47379	-751.01944	103.47379
23050.00000	103.39864	-753.75265	103.39864
23100.00000	103.54384	-754.76368	103.54384
23150.00000	103.38393	-755.91069	103.38393
23200.00000	103.54804	-758.85736	103.54804
23250.00000	103.41784	-761.77603	103.41784
23300.00000	103.67485	-763.72185	103.67485
23350.00000	103.40563	-766.21911	103.40563
23400.00000	103.49237	-768.07431	103.49237
23450.00000	103.62943	-770.12102	103.62943
23500.00000	103.49242	-771.44856	103.49242
23550.00000	103.47001	-772.02275	103.47001
23600.00000	103.43860	-776.25274	103.43860
23650.00000	103.53979	-777.58769	103.53979
23700.00000	103.71643	-781.91551	103.71643
23750.00000	103.63194	-782.95861	103.63194
23800.00000	103.48552	-783.74506	103.48552
23850.00000	103.61894	-785.75440	103.61894
23900.00000	103.98992	-787.77452	103.98992
23950.00000	103.64668	-791.20020	103.64668
24000.00000	103.55637	-794.27233	103.55637
24050.00000	103.72453	-795.09545	103.72453
24100.00000	103.93161	-799.11461	103.93161
24150.00000	103.90307	-801.50072	103.90307
24200.00000	103.86423	-805.35442	103.86423
24250.00000	103.53531	-806.15859	103.53531
24300.00000	103.94251	-809.53736	103.94251
24350.00000	103.70829	-811.54748	103.70829
24400.00000	103.57214	-815.27162	103.57214
24450.00000	103.28291	-817.15376	103.28291
24500.00000	103.72637	-818.98092	103.72637
24550.00000	103.45386	-824.04332	103.45386
24600.00000	103.83139	-465.53467	103.83139
24650.00000	103.41613	-109.65890	103.41613
24700.00000	103.22478	250.52790	103.22478
24750.00000	103.18320	605.28598	103.18320
24800.00000	103.13786	963.06542	103.13786
24850.00000	102.67065	1321.78368	102.67065
24900.00000	102.76320	1680.31836	102.76320
24950.00000	102.88065	2034.27064	102.88065
25000.00000	102.61592	2028.68283	102.61592
25050.00000	102.61732	2028.81430	102.61732
25100.00000	101.99889	2026.55414	101.99889
25150.00000	102.12388	2026.47941	102.12388
25200.00000	101.82539	2023.12601	101.82539
25250.00000	101.97487	2022.70853	101.97487
25300.00000	101.80725	2021.39505	101.80725
25350.00000	101.67908	2014.95345	101.67908
25400.00000	101.57229	2011.63309	101.57229
25450.00000	101.51996	2011.74481	101.51996
25500.00000	101.27027	2010.69837	101.27027
25550.00000	101.21750	2007.26126	101.21750
25600.00000	101.20614	2006.09789	101.20614
25650.00000	101.07202	2004.36531	101.07202
25700.00000	101.04709	2001.67875	101.04709
25750.00000	100.81454	1999.85554	100.81454
25800.00000	100.66597	1997.36838	100.66597
25850.00000	100.69441	1995.11236	100.69441
25900.00000	100.65080	1992.05583	100.65080
25950.00000	100.37729	1994.10205	100.37729
26000.00000	100.40480	1989.66048	100.40480
26050.00000	100.37264	1988.13913	100.37264
26100.00000	100.24846	1986.65289	100.24846
26150.00000	100.45076	1984.25340	100.45076
26200.00000	100.41626	1982.50342	100.41626
26250.00000	100.42930	1979.86083	100.42930
26300.00000	100.44977	1978.01725	100.44977
26350.00000	100.04460	1976.81342	100.04460
26400.00000	100.04907	1975.31280	100.04907
26450.00000	100.40281	1971.60157	100.40281
26500.00000	100.25097	1969.58460	100.25097
26550.00000	100.17110	1964.90333	100.17110
26600.00000	100.07125	1963.00785	100.07125
26650.00000	100.29895	1963.39261	100.29895
26700.00000	100.19842	1959.98909	100.19842
26750.00000	100.07782	1957.83372	100.07782
26800.00000	100.00692	1952.36676	100.00692
26850.00000	100.26412	1951.99324	100.26412
26900.00000	100.38755	1950.24072	100.38755
26950.00000	100.50840	1945.40710	100.50840
27000.00000	100.08386	1944.78558	100.08386
27050.00000	100.23859	1941.57056	100.23859
27100.00000	100.16092	1940.77334	100.16092
27150.00000	100.08227	1936.39890	100.08227
27200.00000	100.20067	1933.96715	100.20067
27250.00000	99.78243	1932.31852	99.78243
27300.00000	99.67247	1928.65930	99.67247
27350.00000	99.87416	1928.12725	99.87416
27400.00000	99.49224	1924.23942	99.49224
27450.00000	99.53593	1921.85201	99.53593
27500.00000	99.42936	1919.37897	99.42936
27550.00000	99.53695	1917.32851	99.53695
27600.00000	99.70582	1912.79317	99.70582
27650.00000	99.16739	1912.52936	99.16739
27700.00000	99.26417	1906.52379	99.26417
27750.00000	99.15568	1904.19238	99.15568
27800.00000	99.08058	1899.65250	99.08058
27850.00000	99.21320	1900.24310	99.21320
27900.00000	98.68618	1897.24242	98.68618
27950.00000	97.89388	1894.38106	97.89388
28000.00000	98.09871	1893.69435	98.09871
28050.00000	98.46930	1889.73186	98.46930
28100.00000	97.58317	1887.37246	97.58317
28150.00000	97.69373	1886.27344	97.69373
28200.00000	97.53460	1881.60147	97.53460
28250.00000	97.02416	1878.97371	97.02416
28300.00000	96.71989	1878.47658	96.71989
28350.00000	96.71427	1877.55414	96.71427
28400.00000	96.32485	1876.78794	96.32485
28450.00000	96.84439	1874.01543	96.84439
28500.00000	96.21269	1873.95972	96.21269
28550.00000	95.80845	1874.55192	95.80845
28600.00000	95.86863	1872.64297	95.86863
28650.00000	95.75589	1867.90063	95.75589
28700.00000	95.38261	1870.02542	95.38261
28750.00000	96.01016	1868.37046	96.01016
28800.00000	95.51684	1867.79023	95.51684
28850.00000	94.74384	1864.72008	94.74384
28900.00000	94.80615	1863.76567	94.80615
28950.00000	94.63753	1864.10330	94.63753
29000.00000	94.80059	1863.66605	94.80059
29050.00000	94.34592	1864.72867	94.34592
29100.00000	94.17168	1866.40311	94.17168
29150.00000	94.06146	1864.38483	94.06146
29200.00000	93.76553	1861.81134	93.76553
29250.00000	94.10662	1862.87458	94.10662
29300.00000	93.72541	1861.55512	93.72541
29350.00000	93.99842	1860.50934	93.99842
29400.00000	93.66836	1860.42123	93.66836
29450.00000	93.71117	1861.03604	93.71117
29500.00000	94.18653	1861.21431	94.18653
29550.00000	93.77592	1857.83497	93.77592
29600.00000	93.57226	1859.44909	93.57226
29650.00000	93.72033	1857.80117	93.72033
29700.00000	93.75002	1860.75218	93.75002
29750.00000	93.71587	1861.79612	93.71587
29800.00000	93.60014	1858.94206	93.60014
29850.00000	93.89071	1859.15392	93.89071
29900.00000	93.95939	1860.82006	93.95939
29950.00000	93.28899	1860.40385	93.28899
30000.00000	93.81334	1861.69781	93.81334
30050.00000	93.99750	1860.79899	93.99750
30100.00000	93.79915	1862.34937	93.79915
30150.00000	94.16315	1859.82135	94.16315
30200.00000	94.24318	1859.41144	94.24318
30250.00000	94.15116	1859.84554	94.15116
30300.00000	94.10442	1861.47677	94.10442
30350.00000	94.43734	1863.06962	94.43734
30400.00000	94.51579	1862.00200	94.51579
30450.00000	94.50178	1861.98676	94.50178
30500.00000	94.61245	1861.18993	94.61245
30550.00000	94.91033	1863.60872	94.91033
30600.00000	95.05832	1864.41932	95.05832
30650.00000	95.26600	1864.91860	95.26600
30700.00000	95.60216	1864.64503	95.60216
30750.00000	95.70227	1865.71417	95.70227
30800.00000	96.09227	1866.38547	96.09227
30850.00000	96.54819	1867.35884	96.54819
30900.00000	96.62221	1868.81302	96.62221
30950.00000	97.29008	1867.61601	97.29008
31000.00000	97.80036	1867.25450	97.80036
31050.00000	98.24855	1867.20708	98.24855
31100.00000	98.83478	1867.03681	98.83478
31150.00000	99.13274	1866.70183	99.13274
31200.00000	99.98846	1864.67738	99.98846
31250.00000	100.36911	1863.44834	100.36911
31300.00000	100.95313	1861.21335	100.95313
31350.00000	101.58018	1858.95863	101.58018
31400.00000	101.82009	1855.45030	101.82009
31450.00000	102.40918	1853.12875	102.40918
31500.00000	102.75370	1849.12978	102.75370
31550.00000	103.23284	1846.64021	103.23284
31600.00000	103.75555	1841.75224	103.75555
31650.00000	103.95600	1838.29729	103.95600
31700.00000	104.35574	1834.98263	104.35574
31750.00000	104.65630	1832.46202	104.65630
31800.00000	104.90654	1827.90205	104.90654
31850.00000	105.19960	1822.71990	105.19960
31900.00000	105.22849	1819.34906	105.22849
31950.00000	105.44210	1815.62789	105.44210
32000.00000	105.62469	1811.31395	105.62469
32050.00000	105.85870	1806.99946	105.85870
32100.00000	105.88909	1803.36497	105.88909
32150.00000	106.06588	1800.00437	106.06588
32200.00000	106.18669	1795.70275	106.18669
32250.00000	106.18861	1790.97605	106.18861
32300.00000	106.22315	1787.42228	106.22315
32350.00000	106.15897	1783.94588	106.15897
32400.00000	106.39110	1780.78709	106.39110
32450.00000	106.24445	1776.65489	106.24445
32500.00000	106.21313	1773.17659	106.21313
32550.00000	106.26125	1769.24537	106.26125
32600.00000	106.14609	1766.43611	106.14609
32650.00000	106.20078	1763.12539	106.20078
32700.00000	106.07932	1759.56218	106.07932
32750.00000	106.00294	1755.29499	106.00294
32800.00000	106.18547	1752.56268	106.18547
32850.00000	106.06220	1749.94382	106.06220
32900.00000	105.93638	1745.60977	105.93638
32950.00000	105.73695	1741.57664	105.73695
33000.00000	105.71181	1740.99132	105.71181
33050.00000	105.66205	1735.99922	105.66205
33100.00000	105.62156	1733.61876	105.62156
33150.00000	105.33561	1731.23578	105.33561
33200.00000	105.63647	1729.32975	105.63647
33250.00000	105.43514	1725.69911	105.43514
33300.00000	105.21385	1722.74231	105.21385
33350.00000	105.19274	1719.80064	105.19274
33400.00000	105.11465	1718.22652	105.11465
33450.00000	105.10506	1715.35834	105.10506
33500.00000	105.21872	1714.59682	105.21872
33550.00000	104.81393	1709.20159	104.81393
33600.00000	104.99849	1707.99254	104.99849
33650.00000	104.79813	1706.73718	104.79813
33700.00000	104.91661	1704.66665	104.91661
33750.00000	104.58526	1701.17287	104.58526
33800.00000	104.67685	1698.40109	104.67685
33850.00000	104.28547	1698.04820	104.28547
33900.00000	104.44742	1695.01801	104.44742
33950.00000	104.52100	1692.76111	104.52100
34000.00000	104.51942	1691.78082	104.51942
34050.00000	104.40183	1689.79894	104.40183
34100.00000	104.23084	1688.88757	104.23084
34150.00000	104.26146	1685.87736	104.26146
34200.00000	104.33794	1685.84263	104.33794
34250.00000	104.43877	1682.87614	104.43877
34300.00000	104.34932	1680.90456	104.34932
34350.00000	104.48969	1679.31433	104.48969
34400.00000	103.84865	1677.23545	103.84865
34450.00000	104.11180	1673.32953	104.11180
34500.00000	104.05097	1673.85017	104.05097
34550.00000	104.29380	1672.25946	104.29380
34600.00000	104.12064	1669.03100	104.12064
34650.00000	104.55710	1670.66601	104.55710
34700.00000	104.09366	1668.53390	104.09366
34750.00000	104.09999	1663.90728	104.09999
34800.00000	104.43094	1665.71790	104.43094
34850.00000	104.43290	1665.88354	104.43290
34900.00000	104.86362	1661.06073	104.86362
34950.00000	104.74397	1661.16471	104.74397
35000.00000	104.73953	1659.14049	104.73953
35050.00000	104.74771	1659.18815	104.74771
35100.00000	105.05667	1656.58175	105.05667
35150.00000	104.85968	1656.51431	104.85968
35200.00000	105.07239	1653.88512	105.07239
35250.00000	104.97851	1652.00072	104.97851
35300.00000	105.26510	1650.85426	105.26510
35350.00000	105.64499	1648.01493	105.64499
35400.00000	105.42006	1648.49561	105.42006
35450.00000	105.55650	1646.70079	105.55650
35500.00000	105.41234	1645.92742	105.41234
35550.00000	105.75372	1644.98550	105.75372
35600.00000	105.78200	1643.39749	105.78200
35650.00000	106.00374	1642.31507	106.00374
35700.00000	106.03818	1640.16427	106.03818
35750.00000	106.12214	1639.26661	106.12214
35800.00000	106.34553	1640.39639	106.34553
35850.00000	106.57202	1638.98512	106.57202
35900.00000	106.37536	1637.75792	106.37536
35950.00000	106.98023	1635.01791	106.98023
36000.00000	107.27627	1633.55156	107.27627
36050.00000	107.46550	1633.42415	107.46550
36100.00000	107.79521	1631.89944	107.79521
36150.00000	107.80623	1629.73765	107.80623
36200.00000	108.22211	1628.73621	108.22211
36250.00000	108.35307	1626.92823	108.35307
36300.00000	108.58838	1625.54344	108.58838
36350.00000	109.07795	1623.71929	109.07795
36400.00000	109.48870	1622.84503	109.48870
36450.00000	109.31571	1621.08040	109.31571
36500.00000	109.96499	1619.35554	109.96499
36550.00000	110.04495	1616.44158	110.04495
36600.00000	110.41952	1614.57840	110.41952
36650.00000	110.78420	1612.06850	110.78420
36700.00000	111.19247	1608.50910	111.19247
36750.00000	111.28420	1605.41813	111.28420
36800.00000	111.54596	1604.09570	111.54596
36850.00000	111.68323	1601.54241	111.68323
36900.00000	112.25800	1598.65916	112.25800
36950.00000	112.22972	1595.50494	112.22972
37000.00000	112.13213	1594.05812	112.13213
37050.00000	112.40510	1590.59966	112.40510
37100.00000	112.87993	1587.26339	112.87993
37150.00000	113.03848	1583.98853	113.03848
37200.00000	113.41240	1581.20756	113.41240
37250.00000	113.20175	1578.19816	113.20175
37300.00000	113.49913	1575.21600	113.49913
37350.00000	113.85472	1572.69839	113.85472
37400.00000	113.84665	1569.72721	113.84665
37450.00000	113.89691	1566.14397	113.89691
37500.00000	114.20519	1561.87198	114.20519
37550.00000	114.08150	1560.29055	114.08150
37600.00000	114.39947	1556.92430	114.39947
37650.00000	114.40676	1554.19993	114.40676
37700.00000	114.69326	1550.13104	114.69326
37750.00000	114.73364	1547.62102	114.73364
37800.00000	114.73635	1543.75182	114.73635
37850.00000	114.98359	1539.06729	114.98359
37900.00000	115.04334	1536.11027	115.04334
37950.00000	115.15429	1533.85141	115.15429
38000.00000	115.12450	1531.52222	115.12450
38050.00000	115.41030	1527.59871	115.41030
38100.00000	115.63524	1523.36256	115.63524
38150.00000	115.59277	1518.95368	115.59277
38200.00000	115.84358	1515.39025	115.84358
38250.00000	115.91352	1511.96824	115.91352
38300.00000	116.10155	1507.80182	116.10155
38350.00000	116.22953	1504.54657	116.22953
38400.00000	116.38980	1499.99930	116.38980
38450.00000	116.46006	1495.09190	116.46006
38500.00000	116.65874	1491.02139	116.65874
38550.00000	116.88549	1487.22945	116.88549
38600.00000	117.01814	1482.35892	117.01814
38650.00000	117.12922	1477.87409	117.12922
38700.00000	117.23510	1472.74602	117.23510
38750.00000	117.35938	1467.96726	117.35938
38800.00000	117.49858	1463.01073	117.49858
38850.00000	117.62182	1458.04244	117.62182
38900.00000	117.68390	1453.20326	117.68390
38950.00000	117.70928	1447.21164	117.70928
39000.00000	117.71578	1441.73296	117.71578
39050.00000	117.83202	1436.27223	117.83202
39100.00000	117.64400	1430.58877	117.64400
39150.00000	117.56647	1424.75746	117.56647
39200.00000	117.57742	1419.37693	117.57742
39250.00000	117.41492	1413.58989	117.41492
39300.00000	117.24346	1407.80540	117.24346
39350.00000	117.04403	1402.85229	117.04403
39400.00000	116.84341	1397.08117	116.84341
39450.00000	116.57625	1392.10134	116.57625
39500.00000	116.33908	1387.09888	116.33908
39550.00000	115.93285	1381.63872	115.93285
39600.00000	115.61840	1377.29519	115.61840
39650.00000	115.29704	1373.03248	115.29704
39700.00000	114.90617	1368.91651	114.90617
39750.00000	114.60236	1364.27379	114.60236
39800.00000	114.24700	1359.97719	114.24700
39850.00000	113.83166	1356.38600	113.83166
39900.00000	113.44147	1353.29665	113.44147
39950.00000	113.08612	1349.36564	113.08612
40000.00000	112.61636	1347.27522	112.61636
40050.00000	112.26109	1343.38136	112.26109
40100.00000	111.89505	1340.42862	111.89505
40150.00000	111.53830	1337.05615	111.53830
40200.00000	111.19750	1334.88672	111.19750
40250.00000	110.85088	1332.31240	110.85088
40300.00000	110.50875	1330.13429	110.50875
40350.00000	109.97056	1328.13276	109.97056
40400.00000	109.66444	1326.46020	109.66444
40450.00000	109.35242	1324.83142	109.35242
40500.00000	109.17375	1323.05226	109.17375
40550.00000	108.74428	1321.15498	108.74428
40600.00000	108.43887	1319.83569	108.43887
40650.00000	108.12520	1318.27115	108.12520
40700.00000	107.78029	1317.62004	107.78029
40750.00000	107.73452	1317.14244	107.73452
40800.00000	107.28290	1315.16091	107.28290
40850.00000	107.07915	1314.85203	107.07915
40900.00000	106.71984	1313.41496	106.71984
40950.00000	106.45341	1313.51382	106.45341
41000.00000	106.10125	1313.07304	106.10125
41050.00000	105.94030	1312.31347	105.94030
41100.00000	105.88120	1310.61997	105.88120
41150.00000	105.88774	1312.34084	105.88774
41200.00000	105.63282	1311.54550	105.63282
41250.00000	105.26272	1310.14051	105.26272
41300.00000	105.06001	1311.96287	105.06001
41350.00000	104.89078	1312.62189	104.89078
41400.00000	104.76351	1308.20385	104.76351
41450.00000	104.84875	1311.58880	104.84875
41500.00000	104.73128	1309.62360	104.73128
41550.00000	104.22483	1314.01419	104.22483
41600.00000	103.97545	1312.75038	103.97545
41650.00000	104.31518	1312.01389	104.31518
41700.00000	104.21662	1314.06153	104.21662
41750.00000	103.83662	1316.56083	103.83662
41800.00000	102.91769	1312.99976	102.91769
41850.00000	102.83498	1315.61288	102.83498
41900.00000	102.62553	1315.63011	102.62553
41950.00000	103.84431	1322.43525	103.84431
42000.00000	102.74382	1314.32774	102.74382
42050.00000	102.08204	1314.14019	102.08204
42100.00000	101.89028	1316.75468	101.89028
42150.00000	101.76453	1314.30978	101.76453
42200.00000	101.67714	1318.02420	101.67714
42250.00000	101.66716	1323.25119	101.66716
42300.00000	100.46912	1319.45918	100.46912
42350.00000	101.04481	1321.68090	101.04481
42400.00000	100.92919	1323.90635	100.92919
42450.00000	101.23447	1321.11154	101.23447
42500.00000	100.54980	1322.70339	100.54980
42550.00000	100.52331	1332.52324	100.52331
42600.00000	100.36584	1325.95154	100.36584
42650.00000	99.81411	1332.33915	99.81411
42700.00000	100.19213	1330.64672	100.19213
42750.00000	100.90151	1327.07197	100.90151
42800.00000	100.05662	1314.70140	100.05662
42850.00000	100.15676	1319.26173	100.15676
42900.00000	101.47038	1322.31865	101.47038
42950.00000	100.82129	1321.45882	100.82129
43000.00000	101.45448	1308.12783	101.45448
43050.00000	101.30311	1308.38121	101.30311
43100.00000	101.82333	1314.07913	101.82333
43150.00000	100.71499	1308.66383	100.71499
43200.00000	101.62919	1303.90453	101.62919
43250.00000	101.57383	1298.95773	101.57383
43300.00000	102.07791	1296.32194	102.07791
43350.00000	102.45212	1292.00978	102.45212
43400.00000	102.05571	1285.49409	102.05571
43450.00000	103.86914	1287.59832	103.86914
43500.00000	102.56132	1275.49752	102.56132
43550.00000	103.56881	1273.63113	103.56881
43600.00000	102.85985	1269.32293	102.85985
43650.00000	103.67991	1257.74344	103.67991
43700.00000	103.62087	1260.15074	103.62087
43750.00000	103.13737	1256.77910	103.13737
43800.00000	103.97040	1246.30039	103.97040
43850.00000	104.15452	1239.76843	104.15452
43900.00000	104.76222	1237.50562	104.76222
43950.00000	105.00034	1230.21626	105.00034
44000.00000	104.71727	1222.59211	104.71727
44050.00000	105.06781	1220.40884	105.06781
44100.00000	105.46622	1206.91902	105.46622
44150.00000	105.50126	1205.70783	105.50126
44200.00000	105.36939	1203.35266	105.36939
44250.00000	105.95798	1196.08682	105.95798
44300.00000	106.02149	1186.70209	106.02149
44350.00000	105.05000	1180.37589	105.05000
44400.00000	106.07609	1178.02585	106.07609
44450.00000	106.03493	1172.47643	106.03493
44500.00000	105.89100	1168.62204	105.89100
44550.00000	107.30312	1157.66718	107.30312
44600.00000	105.74354	1159.24670	105.74354
44650.00000	105.74625	1149.19764	105.74625
44700.00000	105.75844	1145.97829	105.75844
44750.00000	105.71830	1143.73362	105.71830
44800.00000	106.34183	1137.39115	106.34183
44850.00000	105.85285	1128.96801	105.85285
44900.00000	105.33760	1126.03485	105.33760
44950.00000	105.63031	1119.44949	105.63031
45000.00000	105.30891	1109.37978	105.30891
45050.00000	104.00138	1116.78854	104.00138
45100.00000	104.47433	1106.08438	104.47433
45150.00000	104.36164	1094.47759	104.36164
45200.00000	103.97206	1099.13386	103.97206
45250.00000	103.94702	1095.66001	103.94702
45300.00000	103.36584	1087.34967	103.36584
45350.00000	103.16415	1081.80540	103.16415
45400.00000	102.73756	1078.46434	102.73756
45450.00000	102.77455	1072.15579	102.77455
45500.00000	101.46322	1068.08878	101.46322
45550.00000	101.20569	1073.31703	101.20569
45600.00000	102.77208	1061.36374	102.77208
45650.00000	100.37735	1055.75870	100.37735
45700.00000	100.28708	1057.69721	100.28708
45750.00000	101.07243	1061.37012	101.07243
45800.00000	99.76277	1047.71895	99.76277
45850.00000	99.62549	1047.55706	99.62549
45900.00000	99.23668	1046.45348	99.23668
45950.00000	98.67742	1044.26976	98.67742
46000.00000	96.97904	1032.47772	96.97904
46050.00000	97.68800	1032.97040	97.68800
46100.00000	96.32631	1035.18835	96.32631
46150.00000	95.71350	1037.74178	95.71350
46200.00000	94.74188	1019.06290	94.74188
46250.00000	95.25707	1026.92402	95.25707
46300.00000	94.41759	1027.06487	94.41759
46350.00000	95.28156	1023.26667	95.28156
46400.00000	93.43035	1020.33431	93.43035
46450.00000	91.91069	1017.93243	91.91069
46500.00000	93.39517	1023.29525	93.39517
46550.00000	92.85990	1024.34635	92.85990
46600.00000	93.18276	1028.11830	93.18276
46650.00000	90.53218	1020.85597	90.53218
46700.00000	90.03865	1034.41358	90.03865
46750.00000	90.90968	1043.15950	90.90968
46800.00000	88.67460	1029.31058	88.67460
46850.00000	90.17210	685.03726	90.17210
46900.00000	89.52602	684.87313	89.52602
46950.00000	90.93091	680.55943	90.93091
47000.00000	90.79286	685.44933	90.79286
47050.00000	92.12128	675.87855	92.12128
47100.00000	91.25267	676.07917	91.25267
47150.00000	92.12998	682.28351	92.12998
47200.00000	91.12641	678.74883	91.12641
47250.00000	92.55244	672.20726	92.55244
47300.00000	92.06301	664.41003	92.06301
47350.00000	91.89414	313.62606	91.89414
47400.00000	90.97748	314.07305	90.97748
47450.00000	92.56059	319.72470	92.56059
47500.00000	90.36046	301.77946	90.36046
47550.00000	90.52710	-47.88727	90.52710
47600.00000	91.05551	-50.16033	91.05551
47650.00000	92.49935	-53.49649	92.49935
47700.00000	91.28915	-59.35577	91.28915
47750.00000	89.95344	-54.69519	89.95344
47800.00000	91.04459	-73.37760	91.04459
47850.00000	91.40974	-419.23996	91.40974
47900.00000	91.10047	-774.00043	91.10047
47950.00000	90.83819	-775.13153	90.83819
48000.00000	90.83443	-769.95142	90.83443
48050.00000	91.49504	-778.60563	91.49504
48100.00000	90.92755	-784.76516	90.92755
48150.00000	90.82230	-1134.55266	90.82230
48200.00000	90.60340	-1134.06837	90.60340
48250.00000	90.18661	-1138.00880	90.18661
48300.00000	90.79032	-1146.54096	90.79032
48350.00000	91.47181	-1155.30371	91.47181
48400.00000	92.51611	-1493.90603	92.51611
48450.00000	92.22898	-1499.76206	92.22898
48500.00000	91.87769	-1503.70457	91.87769
48550.00000	90.81281	-1509.78844	90.81281
48600.00000	92.08874	-1862.30720	92.08874
48650.00000	93.35483	-1863.53133	93.35483
48700.00000	93.60972	-1874.04236	93.60972
48750.00000	91.84444	-2225.02318	91.84444
48800.00000	92.68622	-2236.82629	92.68622
48850.00000	92.42393	-2242.47073	92.42393
48900.00000	91.88551	-2600.90382	91.88551
48950.00000	93.34660	-2607.72039	93.34660
49000.00000	94.11451	-2610.32454	94.11451
49050.00000	92.46391	-2611.90060	92.46391
49100.00000	92.19980	-2973.60284	92.19980
49150.00000	92.68029	-3326.04258	92.68029
49200.00000	92.01500	-3342.90139	92.01500
49250.00000	92.55904	-3694.40138	92.55904
49300.00000	93.23992	-3350.30839	93.23992
49350.00000	91.42300	-3325.25282	91.42300
49400.00000	91.24243	-2982.72121	91.24243
49450.00000	90.44809	-2645.64992	90.44809
49500.00000	87.96354	-2272.81488	87.96354
49550.00000	90.12616	-1921.92155	90.12616
49600.00000	90.80816	-1903.84342	90.80816
49650.00000	89.43929	-1904.82808	89.43929
49700.00000	90.61863	-1567.09393	90.61863
49750.00000	92.29176	-1576.42467	92.29176
49800.00000	87.70682	-1556.19924	87.70682
49850.00000	89.11657	-1545.56014	89.11657
49900.00000	91.22673	-1193.33936	91.22673
49950.00000	90.43438	-850.16947	90.43438
