---ACOUSTIC CALIBRATION---
Filename: C:\Data\AZH DATA\AZH62\RightSecondary.calib
Date: 8/27/2019 4:13:32 PM
Format: 4
Probe Tube Correction File: C:\Data\Probe Tube Calibrations\50_ProbeTube.calib
Experiment VIs: 850
EPL_CFTS.exe V12.0.1 (2012)
DAQmx V9.6

Attenuation (dB): 40.000000
Min Freq (Hz): 50.000000
Max Freq (Hz): 49950.000000
Freq Step (Hz): 50.000000
Sample Rate (Hz): 100000.000000
[Smoothing]
Method=None
MA.Iterations=0
MA.Length=0
Loess.Length=0
Loess.Type=Linear
Loess.Robust=FALSE


Freq(Hz)	Mag(dB)	Phase(deg)	Unsmoothed(dB)

50.00000	97.52136	442.87834	97.52136
100.00000	80.48762	386.49275	80.48762
150.00000	65.62644	448.04501	65.62644
200.00000	69.19050	445.57477	69.19050
250.00000	67.35245	349.70660	67.35245
300.00000	75.13723	182.86078	75.13723
350.00000	57.19204	327.94072	57.19204
400.00000	72.73113	254.06095	72.73113
450.00000	57.98466	258.34246	57.98466
500.00000	68.56952	369.47493	68.56952
550.00000	49.89758	341.79714	49.89758
600.00000	75.30654	177.87395	75.30654
650.00000	64.51709	176.85781	64.51709
700.00000	79.91695	220.20936	79.91695
750.00000	71.75303	184.37102	71.75303
800.00000	74.93443	278.19719	74.93443
850.00000	63.43799	198.95420	63.43799
900.00000	68.81012	118.24907	68.81012
950.00000	63.22612	123.56958	63.22612
1000.00000	72.86399	215.17736	72.86399
1050.00000	63.05104	175.07093	63.05104
1100.00000	63.89260	314.31126	63.89260
1150.00000	61.64461	233.36842	61.64461
1200.00000	68.51574	170.24634	68.51574
1250.00000	63.84592	157.20528	63.84592
1300.00000	71.49376	245.22933	71.49376
1350.00000	72.12419	196.07048	72.12419
1400.00000	69.00373	57.87820	69.00373
1450.00000	68.32849	211.32878	68.32849
1500.00000	71.47486	108.53034	71.47486
1550.00000	69.58898	176.92653	69.58898
1600.00000	64.15984	162.88036	64.15984
1650.00000	72.66163	165.29425	72.66163
1700.00000	70.86668	77.04877	70.86668
1750.00000	65.60911	178.79463	65.60911
1800.00000	75.57447	156.69913	75.57447
1850.00000	72.13304	129.70058	72.13304
1900.00000	68.38603	147.12442	68.38603
1950.00000	69.87895	137.49357	69.87895
2000.00000	75.81733	133.23456	75.81733
2050.00000	63.77773	81.72886	63.77773
2100.00000	70.55614	181.31302	70.55614
2150.00000	72.19636	86.34198	72.19636
2200.00000	71.08336	50.88105	71.08336
2250.00000	66.53083	102.34923	66.53083
2300.00000	70.59311	98.10521	70.59311
2350.00000	68.96498	58.11973	68.96498
2400.00000	68.87944	-0.98572	68.87944
2450.00000	70.06083	81.03205	70.06083
2500.00000	70.96180	30.01606	70.96180
2550.00000	62.00499	61.91739	62.00499
2600.00000	65.19066	44.45840	65.19066
2650.00000	66.80281	62.93695	66.80281
2700.00000	65.85800	24.40648	65.85800
2750.00000	56.33319	120.98372	56.33319
2800.00000	53.39334	33.07169	53.39334
2850.00000	47.63160	63.78437	47.63160
2900.00000	57.89733	141.33223	57.89733
2950.00000	54.48010	301.60036	54.48010
3000.00000	53.59843	217.40209	53.59843
3050.00000	55.12445	377.01597	55.12445
3100.00000	60.88463	387.65688	60.88463
3150.00000	58.93530	420.96954	58.93530
3200.00000	63.34467	457.91643	63.34467
3250.00000	52.53439	588.07847	52.53439
3300.00000	58.87530	473.08773	58.87530
3350.00000	47.46268	336.33653	47.46268
3400.00000	65.94652	534.23654	65.94652
3450.00000	60.54560	468.42337	60.54560
3500.00000	66.89870	530.66111	66.89870
3550.00000	63.83128	489.41227	63.83128
3600.00000	67.19259	458.77589	67.19259
3650.00000	69.60290	456.82664	69.60290
3700.00000	66.66373	425.73511	66.66373
3750.00000	68.05295	452.26141	68.05295
3800.00000	72.60709	455.21665	72.60709
3850.00000	74.10990	456.60980	74.10990
3900.00000	73.34656	442.68277	73.34656
3950.00000	73.65843	446.36291	73.65843
4000.00000	72.27228	413.56127	72.27228
4050.00000	75.47781	419.44468	75.47781
4100.00000	75.54316	435.32769	75.54316
4150.00000	76.78751	412.10530	76.78751
4200.00000	79.49661	392.64004	79.49661
4250.00000	78.99700	390.36025	78.99700
4300.00000	79.50215	372.98911	79.50215
4350.00000	78.84901	372.26149	78.84901
4400.00000	78.85259	362.97383	78.85259
4450.00000	79.21645	345.04260	79.21645
4500.00000	80.74574	344.46562	80.74574
4550.00000	76.54517	316.33219	76.54517
4600.00000	75.29245	305.23144	75.29245
4650.00000	75.78871	315.46216	75.78871
4700.00000	76.03430	306.39007	76.03430
4750.00000	74.52728	302.46432	74.52728
4800.00000	74.47185	296.33766	74.47185
4850.00000	72.29706	295.47629	72.29706
4900.00000	73.76748	288.04807	73.76748
4950.00000	69.24022	262.58668	69.24022
5000.00000	71.79585	279.69942	71.79585
5050.00000	68.33536	277.11928	68.33536
5100.00000	66.15715	271.69757	66.15715
5150.00000	69.77694	279.40404	69.77694
5200.00000	65.40921	304.39381	65.40921
5250.00000	68.80376	296.82395	68.80376
5300.00000	70.63338	305.66609	70.63338
5350.00000	69.55334	314.45495	69.55334
5400.00000	72.66948	258.93190	72.66948
5450.00000	68.44185	277.77685	68.44185
5500.00000	69.95508	266.39374	69.95508
5550.00000	69.14792	264.85215	69.14792
5600.00000	68.09966	264.64984	68.09966
5650.00000	69.14236	263.57376	69.14236
5700.00000	68.99806	271.37637	68.99806
5750.00000	61.43637	283.96059	61.43637
5800.00000	72.25839	243.22494	72.25839
5850.00000	69.50162	276.41017	69.50162
5900.00000	66.58336	264.65936	66.58336
5950.00000	69.90162	228.34127	69.90162
6000.00000	65.80189	270.70263	65.80189
6050.00000	69.99203	199.23482	69.99203
6100.00000	65.20133	250.93046	65.20133
6150.00000	68.02059	236.28468	68.02059
6200.00000	64.91279	253.25596	64.91279
6250.00000	69.01301	241.10775	69.01301
6300.00000	65.94697	234.97762	65.94697
6350.00000	69.83527	234.02811	69.83527
6400.00000	61.74217	222.29402	61.74217
6450.00000	68.16737	223.43490	68.16737
6500.00000	63.51751	238.86981	63.51751
6550.00000	68.11242	218.27262	68.11242
6600.00000	66.68871	232.05470	66.68871
6650.00000	66.12254	229.09406	66.12254
6700.00000	67.40446	210.13375	67.40446
6750.00000	64.26064	226.47001	64.26064
6800.00000	66.89014	217.86538	66.89014
6850.00000	67.65946	212.64653	67.65946
6900.00000	66.08950	195.76268	66.08950
6950.00000	69.21813	214.01241	69.21813
7000.00000	67.87364	187.30293	67.87364
7050.00000	66.33569	206.19198	66.33569
7100.00000	66.84758	198.52395	66.84758
7150.00000	64.47133	201.84658	64.47133
7200.00000	68.30865	187.22982	68.30865
7250.00000	66.86490	191.89223	66.86490
7300.00000	65.30109	193.05221	65.30109
7350.00000	65.84947	185.94777	65.84947
7400.00000	66.25288	179.87255	66.25288
7450.00000	65.61029	185.43653	65.61029
7500.00000	67.06392	178.94633	67.06392
7550.00000	66.91409	173.80925	66.91409
7600.00000	66.42586	167.25903	66.42586
7650.00000	65.86367	171.68961	65.86367
7700.00000	67.42763	174.30822	67.42763
7750.00000	65.64493	161.75639	65.64493
7800.00000	64.86260	159.50300	64.86260
7850.00000	64.62789	159.25128	64.62789
7900.00000	66.53529	151.35606	66.53529
7950.00000	64.56857	149.34486	64.56857
8000.00000	66.40919	145.11611	66.40919
8050.00000	65.85009	154.77944	65.85009
8100.00000	64.65576	140.73251	64.65576
8150.00000	65.60669	135.19974	65.60669
8200.00000	65.49233	128.88190	65.49233
8250.00000	64.31671	133.29710	64.31671
8300.00000	64.93743	130.89981	64.93743
8350.00000	64.42313	120.01844	64.42313
8400.00000	63.22656	109.55400	63.22656
8450.00000	64.42185	113.06011	64.42185
8500.00000	62.65490	105.52531	62.65490
8550.00000	63.30751	112.72819	63.30751
8600.00000	61.41843	99.69397	61.41843
8650.00000	61.67103	110.88332	61.67103
8700.00000	62.23137	93.30125	62.23137
8750.00000	62.23372	94.20731	62.23372
8800.00000	61.98069	95.96938	61.98069
8850.00000	61.24804	93.82964	61.24804
8900.00000	61.54268	92.43786	61.54268
8950.00000	61.25150	93.08438	61.25150
9000.00000	59.00878	87.57804	59.00878
9050.00000	60.58199	83.30271	60.58199
9100.00000	59.15081	82.40872	59.15081
9150.00000	57.45972	91.42217	57.45972
9200.00000	59.78763	63.85319	59.78763
9250.00000	59.35636	77.91136	59.35636
9300.00000	58.51148	80.07307	58.51148
9350.00000	59.58797	72.53724	59.58797
9400.00000	57.49447	77.59021	57.49447
9450.00000	57.67074	79.86433	57.67074
9500.00000	57.28664	73.13204	57.28664
9550.00000	57.09513	54.84248	57.09513
9600.00000	54.28208	75.57876	54.28208
9650.00000	57.24952	70.72000	57.24952
9700.00000	55.94157	72.44301	55.94157
9750.00000	55.94466	64.54893	55.94466
9800.00000	58.22533	60.90422	58.22533
9850.00000	57.43791	61.91002	57.43791
9900.00000	57.77535	65.37521	57.77535
9950.00000	55.05427	74.49834	55.05427
10000.00000	56.19942	50.94585	56.19942
10050.00000	56.51017	57.40518	56.51017
10100.00000	56.60067	48.89473	56.60067
10150.00000	53.23987	46.70927	53.23987
10200.00000	53.87337	53.58841	53.87337
10250.00000	57.41446	40.00461	57.41446
10300.00000	54.25269	39.81366	54.25269
10350.00000	53.87793	38.53085	53.87793
10400.00000	55.72073	46.56959	55.72073
10450.00000	55.19762	36.80143	55.19762
10500.00000	52.94767	37.50929	52.94767
10550.00000	54.83281	34.72563	54.83281
10600.00000	52.87017	32.98359	52.87017
10650.00000	54.19333	33.11796	54.19333
10700.00000	53.42289	23.79444	53.42289
10750.00000	55.76022	33.27737	55.76022
10800.00000	53.58773	24.00005	53.58773
10850.00000	52.54280	26.33800	52.54280
10900.00000	51.50205	21.04141	51.50205
10950.00000	54.60953	24.48047	54.60953
11000.00000	53.11093	21.56089	53.11093
11050.00000	53.53417	19.74056	53.53417
11100.00000	52.60908	19.61736	52.60908
11150.00000	52.46412	10.42990	52.46412
11200.00000	52.52956	17.27639	52.52956
11250.00000	52.42148	13.93920	52.42148
11300.00000	52.03073	20.72423	52.03073
11350.00000	51.86105	 1.32869	51.86105
11400.00000	50.92437	 8.68283	50.92437
11450.00000	50.29468	 1.01199	50.29468
11500.00000	50.81309	14.36190	50.81309
11550.00000	49.35069	 7.90383	49.35069
11600.00000	51.55313	12.86059	51.55313
11650.00000	50.51716	 3.52049	50.51716
11700.00000	50.46895	 8.03702	50.46895
11750.00000	51.11377	-9.96816	51.11377
11800.00000	50.87046	 3.07960	50.87046
11850.00000	52.93798	-3.44150	52.93798
11900.00000	49.78120	 4.47587	49.78120
11950.00000	51.90592	-6.58902	51.90592
12000.00000	47.77339	-6.03628	47.77339
12050.00000	50.64718	-17.20915	50.64718
12100.00000	49.71958	-8.02736	49.71958
12150.00000	48.99322	-17.54259	48.99322
12200.00000	52.13134	-5.54007	52.13134
12250.00000	51.89564	-1.29284	51.89564
12300.00000	50.01985	-12.71195	50.01985
12350.00000	47.93650	-6.35585	47.93650
12400.00000	49.91357	-10.76512	49.91357
12450.00000	51.17124	-16.08320	51.17124
12500.00000	49.93905	-11.75231	49.93905
12550.00000	48.31650	-39.72275	48.31650
12600.00000	48.88470	-15.28576	48.88470
12650.00000	49.36266	-16.20856	49.36266
12700.00000	46.10319	-37.69522	46.10319
12750.00000	50.56826	-33.93689	50.56826
12800.00000	49.83188	-28.41649	49.83188
12850.00000	49.01947	-53.00545	49.01947
12900.00000	49.61696	-40.13372	49.61696
12950.00000	48.41656	-64.30488	48.41656
13000.00000	51.43746	-41.96864	51.43746
13050.00000	50.38903	-40.82177	50.38903
13100.00000	44.88006	-53.23160	44.88006
13150.00000	45.02617	-33.61987	45.02617
13200.00000	49.78493	-35.64041	49.78493
13250.00000	50.23938	-53.70753	50.23938
13300.00000	48.89416	-67.74196	48.89416
13350.00000	48.82861	-29.39729	48.82861
13400.00000	46.66108	-53.65006	46.66108
13450.00000	47.72081	-80.05063	47.72081
13500.00000	46.34442	-44.01846	46.34442
13550.00000	44.68139	-18.76196	44.68139
13600.00000	45.17130	-2.78517	45.17130
13650.00000	45.73994	-69.30763	45.73994
13700.00000	44.21615	-30.12166	44.21615
13750.00000	47.45731	-19.76212	47.45731
13800.00000	38.76587	-27.64510	38.76587
13850.00000	40.41818	-41.73878	40.41818
13900.00000	49.77648	-64.31637	49.77648
13950.00000	44.12636	-15.07474	44.12636
14000.00000	50.80978	-70.63361	50.80978
14050.00000	44.24885	 2.16971	44.24885
14100.00000	45.91135	12.50438	45.91135
14150.00000	45.12195	232.82399	45.12195
14200.00000	35.81707	193.69907	35.81707
14250.00000	51.17755	306.17142	51.17755
14300.00000	38.98113	490.66699	38.98113
14350.00000	51.59267	611.57686	51.59267
14400.00000	47.61817	671.55642	47.61817
14450.00000	41.30360	624.44182	41.30360
14500.00000	49.06646	616.82198	49.06646
14550.00000	47.56439	728.84279	47.56439
14600.00000	41.96827	720.43782	41.96827
14650.00000	37.86708	1004.17279	37.86708
14700.00000	49.89779	1017.45955	49.89779
14750.00000	38.06277	1014.82408	38.06277
14800.00000	27.54520	1141.08941	27.54520
14850.00000	40.43217	1368.13678	40.43217
14900.00000	46.51846	1377.50654	46.51846
14950.00000	44.27612	1374.84582	44.27612
15000.00000	46.09710	1425.30311	46.09710
15050.00000	52.11447	1383.28602	52.11447
15100.00000	51.40587	1450.00268	51.40587
15150.00000	47.28028	1402.82574	47.28028
15200.00000	52.52524	1371.78563	52.52524
15250.00000	45.40608	1656.63262	45.40608
15300.00000	41.90344	1826.76203	41.90344
15350.00000	37.52551	2073.46653	37.52551
15400.00000	43.84934	2138.98608	43.84934
15450.00000	44.96238	2410.43894	44.96238
15500.00000	39.37751	2553.62391	39.37751
15550.00000	45.92425	2529.83358	45.92425
15600.00000	50.20739	2498.64461	50.20739
15650.00000	39.44085	2611.25313	39.44085
15700.00000	52.51947	2888.44217	52.51947
15750.00000	51.95374	3178.35005	51.95374
15800.00000	45.02096	3158.58595	45.02096
15850.00000	42.44807	3273.63909	42.44807
15900.00000	56.75119	3562.09291	56.75119
15950.00000	44.32702	3676.16481	44.32702
16000.00000	51.84824	3960.82140	51.84824
16050.00000	47.28075	4248.82602	47.28075
16100.00000	52.88907	4259.13173	52.88907
16150.00000	45.69593	4303.72732	45.69593
16200.00000	51.59742	4269.56166	51.59742
16250.00000	54.74058	4306.06117	54.74058
16300.00000	53.25721	4245.74775	53.25721
16350.00000	47.04437	4251.62632	47.04437
16400.00000	44.89178	4292.55285	44.89178
16450.00000	49.95957	4232.49589	49.95957
16500.00000	55.45857	4255.81799	55.45857
16550.00000	54.46386	4259.52467	54.46386
16600.00000	48.95730	4303.82899	48.95730
16650.00000	54.70662	4269.89857	54.70662
16700.00000	48.90840	4296.24311	48.90840
16750.00000	59.63601	4280.14642	59.63601
16800.00000	55.06661	4259.49909	55.06661
16850.00000	51.67956	4314.89351	51.67956
16900.00000	51.25051	4267.85995	51.25051
16950.00000	50.39375	4232.11807	50.39375
17000.00000	55.79881	4277.80671	55.79881
17050.00000	54.83150	4578.35705	54.83150
17100.00000	51.39476	4615.61328	51.39476
17150.00000	47.52127	4639.84000	47.52127
17200.00000	55.02059	4931.44931	55.02059
17250.00000	52.86882	4957.07122	52.86882
17300.00000	54.94222	4916.47295	54.94222
17350.00000	55.43566	4937.15908	55.43566
17400.00000	56.48627	4949.06066	56.48627
17450.00000	55.78968	4918.25690	55.78968
17500.00000	56.38612	4943.38257	56.38612
17550.00000	55.95322	4926.82502	55.95322
17600.00000	58.42999	4918.21884	58.42999
17650.00000	54.50808	4914.36118	54.50808
17700.00000	54.30971	4906.02656	54.30971
17750.00000	54.71484	4900.87203	54.71484
17800.00000	56.03908	4914.67623	56.03908
17850.00000	50.52071	4958.60424	50.52071
17900.00000	55.68898	4934.64575	55.68898
17950.00000	49.08832	4890.01580	49.08832
18000.00000	56.52739	4891.05550	56.52739
18050.00000	52.84583	4911.45158	52.84583
18100.00000	56.21864	4879.64041	56.21864
18150.00000	60.51869	4908.92516	60.51869
18200.00000	59.73451	4909.16594	59.73451
18250.00000	58.39733	4921.15738	58.39733
18300.00000	56.70118	4916.94909	56.70118
18350.00000	60.80327	4933.41609	60.80327
18400.00000	57.74330	4892.15231	57.74330
18450.00000	61.51341	4898.84902	61.51341
18500.00000	56.68720	4929.64474	56.68720
18550.00000	56.64312	4943.21034	56.64312
18600.00000	60.45783	5254.63541	60.45783
18650.00000	56.49123	5227.16528	56.49123
18700.00000	58.49554	5224.09800	58.49554
18750.00000	62.80724	5247.58805	62.80724
18800.00000	60.01880	5239.30273	60.01880
18850.00000	60.12779	5237.88447	60.12779
18900.00000	59.25392	5215.40887	59.25392
18950.00000	61.41904	5236.28327	61.41904
19000.00000	60.10070	5253.00360	60.10070
19050.00000	60.12598	5240.43957	60.12598
19100.00000	62.04736	5232.16912	62.04736
19150.00000	60.94766	5215.95807	60.94766
19200.00000	59.81238	5217.58864	59.81238
19250.00000	61.50117	5222.66229	61.50117
19300.00000	57.82299	5212.00632	57.82299
19350.00000	61.39977	5219.13480	61.39977
19400.00000	60.91974	5217.25299	60.91974
19450.00000	59.84602	5193.85041	59.84602
19500.00000	60.38789	5207.77279	60.38789
19550.00000	60.23420	5205.76495	60.23420
19600.00000	59.22229	5206.56864	59.22229
19650.00000	59.17168	5181.64982	59.17168
19700.00000	59.57499	5189.98120	59.57499
19750.00000	59.90985	5214.24702	59.90985
19800.00000	59.91459	5186.51676	59.91459
19850.00000	61.82087	5174.41405	61.82087
19900.00000	59.64467	5181.63017	59.64467
19950.00000	62.06805	5172.68142	62.06805
20000.00000	59.25838	5170.08471	59.25838
20050.00000	58.64172	5162.65746	58.64172
20100.00000	60.00122	5158.22782	60.00122
20150.00000	60.86708	5161.43624	60.86708
20200.00000	59.80065	5161.13605	59.80065
20250.00000	59.56839	5166.16292	59.56839
20300.00000	59.53776	5157.51404	59.53776
20350.00000	60.83689	5155.85883	60.83689
20400.00000	59.89723	5159.61594	59.89723
20450.00000	60.57969	5153.78607	60.57969
20500.00000	59.28842	5147.96915	59.28842
20550.00000	58.39354	5138.57622	58.39354
20600.00000	58.12228	5153.16743	58.12228
20650.00000	58.85497	5145.80715	58.85497
20700.00000	58.41930	5135.28891	58.41930
20750.00000	58.91898	5134.49142	58.91898
20800.00000	59.61438	5145.54276	59.61438
20850.00000	56.56794	5131.09910	56.56794
20900.00000	59.50715	5139.27250	59.50715
20950.00000	58.77473	5129.14526	58.77473
21000.00000	59.23178	5128.64691	59.23178
21050.00000	57.95156	5125.00773	57.95156
21100.00000	58.16494	5129.53419	58.16494
21150.00000	59.96689	5133.40594	59.96689
21200.00000	58.79462	5132.20304	58.79462
21250.00000	59.14596	5137.59608	59.14596
21300.00000	58.22535	5133.21162	58.22535
21350.00000	61.45067	5124.90591	61.45067
21400.00000	59.79296	5141.44390	59.79296
21450.00000	60.28387	5468.20341	60.28387
21500.00000	60.26500	5469.18747	60.26500
21550.00000	59.45986	5474.85760	59.45986
21600.00000	60.61062	5469.90057	60.61062
21650.00000	59.60352	5460.81516	59.60352
21700.00000	62.78620	5470.72511	62.78620
21750.00000	61.94758	5461.51083	61.94758
21800.00000	61.31081	5457.60206	61.31081
21850.00000	59.22689	5452.75723	59.22689
21900.00000	60.48334	5463.33069	60.48334
21950.00000	60.76961	5458.89834	60.76961
22000.00000	61.78881	5454.76426	61.78881
22050.00000	61.77974	5444.98594	61.77974
22100.00000	62.15525	5439.30975	62.15525
22150.00000	59.63017	5433.39551	59.63017
22200.00000	62.05574	5428.16592	62.05574
22250.00000	62.08703	5431.87906	62.08703
22300.00000	59.58076	5426.14644	59.58076
22350.00000	59.31638	5417.29488	59.31638
22400.00000	60.00524	5419.91036	60.00524
22450.00000	53.22970	5446.07477	53.22970
22500.00000	61.60093	5433.71520	61.60093
22550.00000	58.23015	5765.62626	58.23015
22600.00000	57.23293	5764.01612	57.23293
22650.00000	56.03898	5802.61212	56.03898
22700.00000	64.04274	6131.84132	64.04274
22750.00000	60.62048	6132.74274	60.62048
22800.00000	61.34151	6115.95676	61.34151
22850.00000	57.84176	6143.56527	57.84176
22900.00000	66.79080	6476.44485	66.79080
22950.00000	54.79868	6536.98682	54.79868
23000.00000	60.74623	6802.96082	60.74623
23050.00000	62.08664	6871.67662	62.08664
23100.00000	63.67562	7155.71615	63.67562
23150.00000	60.64649	7185.71090	60.64649
23200.00000	64.76015	7181.25319	64.76015
23250.00000	54.45115	7483.10665	54.45115
23300.00000	61.29317	7504.93701	61.29317
23350.00000	60.29293	7590.49185	60.29293
23400.00000	62.17090	7872.10841	62.17090
23450.00000	62.04961	7907.77534	62.04961
23500.00000	42.74435	7901.47746	42.74435
23550.00000	62.86761	8251.29569	62.86761
23600.00000	59.03051	8264.56487	59.03051
23650.00000	64.38021	8261.37726	64.38021
23700.00000	66.54217	8254.65350	66.54217
23750.00000	59.16967	8261.31128	59.16967
23800.00000	59.03765	8276.62102	59.03765
23850.00000	66.77846	8616.94924	66.77846
23900.00000	66.64870	8926.55711	66.64870
23950.00000	64.31264	8995.84853	64.31264
24000.00000	55.41161	9006.02454	55.41161
24050.00000	63.16518	9321.14471	63.16518
24100.00000	59.97209	9605.17439	59.97209
24150.00000	67.37044	9694.94854	67.37044
24200.00000	59.15241	10040.23486	59.15241
24250.00000	66.96911	10396.31646	66.96911
24300.00000	66.89106	10452.17259	66.89106
24350.00000	66.81569	10795.02660	66.81569
24400.00000	59.59718	11092.80931	59.59718
24450.00000	65.73571	11174.90416	65.73571
24500.00000	64.79419	11440.79381	64.79419
24550.00000	65.65806	11479.04544	65.65806
24600.00000	62.41317	11799.36608	62.41317
24650.00000	64.54323	11813.25246	64.54323
24700.00000	60.83095	11834.93720	60.83095
24750.00000	67.18952	12128.44106	67.18952
24800.00000	61.79916	12171.59357	61.79916
24850.00000	62.28341	12527.92894	62.28341
24900.00000	63.00112	12588.34129	63.00112
24950.00000	72.84395	12902.35569	72.84395
25000.00000	61.48785	12882.67309	61.48785
25050.00000	70.12709	12759.61208	70.12709
25100.00000	59.83108	12592.34348	59.83108
25150.00000	63.14288	12447.53355	63.14288
25200.00000	61.77537	12183.68006	61.77537
25250.00000	67.00669	12136.09301	67.00669
25300.00000	62.01898	12104.29310	62.01898
25350.00000	68.75653	11804.43349	68.75653
25400.00000	53.18456	11449.80696	53.18456
25450.00000	65.75177	11420.50852	65.75177
25500.00000	62.71673	11117.60993	62.71673
25550.00000	63.83811	11082.11358	63.83811
25600.00000	60.23540	11006.67303	60.23540
25650.00000	53.45477	10692.76552	53.45477
25700.00000	58.57614	10626.64693	58.57614
25750.00000	60.45156	10413.03104	60.45156
25800.00000	61.74290	10290.76022	61.74290
25850.00000	59.03910	9979.50703	59.03910
25900.00000	60.87916	9962.37653	60.87916
25950.00000	57.97145	9613.82273	57.97145
26000.00000	65.59980	9582.67156	65.59980
26050.00000	55.29089	9542.12868	55.29089
26100.00000	63.66449	9252.16797	63.66449
26150.00000	62.39920	9251.96918	62.39920
26200.00000	51.17187	8956.93637	51.17187
26250.00000	64.64442	8854.41393	64.64442
26300.00000	65.45162	8860.41761	65.45162
26350.00000	62.66947	8846.51526	62.66947
26400.00000	63.61731	8852.30019	63.61731
26450.00000	59.41087	8832.56074	59.41087
26500.00000	58.38193	8503.30578	58.38193
26550.00000	63.91381	8508.19856	63.91381
26600.00000	57.67239	8465.28847	57.67239
26650.00000	57.39977	8478.43952	57.39977
26700.00000	58.18039	8476.28488	58.18039
26750.00000	60.22150	8217.69106	60.22150
26800.00000	58.37199	8082.07610	58.37199
26850.00000	55.78697	7744.16238	55.78697
26900.00000	58.76268	7423.79038	58.76268
26950.00000	57.83546	7422.09690	57.83546
27000.00000	61.98161	7111.44161	61.98161
27050.00000	62.12555	7074.80653	62.12555
27100.00000	56.89448	6849.82683	56.89448
27150.00000	59.33548	6626.01198	59.33548
27200.00000	43.48068	6323.68431	43.48068
27250.00000	61.68652	6307.77683	61.68652
27300.00000	62.16068	6201.25452	62.16068
27350.00000	60.36883	5908.10484	60.36883
27400.00000	59.35582	5905.89667	59.35582
27450.00000	62.41883	5655.70265	62.41883
27500.00000	57.83043	5558.88205	57.83043
27550.00000	53.01243	5495.03852	53.01243
27600.00000	65.06863	5187.84206	65.06863
27650.00000	61.26776	5168.91537	61.26776
27700.00000	60.45226	4911.04687	60.45226
27750.00000	61.99249	4769.97119	61.99249
27800.00000	46.02062	4455.55661	46.02062
27850.00000	54.63045	4470.66983	54.63045
27900.00000	54.28562	4274.70527	54.28562
27950.00000	58.58778	4060.14053	58.58778
28000.00000	47.91791	3871.43543	47.91791
28050.00000	58.89817	3608.82435	58.89817
28100.00000	52.38608	3334.88179	52.38608
28150.00000	57.87102	3000.49436	57.87102
28200.00000	42.11377	3003.24384	42.11377
28250.00000	53.99993	2746.22046	53.99993
28300.00000	59.84535	2473.86359	59.84535
28350.00000	60.54143	2278.15377	60.54143
28400.00000	47.76176	2082.06757	47.76176
28450.00000	45.58595	2077.81900	45.58595
28500.00000	55.51467	1877.75809	55.51467
28550.00000	57.03390	1879.86991	57.03390
28600.00000	53.97813	1729.66449	53.97813
28650.00000	58.75421	1474.32791	58.75421
28700.00000	50.87457	1237.51137	50.87457
28750.00000	58.01982	1216.52132	58.01982
28800.00000	61.36416	1229.23919	61.36416
28850.00000	64.46299	999.32736	64.46299
28900.00000	41.02561	871.83227	41.02561
28950.00000	59.27281	745.46640	59.27281
29000.00000	57.00829	704.25252	57.00829
29050.00000	50.49303	694.75863	50.49303
29100.00000	48.28630	701.85092	48.28630
29150.00000	63.52931	484.70249	63.52931
29200.00000	49.45897	180.16119	49.45897
29250.00000	60.20281	87.85092	60.20281
29300.00000	49.25384	29.71576	49.25384
29350.00000	59.30849	-4.13369	59.30849
29400.00000	57.12301	 7.54144	57.12301
29450.00000	71.79329	-47.27696	71.79329
29500.00000	57.34966	-275.91728	57.34966
29550.00000	59.11421	-516.65019	59.11421
29600.00000	57.47438	-759.04388	57.47438
29650.00000	47.25688	-888.83578	47.25688
29700.00000	60.62015	-871.07049	60.62015
29750.00000	51.00565	-979.77069	51.00565
29800.00000	56.92398	-975.77792	56.92398
29850.00000	47.65543	-1018.29303	47.65543
29900.00000	60.22017	-1324.72063	60.22017
29950.00000	56.84029	-1465.32081	56.84029
30000.00000	58.04828	-1713.99870	58.04828
30050.00000	63.97108	-2026.00242	63.97108
30100.00000	46.83208	-1998.78251	46.83208
30150.00000	57.56709	-2050.03324	57.56709
30200.00000	56.40810	-2174.13677	56.40810
30250.00000	46.87921	-2435.81002	46.87921
30300.00000	60.91411	-2749.08093	60.91411
30350.00000	38.86809	-2942.13987	38.86809
30400.00000	51.17575	-3160.10766	51.17575
30450.00000	58.10027	-3213.52032	58.10027
30500.00000	54.71084	-3503.95558	54.71084
30550.00000	37.09336	-3484.41319	37.09336
30600.00000	57.24219	-3688.40006	57.24219
30650.00000	64.42428	-3820.84236	64.42428
30700.00000	51.15279	-3885.24262	51.15279
30750.00000	51.57504	-3846.31640	51.57504
30800.00000	50.39935	-3861.82896	50.39935
30850.00000	57.70485	-4159.41366	57.70485
30900.00000	52.31941	-4173.09266	52.31941
30950.00000	49.81582	-4196.63203	49.81582
31000.00000	60.68883	-4156.59449	60.68883
31050.00000	57.07228	-4223.39369	57.07228
31100.00000	58.09184	-4234.99436	58.09184
31150.00000	59.26734	-4231.94705	59.26734
31200.00000	59.24759	-4195.26718	59.24759
31250.00000	53.66086	-4211.85248	53.66086
31300.00000	64.33703	-4192.48290	64.33703
31350.00000	63.98484	-4240.75315	63.98484
31400.00000	58.37903	-4244.30711	58.37903
31450.00000	64.08227	-4537.49970	64.08227
31500.00000	66.72995	-4556.58538	66.72995
31550.00000	65.80537	-4573.32591	65.80537
31600.00000	63.73068	-4595.71508	63.73068
31650.00000	67.46137	-4576.05406	67.46137
31700.00000	65.51318	-4540.88498	65.51318
31750.00000	66.71879	-4576.21043	66.71879
31800.00000	65.84140	-4570.23601	65.84140
31850.00000	73.75820	-4563.26635	73.75820
31900.00000	70.04986	-4589.82744	70.04986
31950.00000	70.12255	-4608.60081	70.12255
32000.00000	70.73528	-4584.33162	70.73528
32050.00000	69.97589	-4603.71167	69.97589
32100.00000	70.55078	-4623.53597	70.55078
32150.00000	69.34424	-4590.99829	69.34424
32200.00000	72.94841	-4612.47873	72.94841
32250.00000	69.63780	-4640.49183	69.63780
32300.00000	69.44277	-4625.90512	69.44277
32350.00000	72.03148	-4605.84902	72.03148
32400.00000	66.01909	-4623.20486	66.01909
32450.00000	70.42672	-4618.76779	70.42672
32500.00000	73.23905	-4632.28576	73.23905
32550.00000	66.82987	-4658.06215	66.82987
32600.00000	70.06328	-4636.08765	70.06328
32650.00000	73.58869	-4627.48083	73.58869
32700.00000	70.50542	-4670.76202	70.50542
32750.00000	67.61615	-4648.52009	67.61615
32800.00000	72.08726	-4663.72281	72.08726
32850.00000	72.37778	-4665.01158	72.37778
32900.00000	69.36346	-4682.52639	69.36346
32950.00000	72.88746	-4681.19106	72.88746
33000.00000	71.36531	-4675.03432	71.36531
33050.00000	73.98550	-4696.71643	73.98550
33100.00000	64.46915	-4690.56403	64.46915
33150.00000	68.19797	-4666.52969	68.19797
33200.00000	73.42550	-4694.97628	73.42550
33250.00000	72.59695	-4675.43712	72.59695
33300.00000	56.32941	-4781.04098	56.32941
33350.00000	65.09548	-4730.83758	65.09548
33400.00000	69.54072	-4699.67403	69.54072
33450.00000	71.10184	-4701.33187	71.10184
33500.00000	63.12556	-4767.94248	63.12556
33550.00000	71.03488	-4742.44071	71.03488
33600.00000	58.85365	-5031.27920	58.85365
33650.00000	69.14910	-5243.35018	69.14910
33700.00000	69.13849	-5428.94286	69.13849
33750.00000	58.96971	-5440.53436	58.96971
33800.00000	57.94948	-5664.78826	57.94948
33850.00000	70.94823	-5813.39086	70.94823
33900.00000	64.84964	-6108.19304	64.84964
33950.00000	72.70605	-6207.24610	72.70605
34000.00000	70.57068	-6502.64086	70.57068
34050.00000	66.13537	-6458.36296	66.13537
34100.00000	62.40828	-6558.30374	62.40828
34150.00000	70.11392	-6554.06549	70.11392
34200.00000	71.86849	-6520.98980	71.86849
34250.00000	71.87248	-6641.05177	71.87248
34300.00000	71.45049	-6887.27439	71.45049
34350.00000	66.30354	-7076.74034	66.30354
34400.00000	61.90590	-7296.66895	61.90590
34450.00000	71.46765	-7281.47884	71.46765
34500.00000	68.64211	-7237.91104	68.64211
34550.00000	59.78954	-7310.50862	59.78954
34600.00000	65.08017	-7471.09638	65.08017
34650.00000	68.89936	-7612.80377	68.89936
34700.00000	71.84551	-7680.60803	71.84551
34750.00000	48.85150	-7730.67565	48.85150
34800.00000	64.25433	-7869.92345	64.25433
34850.00000	73.90747	-7916.99906	73.90747
34900.00000	70.82395	-8012.76345	70.82395
34950.00000	68.85029	-8084.47325	68.85029
35000.00000	61.28696	-8323.93103	61.28696
35050.00000	55.98874	-8326.31213	55.98874
35100.00000	65.11915	-8455.36016	65.11915
35150.00000	74.92353	-8701.41654	74.92353
35200.00000	65.24967	-8812.24201	65.24967
35250.00000	62.41603	-9013.18816	62.41603
35300.00000	65.83975	-9131.20176	65.83975
35350.00000	69.00741	-9143.29250	69.00741
35400.00000	51.52848	-9097.10552	51.52848
35450.00000	69.23576	-9032.46815	69.23576
35500.00000	62.91324	-9007.79758	62.91324
35550.00000	73.70342	-9179.19989	73.70342
35600.00000	60.93109	-9453.22917	60.93109
35650.00000	64.38975	-9497.84797	64.38975
35700.00000	76.42134	-9517.87229	76.42134
35750.00000	71.57118	-9517.80217	71.57118
35800.00000	70.92583	-9714.46031	70.92583
35850.00000	63.93347	-9834.51884	63.93347
35900.00000	67.29056	-9884.18556	67.29056
35950.00000	70.62869	-9961.47938	70.62869
36000.00000	67.13270	-9953.74041	67.13270
36050.00000	71.71716	-10207.38719	71.71716
36100.00000	70.05895	-10268.65158	70.05895
36150.00000	70.42989	-10412.95953	70.42989
36200.00000	64.73190	-10604.95028	64.73190
36250.00000	50.87100	-10543.29390	50.87100
36300.00000	68.70328	-10633.59557	68.70328
36350.00000	71.86564	-10692.57057	71.86564
36400.00000	61.36958	-10963.16991	61.36958
36450.00000	74.59261	-10995.62858	74.59261
36500.00000	65.32543	-10972.87700	65.32543
36550.00000	73.92417	-11023.92692	73.92417
36600.00000	60.50597	-11269.13073	60.50597
36650.00000	71.19413	-11403.57669	71.19413
36700.00000	71.34791	-11619.51820	71.34791
36750.00000	64.37633	-11667.39467	64.37633
36800.00000	75.63436	-11603.63194	75.63436
36850.00000	76.00605	-11720.29920	76.00605
36900.00000	72.25855	-11674.08218	72.25855
36950.00000	72.99690	-11703.09479	72.99690
37000.00000	79.14867	-11761.54331	79.14867
37050.00000	63.81708	-11819.01217	63.81708
37100.00000	71.79872	-12080.90858	71.79872
37150.00000	71.93296	-12055.60505	71.93296
37200.00000	70.13926	-12065.60708	70.13926
37250.00000	63.25839	-12314.98333	63.25839
37300.00000	68.09952	-12392.30990	68.09952
37350.00000	76.52291	-12428.61401	76.52291
37400.00000	70.02946	-12428.06489	70.02946
37450.00000	78.86819	-12463.49566	78.86819
37500.00000	72.86963	-12410.40240	72.86963
37550.00000	66.81307	-12382.87621	66.81307
37600.00000	80.04397	-12444.37396	80.04397
37650.00000	75.83102	-12460.34851	75.83102
37700.00000	79.95377	-12488.70433	79.95377
37750.00000	72.34736	-12463.53623	72.34736
37800.00000	76.76147	-12415.51672	76.76147
37850.00000	81.43278	-12503.82099	81.43278
37900.00000	71.38514	-12482.76971	71.38514
37950.00000	80.30528	-12463.55877	80.30528
38000.00000	72.95242	-12528.64562	72.95242
38050.00000	80.29432	-12456.22830	80.29432
38100.00000	78.23427	-12486.77615	78.23427
38150.00000	74.37732	-12489.16369	74.37732
38200.00000	79.98039	-12493.13039	79.98039
38250.00000	75.50906	-12465.42516	75.50906
38300.00000	71.66947	-12496.18296	71.66947
38350.00000	76.76906	-12475.23615	76.76906
38400.00000	67.60390	-12533.18236	67.60390
38450.00000	75.25417	-12517.63033	75.25417
38500.00000	82.19590	-12490.31176	82.19590
38550.00000	81.03945	-12522.93232	81.03945
38600.00000	77.98588	-12510.37873	77.98588
38650.00000	77.78565	-12525.93545	77.78565
38700.00000	81.06131	-12519.36649	81.06131
38750.00000	77.75864	-12528.68015	77.75864
38800.00000	79.89376	-12530.04671	79.89376
38850.00000	84.69850	-12548.83815	84.69850
38900.00000	78.76313	-12550.64287	78.76313
38950.00000	79.67238	-12536.50110	79.67238
39000.00000	81.08604	-12552.31242	81.08604
39050.00000	79.37831	-12562.12642	79.37831
39100.00000	78.66961	-12562.35684	78.66961
39150.00000	77.68501	-12553.86404	77.68501
39200.00000	78.84402	-12564.46453	78.84402
39250.00000	80.90631	-12561.60066	80.90631
39300.00000	76.68734	-12578.54951	76.68734
39350.00000	78.05089	-12571.58685	78.05089
39400.00000	77.65920	-12581.68787	77.65920
39450.00000	79.65193	-12596.14062	79.65193
39500.00000	79.17931	-12620.90655	79.17931
39550.00000	79.35149	-12599.63438	79.35149
39600.00000	76.23652	-12628.52699	76.23652
39650.00000	73.69978	-12648.67170	73.69978
39700.00000	77.56835	-12623.16822	77.56835
39750.00000	78.98362	-12631.02455	78.98362
39800.00000	79.44716	-12637.60418	79.44716
39850.00000	77.47973	-12634.58295	77.47973
39900.00000	76.22928	-12625.18233	76.22928
39950.00000	72.77640	-12597.69711	72.77640
40000.00000	74.30886	-12612.61757	74.30886
40050.00000	76.85630	-12658.27531	76.85630
40100.00000	72.82822	-12657.28286	72.82822
40150.00000	77.10345	-12667.63466	77.10345
40200.00000	75.66249	-12657.40443	75.66249
40250.00000	71.39615	-12619.72713	71.39615
40300.00000	75.43495	-12686.50768	75.43495
40350.00000	74.31282	-12681.14504	74.31282
40400.00000	71.11657	-12682.80312	71.11657
40450.00000	64.76343	-12667.96451	64.76343
40500.00000	71.66329	-12687.04266	71.66329
40550.00000	74.55046	-12671.67292	74.55046
40600.00000	66.61627	-12669.83567	66.61627
40650.00000	72.72985	-12669.95684	72.72985
40700.00000	72.31395	-12687.83620	72.31395
40750.00000	68.45392	-12637.44787	68.45392
40800.00000	70.57067	-12679.89866	70.57067
40850.00000	68.80119	-12680.47542	68.80119
40900.00000	55.53338	-12724.11195	55.53338
40950.00000	68.51087	-12696.55005	68.51087
41000.00000	70.25738	-12733.37668	70.25738
41050.00000	65.95047	-12699.60024	65.95047
41100.00000	67.71698	-12704.00873	67.71698
41150.00000	63.25247	-12937.53625	63.25247
41200.00000	64.71595	-13002.85419	64.71595
41250.00000	67.88491	-13081.51264	67.88491
41300.00000	73.41714	-13064.48511	73.41714
41350.00000	59.89452	-13131.73531	59.89452
41400.00000	72.87140	-13068.30797	72.87140
41450.00000	66.53449	-13032.72304	66.53449
41500.00000	73.16595	-13096.66863	73.16595
41550.00000	73.00782	-13071.44440	73.00782
41600.00000	71.40013	-13111.77792	71.40013
41650.00000	72.85188	-13128.53862	72.85188
41700.00000	73.89926	-13095.12708	73.89926
41750.00000	70.58780	-13046.08075	70.58780
41800.00000	67.54644	-13130.12106	67.54644
41850.00000	77.47982	-13010.28457	77.47982
41900.00000	68.14665	-13100.29243	68.14665
41950.00000	76.42953	-13046.62923	76.42953
42000.00000	67.57973	-13073.48377	67.57973
42050.00000	72.60883	-13104.05323	72.60883
42100.00000	78.80256	-13089.09050	78.80256
42150.00000	71.06571	-13041.54646	71.06571
42200.00000	76.72652	-13097.75122	76.72652
42250.00000	75.06123	-13089.76850	75.06123
42300.00000	76.68063	-13134.07548	76.68063
42350.00000	75.35665	-13060.50315	75.35665
42400.00000	69.59543	-13088.38166	69.59543
42450.00000	77.06115	-13060.12310	77.06115
42500.00000	78.67715	-13018.19149	78.67715
42550.00000	60.93485	-13086.46648	60.93485
42600.00000	75.21017	-13061.58391	75.21017
42650.00000	78.47136	-13031.58066	78.47136
42700.00000	74.55643	-13084.83337	74.55643
42750.00000	72.03133	-13066.06528	72.03133
42800.00000	72.16999	-13118.97387	72.16999
42850.00000	80.20627	-13106.26024	80.20627
42900.00000	81.29738	-13080.59132	81.29738
42950.00000	72.40191	-12965.09284	72.40191
43000.00000	66.58266	-13080.87910	66.58266
43050.00000	78.14899	-13179.10898	78.14899
43100.00000	63.37389	-13336.35994	63.37389
43150.00000	76.47406	-13433.57550	76.47406
43200.00000	75.03887	-13428.44258	75.03887
43250.00000	73.12619	-13392.87437	73.12619
43300.00000	79.64478	-13420.21472	79.64478
43350.00000	73.30896	-13393.40077	73.30896
43400.00000	74.51706	-13456.94695	74.51706
43450.00000	79.45927	-13389.74717	79.45927
43500.00000	56.62122	-13585.46180	56.62122
43550.00000	79.08211	-13453.35155	79.08211
43600.00000	83.60798	-13488.56052	83.60798
43650.00000	62.17778	-13591.26382	62.17778
43700.00000	77.54480	-13481.67545	77.54480
43750.00000	74.01233	-13508.85545	74.01233
43800.00000	75.69443	-13552.03775	75.69443
43850.00000	71.67880	-13422.02119	71.67880
43900.00000	70.36608	-13561.83022	70.36608
43950.00000	76.56398	-13507.30822	76.56398
44000.00000	73.90182	-13580.23172	73.90182
44050.00000	65.43473	-13628.44565	65.43473
44100.00000	77.29509	-13546.07139	77.29509
44150.00000	75.59728	-13507.65472	75.59728
44200.00000	77.52367	-13576.12572	77.52367
44250.00000	76.72076	-13464.34930	76.72076
44300.00000	75.54333	-13573.77843	75.54333
44350.00000	66.70116	-13779.41399	66.70116
44400.00000	70.81441	-13995.93202	70.81441
44450.00000	61.86121	-13857.82777	61.86121
44500.00000	66.91161	-13947.05234	66.91161
44550.00000	78.69826	-13857.52241	78.69826
44600.00000	64.87812	-13795.02332	64.87812
44650.00000	72.63244	-13919.33934	72.63244
44700.00000	58.34522	-13917.23674	58.34522
44750.00000	64.49951	-13942.79836	64.49951
44800.00000	72.81955	-13968.28718	72.81955
44850.00000	73.49846	-13837.23478	73.49846
44900.00000	79.90378	-14039.13298	79.90378
44950.00000	70.30922	-13926.98876	70.30922
45000.00000	75.88599	-13895.58499	75.88599
45050.00000	67.36390	-13762.38494	67.36390
45100.00000	53.20772	-13922.86805	53.20772
45150.00000	82.12212	-13920.93856	82.12212
45200.00000	72.61053	-13987.91555	72.61053
45250.00000	62.63398	-14109.80243	62.63398
45300.00000	75.29226	-14052.68011	75.29226
45350.00000	77.29446	-14074.04026	77.29446
45400.00000	80.06372	-13940.48461	80.06372
45450.00000	66.26767	-13869.90228	66.26767
45500.00000	71.89203	-14033.91574	71.89203
45550.00000	70.41013	-14226.67495	70.41013
45600.00000	76.42436	-14312.52362	76.42436
45650.00000	70.17590	-14387.45748	70.17590
45700.00000	69.34367	-14332.17782	69.34367
45750.00000	73.64620	-14411.25862	73.64620
45800.00000	71.23743	-14573.38451	71.23743
45850.00000	68.70779	-14562.14507	68.70779
45900.00000	73.60606	-14605.90052	73.60606
45950.00000	67.36382	-14607.73125	67.36382
46000.00000	77.29935	-14700.87747	77.29935
46050.00000	67.01317	-14886.61520	67.01317
46100.00000	72.82635	-14938.28245	72.82635
46150.00000	67.40882	-14822.74766	67.40882
46200.00000	71.20040	-14943.58900	71.20040
46250.00000	49.30888	-15028.39068	49.30888
46300.00000	66.09207	-15077.49956	66.09207
46350.00000	70.85376	-14955.65634	70.85376
46400.00000	63.25442	-14815.95341	63.25442
46450.00000	67.70645	-14774.04078	67.70645
46500.00000	61.41338	-14879.95757	61.41338
46550.00000	67.98261	-14960.84423	67.98261
46600.00000	70.28369	-15128.21162	70.28369
46650.00000	66.03883	-15115.00720	66.03883
46700.00000	65.75703	-15051.75516	65.75703
46750.00000	71.31889	-14958.23461	71.31889
46800.00000	64.76554	-14978.36713	64.76554
46850.00000	41.40169	-15295.74991	41.40169
46900.00000	70.57791	-15362.38945	70.57791
46950.00000	71.18288	-15338.46082	71.18288
47000.00000	66.41324	-15355.81240	66.41324
47050.00000	53.74638	-15414.14529	53.74638
47100.00000	68.08090	-15321.22045	68.08090
47150.00000	67.02938	-15348.50464	67.02938
47200.00000	66.46339	-15382.35263	66.46339
47250.00000	67.29085	-15378.08089	67.29085
47300.00000	68.08429	-15499.96304	68.08429
47350.00000	57.47802	-15954.09776	57.47802
47400.00000	56.62641	-16072.40912	56.62641
47450.00000	66.86098	-16017.80882	66.86098
47500.00000	55.83478	-16048.67398	55.83478
47550.00000	70.17499	-16373.83852	70.17499
47600.00000	61.80328	-16428.55279	61.80328
47650.00000	54.65375	-16376.66972	54.65375
47700.00000	68.52190	-16478.56247	68.52190
47750.00000	60.08960	-16481.04955	60.08960
47800.00000	61.37913	-16442.64587	61.37913
47850.00000	62.11604	-16775.12324	62.11604
47900.00000	65.29141	-17197.89020	65.29141
47950.00000	60.88649	-17266.72718	60.88649
48000.00000	64.91275	-17209.80621	64.91275
48050.00000	66.32736	-17389.85917	66.32736
48100.00000	60.78744	-17260.82928	60.78744
48150.00000	66.79628	-17787.03908	66.79628
48200.00000	67.68455	-17938.31748	67.68455
48250.00000	56.78976	-17970.83495	56.78976
48300.00000	64.88815	-17929.80104	64.88815
48350.00000	73.91347	-17973.59051	73.91347
48400.00000	66.20354	-18356.75361	66.20354
48450.00000	69.01251	-18541.69998	69.01251
48500.00000	70.90164	-18413.04917	70.90164
48550.00000	62.80824	-18384.27800	62.80824
48600.00000	68.91219	-18627.36878	68.91219
48650.00000	69.28089	-18770.86194	69.28089
48700.00000	70.41309	-18632.52469	70.41309
48750.00000	69.62311	-19083.32980	69.62311
48800.00000	69.57549	-18931.43213	69.57549
48850.00000	53.70623	-18906.25710	53.70623
48900.00000	62.28869	-19420.80225	62.28869
48950.00000	61.59771	-19361.12900	61.59771
49000.00000	71.15026	-19380.94495	71.15026
49050.00000	71.23280	-19550.36432	71.23280
49100.00000	67.49999	-19840.28785	67.49999
49150.00000	68.15519	-20151.70961	68.15519
49200.00000	72.55785	-20223.43077	72.55785
49250.00000	67.22381	-20552.67118	67.22381
49300.00000	76.05451	-20222.48972	76.05451
49350.00000	74.19018	-20183.99555	74.19018
49400.00000	64.79209	-19691.81382	64.79209
49450.00000	67.69735	-19282.88692	67.69735
49500.00000	76.34334	-19066.52255	76.34334
49550.00000	65.61706	-18886.72610	65.61706
49600.00000	74.06406	-18944.31194	74.06406
49650.00000	73.66227	-18970.46924	73.66227
49700.00000	61.84444	-18569.42110	61.84444
49750.00000	72.05482	-18678.25046	72.05482
49800.00000	60.74533	-18831.31071	60.74533
49850.00000	77.31428	-18911.96840	77.31428
49900.00000	75.99283	-18577.44375	75.99283
49950.00000	77.48633	-18237.30808	77.48633
