---ACOUSTIC CALIBRATION---
Filename: C:\Data\AZH DATA\AZH62\RightPrimary.calib
Date: 8/27/2019 3:45:53 PM
Format: 4
Probe Tube Correction File: C:\Data\Probe Tube Calibrations\50_ProbeTube.calib
Experiment VIs: 850
EPL_CFTS.exe V12.0.1 (2012)
DAQmx V9.6

Attenuation (dB): 40.000000
Min Freq (Hz): 50.000000
Max Freq (Hz): 49950.000000
Freq Step (Hz): 50.000000
Sample Rate (Hz): 100000.000000
[Smoothing]
Method=None
MA.Iterations=0
MA.Length=0
Loess.Length=0
Loess.Type=Linear
Loess.Robust=FALSE


Freq(Hz)	Mag(dB)	Phase(deg)	Unsmoothed(dB)

50.00000	105.28757	617.98066	105.28757
100.00000	83.13448	577.94804	83.13448
150.00000	82.26958	499.98448	82.26958
200.00000	77.52698	436.59541	77.52698
250.00000	90.12179	439.78679	90.12179
300.00000	89.67270	338.13043	89.67270
350.00000	85.82272	344.09302	85.82272
400.00000	86.10055	374.07972	86.10055
450.00000	85.46698	347.57957	85.46698
500.00000	89.95454	352.46702	89.95454
550.00000	91.71167	363.58353	91.71167
600.00000	94.37137	364.86081	94.37137
650.00000	96.74946	350.00423	96.74946
700.00000	99.24357	332.68373	99.24357
750.00000	100.79811	313.18591	100.79811
800.00000	101.30324	294.49536	101.30324
850.00000	101.27799	275.94685	101.27799
900.00000	99.81850	258.43206	99.81850
950.00000	98.13735	254.63890	98.13735
1000.00000	96.68233	255.09255	96.68233
1050.00000	94.76518	269.11777	94.76518
1100.00000	96.17708	291.23500	96.17708
1150.00000	99.02663	297.35153	99.02663
1200.00000	101.80190	296.75638	101.80190
1250.00000	103.68472	288.95344	103.68472
1300.00000	105.24375	283.22950	105.24375
1350.00000	106.62072	273.38298	106.62072
1400.00000	107.40000	265.02205	107.40000
1450.00000	108.43028	259.33527	108.43028
1500.00000	109.53540	252.70478	109.53540
1550.00000	110.35428	244.45916	110.35428
1600.00000	111.91488	235.02601	111.91488
1650.00000	112.88242	218.28743	112.88242
1700.00000	111.73828	208.50431	111.73828
1750.00000	111.49968	202.29802	111.49968
1800.00000	111.16852	198.37186	111.16852
1850.00000	111.31692	196.92942	111.31692
1900.00000	112.41001	193.35684	112.41001
1950.00000	113.16915	180.36943	113.16915
2000.00000	112.29381	168.49122	112.29381
2050.00000	110.95618	172.27085	110.95618
2100.00000	112.70736	172.65600	112.70736
2150.00000	113.39471	161.46936	113.39471
2200.00000	113.34254	151.65169	113.34254
2250.00000	112.81622	144.33502	112.81622
2300.00000	112.86943	138.98260	112.86943
2350.00000	112.68941	132.46504	112.68941
2400.00000	112.44024	126.73883	112.44024
2450.00000	112.15783	120.49786	112.15783
2500.00000	111.75729	115.31612	111.75729
2550.00000	111.33383	109.88937	111.33383
2600.00000	110.83649	105.72327	110.83649
2650.00000	110.35053	101.83183	110.35053
2700.00000	109.86765	98.34436	109.86765
2750.00000	109.31113	94.49722	109.31113
2800.00000	108.69090	91.62740	108.69090
2850.00000	108.15007	89.62924	108.15007
2900.00000	107.47693	87.32029	107.47693
2950.00000	106.87616	86.60454	106.87616
3000.00000	106.26971	85.47400	106.26971
3050.00000	105.52908	84.59847	105.52908
3100.00000	104.73965	84.99548	104.73965
3150.00000	103.52703	85.59648	103.52703
3200.00000	102.28427	89.52710	102.28427
3250.00000	101.30424	99.63623	101.30424
3300.00000	100.70081	110.93355	100.70081
3350.00000	100.72116	128.81430	100.72116
3400.00000	102.53087	145.69571	102.53087
3450.00000	105.09389	154.85819	105.09389
3500.00000	107.72545	156.70072	107.72545
3550.00000	109.77470	153.60124	109.77470
3600.00000	111.63326	149.70284	111.63326
3650.00000	113.08470	144.48065	113.08470
3700.00000	114.39109	139.59500	114.39109
3750.00000	115.68093	134.40411	115.68093
3800.00000	116.89171	128.11389	116.89171
3850.00000	117.93324	121.42563	117.93324
3900.00000	118.92187	114.85254	118.92187
3950.00000	119.88160	107.76452	119.88160
4000.00000	120.73743	100.43429	120.73743
4050.00000	121.54946	93.15782	121.54946
4100.00000	122.39743	85.70162	122.39743
4150.00000	123.43024	77.38722	123.43024
4200.00000	124.18310	67.42027	124.18310
4250.00000	124.88982	56.22926	124.88982
4300.00000	125.35804	44.02669	125.35804
4350.00000	125.48924	31.53788	125.48924
4400.00000	125.35719	19.81112	125.35719
4450.00000	125.05394	 9.03889	125.05394
4500.00000	124.65429	-0.70234	124.65429
4550.00000	124.21873	-9.74357	124.21873
4600.00000	123.73215	-18.09068	123.73215
4650.00000	123.29962	-26.03274	123.29962
4700.00000	122.82714	-34.35363	122.82714
4750.00000	122.23055	-42.96424	122.23055
4800.00000	121.44623	-51.74326	121.44623
4850.00000	120.37069	-59.63112	120.37069
4900.00000	119.05252	-65.67820	119.05252
4950.00000	117.65672	-69.11284	117.65672
5000.00000	116.38770	-69.68544	116.38770
5050.00000	115.26685	-69.73098	115.26685
5100.00000	114.03893	-66.37719	114.03893
5150.00000	113.90346	-60.43666	113.90346
5200.00000	113.16214	-56.99987	113.16214
5250.00000	114.17754	-43.32092	114.17754
5300.00000	116.79343	-49.00473	116.79343
5350.00000	117.22406	-62.55776	117.22406
5400.00000	116.71153	-70.85988	116.71153
5450.00000	116.15547	-75.57143	116.15547
5500.00000	115.72438	-78.90755	115.72438
5550.00000	115.40201	-81.51279	115.40201
5600.00000	115.13756	-84.02294	115.13756
5650.00000	114.94340	-86.34125	114.94340
5700.00000	114.74490	-88.79171	114.74490
5750.00000	114.59454	-91.10016	114.59454
5800.00000	114.43497	-93.50663	114.43497
5850.00000	114.30802	-95.94095	114.30802
5900.00000	114.19464	-98.21616	114.19464
5950.00000	114.08044	-100.57826	114.08044
6000.00000	113.98494	-102.79301	113.98494
6050.00000	113.88364	-105.03416	113.88364
6100.00000	113.81618	-107.26867	113.81618
6150.00000	113.76492	-109.55779	113.76492
6200.00000	113.71760	-111.93906	113.71760
6250.00000	113.69390	-114.61021	113.69390
6300.00000	113.66313	-117.30222	113.66313
6350.00000	113.59397	-120.06493	113.59397
6400.00000	113.52804	-122.67602	113.52804
6450.00000	113.47013	-125.42147	113.47013
6500.00000	113.38783	-128.13278	113.38783
6550.00000	113.31708	-130.74079	113.31708
6600.00000	113.24523	-133.29905	113.24523
6650.00000	113.19195	-135.79329	113.19195
6700.00000	113.14885	-138.47046	113.14885
6750.00000	113.11028	-140.98674	113.11028
6800.00000	113.07218	-143.53156	113.07218
6850.00000	113.03590	-146.05982	113.03590
6900.00000	113.01590	-148.55004	113.01590
6950.00000	113.00278	-150.98311	113.00278
7000.00000	113.00663	-153.66844	113.00663
7050.00000	113.00800	-156.49571	113.00800
7100.00000	113.02105	-159.31258	113.02105
7150.00000	113.02955	-162.09314	113.02955
7200.00000	113.03267	-165.05357	113.03267
7250.00000	113.00936	-168.17124	113.00936
7300.00000	113.03103	-171.23973	113.03103
7350.00000	113.00658	-174.31599	113.00658
7400.00000	113.01044	-177.69858	113.01044
7450.00000	112.99046	-181.02097	112.99046
7500.00000	112.96241	-184.52514	112.96241
7550.00000	112.95126	-187.70513	112.95126
7600.00000	112.90003	-191.16115	112.90003
7650.00000	112.85208	-194.52769	112.85208
7700.00000	112.83684	-197.95079	112.83684
7750.00000	112.76103	-201.41238	112.76103
7800.00000	112.69266	-204.95704	112.69266
7850.00000	112.62818	-208.39869	112.62818
7900.00000	112.57203	-211.82452	112.57203
7950.00000	112.51077	-215.47372	112.51077
8000.00000	112.43422	-219.16546	112.43422
8050.00000	112.34421	-223.16265	112.34421
8100.00000	112.26143	-226.52915	112.26143
8150.00000	112.10175	-230.26557	112.10175
8200.00000	111.98472	-233.69606	111.98472
8250.00000	111.82641	-237.77901	111.82641
8300.00000	111.65235	-241.66645	111.65235
8350.00000	111.42427	-245.33548	111.42427
8400.00000	111.19139	-249.52417	111.19139
8450.00000	110.90870	-253.51230	110.90870
8500.00000	110.63660	-257.71822	110.63660
8550.00000	110.37694	-261.46630	110.37694
8600.00000	110.06759	-265.70576	110.06759
8650.00000	109.72254	-269.40491	109.72254
8700.00000	109.41426	-273.47595	109.41426
8750.00000	109.02016	-275.86453	109.02016
8800.00000	108.67848	-279.29424	108.67848
8850.00000	108.25404	-282.20111	108.25404
8900.00000	107.85575	-284.48890	107.85575
8950.00000	107.44037	-287.25794	107.44037
9000.00000	106.93287	-289.73998	106.93287
9050.00000	106.50695	-292.46724	106.50695
9100.00000	106.07936	-294.83496	106.07936
9150.00000	105.68143	-297.38756	105.68143
9200.00000	105.35652	-299.89032	105.35652
9250.00000	105.00748	-302.21444	105.00748
9300.00000	104.76321	-304.27547	104.76321
9350.00000	104.57372	-306.16625	104.57372
9400.00000	104.26754	-307.29693	104.26754
9450.00000	104.04246	-308.09829	104.04246
9500.00000	103.82104	-308.00350	103.82104
9550.00000	103.67085	-308.00319	103.67085
9600.00000	103.55096	-309.34131	103.55096
9650.00000	103.27582	-311.06417	103.27582
9700.00000	102.97338	-311.97204	102.97338
9750.00000	102.75520	-314.46496	102.75520
9800.00000	102.51152	-315.98344	102.51152
9850.00000	102.35260	-317.53703	102.35260
9900.00000	102.11907	-319.53921	102.11907
9950.00000	102.02736	-320.81718	102.02736
10000.00000	101.94577	-322.61084	101.94577
10050.00000	101.81340	-323.67753	101.81340
10100.00000	101.64647	-324.61680	101.64647
10150.00000	101.39258	-326.30227	101.39258
10200.00000	101.15964	-327.71249	101.15964
10250.00000	100.89888	-329.53195	100.89888
10300.00000	100.76736	-331.58687	100.76736
10350.00000	100.55817	-333.69640	100.55817
10400.00000	100.34682	-336.19373	100.34682
10450.00000	100.32569	-338.76796	100.32569
10500.00000	100.32688	-340.77817	100.32688
10550.00000	100.28507	-342.82401	100.28507
10600.00000	100.20277	-344.40503	100.20277
10650.00000	100.10270	-345.50567	100.10270
10700.00000	99.97969	-347.76287	99.97969
10750.00000	99.86371	-349.59572	99.86371
10800.00000	99.63847	-351.31662	99.63847
10850.00000	99.44206	-354.30839	99.44206
10900.00000	99.27925	-356.46507	99.27925
10950.00000	99.14092	-358.48390	99.14092
11000.00000	99.00599	-360.88650	99.00599
11050.00000	98.73896	-362.94194	98.73896
11100.00000	98.55371	-365.26785	98.55371
11150.00000	98.27416	-366.92953	98.27416
11200.00000	98.09425	-368.53536	98.09425
11250.00000	97.77730	-370.62738	97.77730
11300.00000	97.45635	-372.72491	97.45635
11350.00000	97.17426	-374.17208	97.17426
11400.00000	96.83084	-376.02447	96.83084
11450.00000	96.60815	-378.41420	96.60815
11500.00000	96.50063	-379.28720	96.50063
11550.00000	96.20278	-380.63850	96.20278
11600.00000	96.09264	-382.65260	96.09264
11650.00000	95.86559	-382.91603	95.86559
11700.00000	95.72850	-384.07617	95.72850
11750.00000	95.59640	-385.37509	95.59640
11800.00000	95.41151	-387.04658	95.41151
11850.00000	95.30679	-387.45150	95.30679
11900.00000	94.96633	-389.52724	94.96633
11950.00000	94.84631	-390.47715	94.84631
12000.00000	94.63207	-391.48520	94.63207
12050.00000	94.40161	-392.67373	94.40161
12100.00000	94.33260	-395.01589	94.33260
12150.00000	94.16437	-396.67808	94.16437
12200.00000	94.13553	-398.29098	94.13553
12250.00000	94.00331	-399.28277	94.00331
12300.00000	94.95582	-400.90963	94.95582
12350.00000	93.66635	-402.26915	93.66635
12400.00000	93.47972	-402.95864	93.47972
12450.00000	93.31301	-404.58218	93.31301
12500.00000	93.08935	-406.81504	93.08935
12550.00000	92.91803	-408.57909	92.91803
12600.00000	92.71854	-410.89135	92.71854
12650.00000	92.69612	-412.53568	92.69612
12700.00000	92.41967	-413.97958	92.41967
12750.00000	92.22258	-415.63855	92.22258
12800.00000	91.97590	-416.71685	91.97590
12850.00000	91.43592	-418.05736	91.43592
12900.00000	91.17448	-420.11374	91.17448
12950.00000	90.92188	-421.57869	90.92188
13000.00000	90.67964	-424.05146	90.67964
13050.00000	90.54135	-424.50886	90.54135
13100.00000	90.17099	-426.00365	90.17099
13150.00000	90.00223	-427.61449	90.00223
13200.00000	89.70888	-426.69130	89.70888
13250.00000	89.42319	-427.69571	89.42319
13300.00000	88.94031	-426.57547	88.94031
13350.00000	88.66484	-428.24497	88.66484
13400.00000	88.48923	-429.85122	88.48923
13450.00000	88.04163	-428.96325	88.04163
13500.00000	88.03519	-428.11855	88.03519
13550.00000	87.57903	-428.12654	87.57903
13600.00000	87.25174	-427.34200	87.25174
13650.00000	86.96903	-427.25846	86.96903
13700.00000	86.47574	-428.11489	86.47574
13750.00000	86.43697	-428.25422	86.43697
13800.00000	86.23070	-429.25289	86.23070
13850.00000	86.06336	-429.13657	86.06336
13900.00000	85.91197	-427.62131	85.91197
13950.00000	85.63660	-426.06817	85.63660
14000.00000	85.55738	-425.02150	85.55738
14050.00000	85.47864	-425.94227	85.47864
14100.00000	85.14885	-425.53448	85.14885
14150.00000	85.22874	-425.53890	85.22874
14200.00000	85.34380	-424.32556	85.34380
14250.00000	85.58932	-420.78791	85.58932
14300.00000	85.50741	-419.45697	85.50741
14350.00000	85.28672	-417.32223	85.28672
14400.00000	84.70106	-417.10226	84.70106
14450.00000	84.83757	-415.45289	84.83757
14500.00000	84.68168	-416.91141	84.68168
14550.00000	84.87846	-415.70264	84.87846
14600.00000	84.87948	-417.24236	84.87948
14650.00000	85.16575	-413.51578	85.16575
14700.00000	85.27613	-416.54050	85.27613
14750.00000	85.36186	-413.75193	85.36186
14800.00000	85.04944	-412.25827	85.04944
14850.00000	85.26517	-412.18472	85.26517
14900.00000	85.37990	-411.09212	85.37990
14950.00000	85.70248	-411.58365	85.70248
15000.00000	86.07305	-410.97733	86.07305
15050.00000	86.07392	-407.82948	86.07392
15100.00000	86.11386	-405.34109	86.11386
15150.00000	86.10860	-407.38568	86.10860
15200.00000	86.02573	-406.30774	86.02573
15250.00000	86.19721	-407.72450	86.19721
15300.00000	86.94316	-408.36858	86.94316
15350.00000	87.12324	-405.81203	87.12324
15400.00000	87.16478	-403.95283	87.16478
15450.00000	87.14815	-403.04521	87.14815
15500.00000	87.35381	-402.37223	87.35381
15550.00000	87.61038	-403.20580	87.61038
15600.00000	87.82507	-403.82642	87.82507
15650.00000	88.40630	-400.52822	88.40630
15700.00000	88.59411	-401.23309	88.59411
15750.00000	89.05013	-399.59713	89.05013
15800.00000	89.50185	-398.36036	89.50185
15850.00000	89.67594	-398.83090	89.67594
15900.00000	90.00967	-399.62631	90.00967
15950.00000	90.60343	-399.52372	90.60343
16000.00000	91.03663	-399.53402	91.03663
16050.00000	91.71070	-399.39731	91.71070
16100.00000	91.90113	-398.98364	91.90113
16150.00000	92.30475	-399.39476	92.30475
16200.00000	92.79309	-401.85816	92.79309
16250.00000	93.25678	-403.03094	93.25678
16300.00000	94.03457	-404.14625	94.03457
16350.00000	94.49403	-405.17819	94.49403
16400.00000	95.05739	-405.74774	95.05739
16450.00000	95.36927	-406.77556	95.36927
16500.00000	95.81269	-409.03194	95.81269
16550.00000	96.35588	-412.58275	96.35588
16600.00000	96.85002	-414.66185	96.85002
16650.00000	97.35532	-416.67519	97.35532
16700.00000	97.83383	-418.47155	97.83383
16750.00000	98.18052	-421.39427	98.18052
16800.00000	98.54533	-424.67299	98.54533
16850.00000	99.00983	-427.70922	99.00983
16900.00000	99.45521	-431.31007	99.45521
16950.00000	99.84377	-434.26864	99.84377
17000.00000	100.08867	-437.37330	100.08867
17050.00000	100.45164	-439.61578	100.45164
17100.00000	100.62511	-442.14801	100.62511
17150.00000	100.99372	-446.55567	100.99372
17200.00000	101.26286	-450.00295	101.26286
17250.00000	101.48415	-453.77199	101.48415
17300.00000	101.80231	-456.86285	101.80231
17350.00000	101.82570	-459.38699	101.82570
17400.00000	102.07278	-463.12527	102.07278
17450.00000	102.20186	-466.91303	102.20186
17500.00000	102.43031	-469.91978	102.43031
17550.00000	102.61704	-473.02516	102.61704
17600.00000	102.83554	-475.53568	102.83554
17650.00000	102.92640	-479.55356	102.92640
17700.00000	103.02956	-482.64955	103.02956
17750.00000	103.25306	-485.33177	103.25306
17800.00000	103.32862	-488.90915	103.32862
17850.00000	103.50686	-491.24542	103.50686
17900.00000	103.63504	-494.28839	103.63504
17950.00000	103.78097	-497.74702	103.78097
18000.00000	103.91567	-501.65575	103.91567
18050.00000	104.16752	-504.07596	104.16752
18100.00000	104.23468	-507.79632	104.23468
18150.00000	104.36600	-510.36963	104.36600
18200.00000	104.39427	-514.07972	104.39427
18250.00000	104.56766	-516.64293	104.56766
18300.00000	104.67608	-519.91952	104.67608
18350.00000	104.80007	-523.12248	104.80007
18400.00000	104.84379	-526.48984	104.84379
18450.00000	104.87504	-530.92411	104.87504
18500.00000	104.95126	-533.87683	104.95126
18550.00000	104.97046	-537.03538	104.97046
18600.00000	105.11179	-540.66142	105.11179
18650.00000	105.01835	-543.50463	105.01835
18700.00000	105.04307	-547.07200	105.04307
18750.00000	105.07053	-550.03038	105.07053
18800.00000	105.18918	-552.55977	105.18918
18850.00000	105.08746	-555.65232	105.08746
18900.00000	105.09014	-558.44094	105.09014
18950.00000	105.15978	-561.76051	105.15978
19000.00000	105.00839	-564.17506	105.00839
19050.00000	105.16253	-566.93588	105.16253
19100.00000	105.14306	-569.60463	105.14306
19150.00000	105.32187	-572.28595	105.32187
19200.00000	105.36281	-574.54282	105.36281
19250.00000	105.38526	-578.44196	105.38526
19300.00000	105.38677	-580.66663	105.38677
19350.00000	105.44889	-583.72393	105.44889
19400.00000	105.49121	-586.45778	105.49121
19450.00000	105.66057	-589.03223	105.66057
19500.00000	105.61537	-592.84707	105.61537
19550.00000	105.69444	-595.77550	105.69444
19600.00000	105.81032	-599.42468	105.81032
19650.00000	105.80113	-602.14828	105.80113
19700.00000	105.74954	-605.47822	105.74954
19750.00000	105.75060	-608.16692	105.75060
19800.00000	105.85320	-612.23573	105.85320
19850.00000	105.87367	-615.26709	105.87367
19900.00000	105.83038	-619.38908	105.83038
19950.00000	105.78829	-622.53356	105.78829
20000.00000	105.75766	-626.00612	105.75766
20050.00000	105.73301	-629.32355	105.73301
20100.00000	105.58492	-632.75777	105.58492
20150.00000	105.58306	-635.24005	105.58306
20200.00000	105.45494	-639.34533	105.45494
20250.00000	105.30596	-642.47757	105.30596
20300.00000	105.11437	-645.63141	105.11437
20350.00000	105.06368	-648.94013	105.06368
20400.00000	104.85140	-651.06439	104.85140
20450.00000	104.62594	-654.07584	104.62594
20500.00000	104.51777	-657.14814	104.51777
20550.00000	104.11783	-658.96462	104.11783
20600.00000	104.02342	-661.25102	104.02342
20650.00000	103.83471	-663.55251	103.83471
20700.00000	103.59578	-665.44934	103.59578
20750.00000	103.47519	-667.23586	103.47519
20800.00000	103.26719	-668.60473	103.26719
20850.00000	103.17010	-670.24046	103.17010
20900.00000	102.98015	-671.56193	102.98015
20950.00000	102.85127	-672.23814	102.85127
21000.00000	102.76660	-673.14884	102.76660
21050.00000	102.84746	-673.89858	102.84746
21100.00000	102.81379	-674.46312	102.81379
21150.00000	102.92519	-675.72757	102.92519
21200.00000	103.03155	-676.43443	103.03155
21250.00000	103.12422	-678.97458	103.12422
21300.00000	103.30868	-679.96577	103.30868
21350.00000	103.40507	-681.47777	103.40507
21400.00000	103.52480	-683.84605	103.52480
21450.00000	103.65227	-686.04199	103.65227
21500.00000	103.78437	-688.82017	103.78437
21550.00000	103.77980	-690.98599	103.77980
21600.00000	103.91830	-693.62482	103.91830
21650.00000	103.95345	-696.58175	103.95345
21700.00000	103.95802	-698.90284	103.95802
21750.00000	103.97322	-701.61929	103.97322
21800.00000	103.98559	-704.37557	103.98559
21850.00000	103.89030	-706.75707	103.89030
21900.00000	103.88853	-709.19320	103.88853
21950.00000	103.82699	-711.58872	103.82699
22000.00000	103.83926	-713.77532	103.83926
22050.00000	103.77478	-715.54930	103.77478
22100.00000	103.70199	-718.05337	103.70199
22150.00000	103.63932	-719.86660	103.63932
22200.00000	103.67875	-722.11209	103.67875
22250.00000	103.60255	-723.69379	103.60255
22300.00000	103.48118	-725.84574	103.48118
22350.00000	103.58739	-727.89920	103.58739
22400.00000	103.55632	-730.11006	103.55632
22450.00000	103.44361	-731.79550	103.44361
22500.00000	103.41708	-733.02154	103.41708
22550.00000	103.41527	-734.99085	103.41527
22600.00000	103.38978	-737.60445	103.38978
22650.00000	103.35553	-739.34387	103.35553
22700.00000	103.41032	-740.83556	103.41032
22750.00000	103.34138	-741.47988	103.34138
22800.00000	103.33840	-745.16285	103.33840
22850.00000	103.42070	-747.54006	103.42070
22900.00000	103.43828	-748.29141	103.43828
22950.00000	103.49932	-750.09538	103.49932
23000.00000	103.45120	-751.49418	103.45120
23050.00000	103.43891	-754.23578	103.43891
23100.00000	103.55968	-755.14538	103.55968
23150.00000	103.43077	-756.53701	103.43077
23200.00000	103.60542	-759.50246	103.60542
23250.00000	103.43984	-762.30199	103.43984
23300.00000	103.68022	-764.28455	103.68022
23350.00000	103.43760	-766.20545	103.43760
23400.00000	103.44711	-768.59992	103.44711
23450.00000	103.65329	-770.56419	103.65329
23500.00000	103.52170	-772.01406	103.52170
23550.00000	103.48137	-772.58481	103.48137
23600.00000	103.45476	-777.33665	103.45476
23650.00000	103.53142	-778.36679	103.53142
23700.00000	103.69177	-782.21743	103.69177
23750.00000	103.65736	-783.41803	103.65736
23800.00000	103.43988	-784.24537	103.43988
23850.00000	103.54740	-786.01171	103.54740
23900.00000	103.91678	-788.61010	103.91678
23950.00000	103.63975	-792.09009	103.63975
24000.00000	103.59423	-795.19830	103.59423
24050.00000	103.67155	-795.82447	103.67155
24100.00000	103.90184	-799.87985	103.90184
24150.00000	103.89608	-802.00328	103.89608
24200.00000	103.84311	-806.16360	103.84311
24250.00000	103.48517	-807.02333	103.48517
24300.00000	103.88607	-809.47870	103.88607
24350.00000	103.67399	-812.42529	103.67399
24400.00000	103.50618	-816.25014	103.50618
24450.00000	103.23288	-818.20060	103.23288
24500.00000	103.66558	-819.58656	103.66558
24550.00000	103.39499	-824.69925	103.39499
24600.00000	103.80171	-465.81086	103.80171
24650.00000	103.32674	-110.20100	103.32674
24700.00000	103.27911	250.11479	103.27911
24750.00000	103.19620	604.80951	103.19620
24800.00000	103.05360	962.30859	103.05360
24850.00000	102.62178	1320.84366	102.62178
24900.00000	102.58681	1680.30597	102.58681
24950.00000	102.88149	2035.13304	102.88149
25000.00000	102.44181	2028.81740	102.44181
25050.00000	102.64507	2031.23149	102.64507
25100.00000	101.91448	2026.37105	101.91448
25150.00000	102.18572	2025.83423	102.18572
25200.00000	101.81862	2022.09797	101.81862
25250.00000	101.89854	2021.86991	101.89854
25300.00000	101.72341	2019.87028	101.72341
25350.00000	101.59345	2014.54921	101.59345
25400.00000	101.33090	2011.85037	101.33090
25450.00000	101.34048	2010.81322	101.34048
25500.00000	101.13853	2010.37615	101.13853
25550.00000	101.12668	2007.15833	101.12668
25600.00000	101.13527	2005.08213	101.13527
25650.00000	100.87887	2003.77373	100.87887
25700.00000	100.96892	2001.91742	100.96892
25750.00000	100.58667	1999.51206	100.58667
25800.00000	100.65388	1996.73313	100.65388
25850.00000	100.63074	1995.11486	100.63074
25900.00000	100.44069	1992.09910	100.44069
25950.00000	100.29144	1994.26430	100.29144
26000.00000	100.35274	1989.76369	100.35274
26050.00000	100.37651	1988.14800	100.37651
26100.00000	100.30187	1986.96391	100.30187
26150.00000	100.23989	1984.02427	100.23989
26200.00000	100.43018	1982.95534	100.43018
26250.00000	100.21958	1981.30571	100.21958
26300.00000	100.42681	1978.06127	100.42681
26350.00000	100.00424	1977.38349	100.00424
26400.00000	100.08371	1975.43433	100.08371
26450.00000	100.41619	1971.55662	100.41619
26500.00000	100.24707	1969.71343	100.24707
26550.00000	100.17358	1964.62314	100.17358
26600.00000	100.16385	1962.05374	100.16385
26650.00000	100.27524	1963.58445	100.27524
26700.00000	100.36044	1959.88852	100.36044
26750.00000	100.08976	1957.08353	100.08976
26800.00000	100.05075	1951.80055	100.05075
26850.00000	100.33956	1951.58445	100.33956
26900.00000	100.45244	1948.21538	100.45244
26950.00000	100.57711	1945.94137	100.57711
27000.00000	100.05842	1944.14883	100.05842
27050.00000	100.41132	1940.71424	100.41132
27100.00000	100.12659	1939.55412	100.12659
27150.00000	100.21751	1934.92561	100.21751
27200.00000	100.37799	1932.66330	100.37799
27250.00000	99.76151	1930.78960	99.76151
27300.00000	99.67650	1927.05200	99.67650
27350.00000	99.85429	1926.13492	99.85429
27400.00000	99.51279	1923.41011	99.51279
27450.00000	99.39090	1920.68376	99.39090
27500.00000	99.48744	1918.29637	99.48744
27550.00000	99.37878	1915.45205	99.37878
27600.00000	99.64718	1911.54431	99.64718
27650.00000	99.01622	1910.73522	99.01622
27700.00000	99.16419	1905.03917	99.16419
27750.00000	99.08983	1902.25552	99.08983
27800.00000	99.06129	1898.12553	99.06129
27850.00000	99.01385	1899.98223	99.01385
27900.00000	98.44302	1896.90066	98.44302
27950.00000	97.75490	1893.44558	97.75490
28000.00000	97.82738	1891.68004	97.82738
28050.00000	98.20432	1887.93515	98.20432
28100.00000	97.36106	1886.42822	97.36106
28150.00000	97.16456	1886.60557	97.16456
28200.00000	97.22869	1881.01760	97.22869
28250.00000	96.81771	1878.13985	96.81771
28300.00000	96.24392	1878.06484	96.24392
28350.00000	96.55192	1876.83413	96.55192
28400.00000	96.17949	1875.84739	96.17949
28450.00000	96.49897	1872.83696	96.49897
28500.00000	95.91045	1872.74917	95.91045
28550.00000	95.62911	1873.02325	95.62911
28600.00000	95.40450	1872.50834	95.40450
28650.00000	95.47193	1867.34198	95.47193
28700.00000	95.21376	1870.30479	95.21376
28750.00000	95.91508	1870.40396	95.91508
28800.00000	95.28657	1867.68748	95.28657
28850.00000	94.44284	1863.52346	94.44284
28900.00000	94.65392	1862.98885	94.65392
28950.00000	94.20999	1864.74306	94.20999
29000.00000	94.45045	1863.93107	94.45045
29050.00000	93.90502	1865.35421	93.90502
29100.00000	94.00019	1864.93675	94.00019
29150.00000	93.77899	1863.74416	93.77899
29200.00000	93.62320	1862.27678	93.62320
29250.00000	93.76301	1863.86637	93.76301
29300.00000	93.54246	1863.26587	93.54246
29350.00000	93.62064	1861.53372	93.62064
29400.00000	93.63598	1861.61692	93.63598
29450.00000	93.72211	1860.96600	93.72211
29500.00000	93.99957	1863.35521	93.99957
29550.00000	93.62561	1859.94570	93.62561
29600.00000	93.65123	1860.85600	93.65123
29650.00000	93.75853	1858.40321	93.75853
29700.00000	93.65097	1861.46035	93.65097
29750.00000	93.73331	1861.09495	93.73331
29800.00000	93.55602	1860.15738	93.55602
29850.00000	93.72382	1859.86614	93.72382
29900.00000	94.05231	1861.18539	94.05231
29950.00000	93.30359	1861.72929	93.30359
30000.00000	93.79354	1862.25494	93.79354
30050.00000	94.13910	1860.99655	94.13910
30100.00000	93.89266	1862.97719	93.89266
30150.00000	94.04176	1859.66763	94.04176
30200.00000	94.37170	1859.57370	94.37170
30250.00000	94.26040	1859.54865	94.26040
30300.00000	94.16454	1861.06347	94.16454
30350.00000	94.33018	1863.49441	94.33018
30400.00000	94.54769	1861.41686	94.54769
30450.00000	94.43383	1861.72890	94.43383
30500.00000	94.72985	1861.81546	94.72985
30550.00000	94.78014	1863.90653	94.78014
30600.00000	95.12084	1864.32539	95.12084
30650.00000	95.28759	1864.99413	95.28759
30700.00000	95.63444	1863.55254	95.63444
30750.00000	95.67363	1865.41227	95.67363
30800.00000	96.05520	1866.46099	96.05520
30850.00000	96.43579	1867.79228	96.43579
30900.00000	96.64290	1868.96714	96.64290
30950.00000	97.20187	1867.41212	97.20187
31000.00000	97.71503	1867.02289	97.71503
31050.00000	98.28151	1866.90341	98.28151
31100.00000	98.92960	1866.99892	98.92960
31150.00000	99.08207	1865.87777	99.08207
31200.00000	99.96861	1864.30498	99.96861
31250.00000	100.32340	1863.04590	100.32340
31300.00000	100.84870	1860.83489	100.84870
31350.00000	101.48168	1858.53124	101.48168
31400.00000	101.78878	1855.09515	101.78878
31450.00000	102.35519	1852.74323	102.35519
31500.00000	102.66749	1848.64378	102.66749
31550.00000	103.12780	1846.34434	103.12780
31600.00000	103.66841	1841.04491	103.66841
31650.00000	103.93304	1837.99306	103.93304
31700.00000	104.28121	1834.81338	104.28121
31750.00000	104.62582	1831.73739	104.62582
31800.00000	104.85388	1826.79698	104.85388
31850.00000	105.11425	1822.82195	105.11425
31900.00000	105.18430	1818.88968	105.18430
31950.00000	105.43080	1815.32919	105.43080
32000.00000	105.60425	1810.66154	105.60425
32050.00000	105.79243	1808.18677	105.79243
32100.00000	105.85000	1802.78478	105.85000
32150.00000	105.97868	1799.71867	105.97868
32200.00000	106.12753	1795.46412	106.12753
32250.00000	106.09845	1790.97617	106.09845
32300.00000	106.19459	1786.94939	106.19459
32350.00000	106.19274	1783.97580	106.19274
32400.00000	106.33294	1780.41458	106.33294
32450.00000	106.16516	1776.33976	106.16516
32500.00000	106.20881	1773.30322	106.20881
32550.00000	106.22606	1768.20968	106.22606
32600.00000	106.13776	1765.64863	106.13776
32650.00000	106.20305	1762.41760	106.20305
32700.00000	106.02569	1758.94605	106.02569
32750.00000	106.13404	1755.10680	106.13404
32800.00000	106.10155	1752.45870	106.10155
32850.00000	106.07065	1748.47786	106.07065
32900.00000	105.93270	1744.86277	105.93270
32950.00000	105.73197	1740.97625	105.73197
33000.00000	105.73860	1740.45809	105.73860
33050.00000	105.59880	1735.17352	105.59880
33100.00000	105.49023	1733.46952	105.49023
33150.00000	105.38722	1730.95107	105.38722
33200.00000	105.55029	1729.15080	105.55029
33250.00000	105.36850	1725.24755	105.36850
33300.00000	105.26918	1722.86826	105.26918
33350.00000	105.17745	1720.36992	105.17745
33400.00000	104.93972	1718.29038	104.93972
33450.00000	104.91090	1714.68877	104.91090
33500.00000	105.14143	1714.55335	105.14143
33550.00000	104.65069	1709.14291	104.65069
33600.00000	104.87281	1708.05293	104.87281
33650.00000	104.92143	1706.12275	104.92143
33700.00000	104.72735	1703.32062	104.72735
33750.00000	104.57124	1701.57300	104.57124
33800.00000	104.65304	1699.16216	104.65304
33850.00000	104.34500	1697.69463	104.34500
33900.00000	104.47330	1695.14027	104.47330
33950.00000	104.29249	1694.02520	104.29249
34000.00000	104.43329	1691.57728	104.43329
34050.00000	104.36542	1688.86816	104.36542
34100.00000	104.12400	1688.74425	104.12400
34150.00000	104.22142	1685.48367	104.22142
34200.00000	104.34817	1685.35208	104.34817
34250.00000	104.35057	1683.58586	104.35057
34300.00000	104.35524	1679.94326	104.35524
34350.00000	104.39727	1678.58331	104.39727
34400.00000	104.28269	1678.03772	104.28269
34450.00000	104.22482	1674.03112	104.22482
34500.00000	104.15097	1673.36098	104.15097
34550.00000	104.17105	1671.98750	104.17105
34600.00000	104.09976	1669.01522	104.09976
34650.00000	104.37540	1671.40850	104.37540
34700.00000	103.89930	1669.15054	103.89930
34750.00000	104.17640	1663.33113	104.17640
34800.00000	104.42800	1664.32763	104.42800
34850.00000	104.42803	1665.04279	104.42803
34900.00000	104.61412	1662.14234	104.61412
34950.00000	104.56506	1660.86856	104.56506
35000.00000	104.48782	1658.89666	104.48782
35050.00000	104.73519	1658.31277	104.73519
35100.00000	104.90350	1656.57915	104.90350
35150.00000	104.78796	1656.70764	104.78796
35200.00000	104.89179	1653.42781	104.89179
35250.00000	104.81103	1651.59457	104.81103
35300.00000	105.08488	1649.74391	105.08488
35350.00000	105.34222	1648.40189	105.34222
35400.00000	105.37104	1646.71570	105.37104
35450.00000	105.50417	1646.92703	105.50417
35500.00000	105.22092	1645.42870	105.22092
35550.00000	105.63348	1645.48904	105.63348
35600.00000	105.65552	1642.52616	105.65552
35650.00000	106.12709	1641.53787	106.12709
35700.00000	105.95500	1640.56210	105.95500
35750.00000	105.88022	1640.19744	105.88022
35800.00000	106.23604	1640.74634	106.23604
35850.00000	106.42188	1638.38107	106.42188
35900.00000	106.77499	1633.52207	106.77499
35950.00000	107.08737	1635.52055	107.08737
36000.00000	107.06755	1635.38740	107.06755
36050.00000	107.36598	1632.92331	107.36598
36100.00000	107.61654	1630.79362	107.61654
36150.00000	107.77604	1629.94563	107.77604
36200.00000	108.22254	1629.28355	108.22254
36250.00000	108.43649	1627.43463	108.43649
36300.00000	108.51695	1625.88715	108.51695
36350.00000	108.76183	1624.50506	108.76183
36400.00000	109.18239	1622.84247	109.18239
36450.00000	109.25550	1621.47077	109.25550
36500.00000	109.67122	1619.45997	109.67122
36550.00000	109.95401	1616.34354	109.95401
36600.00000	110.29189	1614.61515	110.29189
36650.00000	110.61286	1611.94866	110.61286
36700.00000	111.00319	1609.37161	111.00319
36750.00000	111.29151	1606.68914	111.29151
36800.00000	111.39496	1604.46968	111.39496
36850.00000	111.52700	1601.74794	111.52700
36900.00000	112.01291	1598.65933	112.01291
36950.00000	112.09515	1596.22372	112.09515
37000.00000	112.10695	1594.09915	112.10695
37050.00000	112.44098	1591.19753	112.44098
37100.00000	112.66564	1587.01485	112.66564
37150.00000	112.97967	1583.85745	112.97967
37200.00000	113.41858	1581.40923	113.41858
37250.00000	113.16352	1578.02713	113.16352
37300.00000	113.31073	1575.44665	113.31073
37350.00000	113.68169	1571.80264	113.68169
37400.00000	113.66132	1569.28204	113.66132
37450.00000	113.72851	1566.28245	113.72851
37500.00000	114.13906	1562.41072	114.13906
37550.00000	114.03167	1560.74743	114.03167
37600.00000	114.30537	1557.25061	114.30537
37650.00000	114.34027	1554.03849	114.34027
37700.00000	114.58145	1549.73227	114.58145
37750.00000	114.70269	1547.76288	114.70269
37800.00000	114.67637	1543.69072	114.67637
37850.00000	114.90460	1539.10003	114.90460
37900.00000	114.93516	1536.60151	114.93516
37950.00000	115.08921	1534.11530	115.08921
38000.00000	115.11402	1531.02005	115.11402
38050.00000	115.33981	1527.29017	115.33981
38100.00000	115.53852	1523.95828	115.53852
38150.00000	115.55907	1519.59207	115.55907
38200.00000	115.82984	1515.32464	115.82984
38250.00000	115.87659	1512.10607	115.87659
38300.00000	116.13424	1507.78694	116.13424
38350.00000	116.25502	1504.39447	116.25502
38400.00000	116.30947	1500.13958	116.30947
38450.00000	116.49144	1495.43777	116.49144
38500.00000	116.62938	1490.47237	116.62938
38550.00000	116.81649	1487.06139	116.81649
38600.00000	116.98505	1482.52917	116.98505
38650.00000	117.12230	1477.76088	117.12230
38700.00000	117.19789	1472.64543	117.19789
38750.00000	117.34294	1468.10172	117.34294
38800.00000	117.46298	1463.41308	117.46298
38850.00000	117.56508	1458.20809	117.56508
38900.00000	117.68073	1452.89732	117.68073
38950.00000	117.69397	1447.30203	117.69397
39000.00000	117.72099	1441.86008	117.72099
39050.00000	117.80632	1436.25728	117.80632
39100.00000	117.66293	1430.53567	117.66293
39150.00000	117.57064	1424.77725	117.57064
39200.00000	117.54530	1419.28768	117.54530
39250.00000	117.41171	1413.35171	117.41171
39300.00000	117.26086	1407.65561	117.26086
39350.00000	117.04470	1402.98867	117.04470
39400.00000	116.82774	1397.01496	116.82774
39450.00000	116.53893	1392.17742	116.53893
39500.00000	116.31909	1386.93464	116.31909
39550.00000	115.95594	1381.57897	115.95594
39600.00000	115.59925	1376.84128	115.59925
39650.00000	115.29980	1372.47083	115.29980
39700.00000	114.90880	1368.57266	114.90880
39750.00000	114.59086	1363.95722	114.59086
39800.00000	114.20921	1360.06478	114.20921
39850.00000	113.79521	1355.98340	113.79521
39900.00000	113.41813	1352.66122	113.41813
39950.00000	113.01301	1348.73481	113.01301
40000.00000	112.53140	1347.19319	112.53140
40050.00000	112.32958	1342.83335	112.32958
40100.00000	111.88562	1339.75953	111.88562
40150.00000	111.44689	1337.13527	111.44689
40200.00000	111.15485	1334.34729	111.15485
40250.00000	110.77081	1332.04868	110.77081
40300.00000	110.55913	1329.78229	110.55913
40350.00000	110.01932	1328.26579	110.01932
40400.00000	109.56981	1326.08474	109.56981
40450.00000	109.27855	1324.31566	109.27855
40500.00000	109.06251	1323.18048	109.06251
40550.00000	108.74645	1320.07250	108.74645
40600.00000	108.37489	1319.15366	108.37489
40650.00000	108.16544	1318.18188	108.16544
40700.00000	107.74930	1317.48510	107.74930
40750.00000	107.65751	1315.75583	107.65751
40800.00000	107.25357	1314.75798	107.25357
40850.00000	107.02099	1314.29976	107.02099
40900.00000	106.69476	1312.70822	106.69476
40950.00000	106.44842	1313.39193	106.44842
41000.00000	105.99621	1312.76249	105.99621
41050.00000	106.07023	1312.38005	106.07023
41100.00000	105.92922	1310.58528	105.92922
41150.00000	105.69632	1312.53765	105.69632
41200.00000	105.57875	1312.02634	105.57875
41250.00000	105.44788	1309.32311	105.44788
41300.00000	104.90138	1311.43292	104.90138
41350.00000	104.93797	1312.24201	104.93797
41400.00000	104.61181	1308.18631	104.61181
41450.00000	104.95569	1309.57726	104.95569
41500.00000	104.42660	1310.13113	104.42660
41550.00000	104.35624	1313.56772	104.35624
41600.00000	103.90457	1313.03045	103.90457
41650.00000	104.09757	1312.33893	104.09757
41700.00000	104.11298	1310.55383	104.11298
41750.00000	104.18387	1316.16412	104.18387
41800.00000	102.87441	1310.73613	102.87441
41850.00000	102.93934	1311.32114	102.93934
41900.00000	102.45623	1314.42315	102.45623
41950.00000	103.55014	1320.62105	103.55014
42000.00000	102.69688	1313.73488	102.69688
42050.00000	101.83680	1314.37061	101.83680
42100.00000	102.22803	1315.62326	102.22803
42150.00000	102.01828	1315.55809	102.01828
42200.00000	101.34888	1319.26691	101.34888
42250.00000	101.55735	1322.04544	101.55735
42300.00000	100.52416	1319.17747	100.52416
42350.00000	100.71881	1324.43338	100.71881
42400.00000	100.45678	1323.52977	100.45678
42450.00000	101.21523	1320.07764	101.21523
42500.00000	100.31053	1321.26911	100.31053
42550.00000	100.24209	1335.01856	100.24209
42600.00000	100.33034	1326.65677	100.33034
42650.00000	100.54392	1324.68938	100.54392
42700.00000	99.96656	1330.53450	99.96656
42750.00000	100.94635	1323.69921	100.94635
42800.00000	100.61647	1321.27398	100.61647
42850.00000	100.03026	1319.45996	100.03026
42900.00000	101.37680	1327.16605	101.37680
42950.00000	100.29528	1316.67730	100.29528
43000.00000	101.18913	1304.34373	101.18913
43050.00000	101.10058	1306.12797	101.10058
43100.00000	101.00530	1311.14253	101.00530
43150.00000	99.74728	1306.11918	99.74728
43200.00000	100.68744	1297.58938	100.68744
43250.00000	100.81176	1298.97704	100.81176
43300.00000	101.45793	1295.98494	101.45793
43350.00000	103.30531	1288.52344	103.30531
43400.00000	102.15908	1287.80030	102.15908
43450.00000	103.41552	1283.69038	103.41552
43500.00000	102.02381	1277.36641	102.02381
43550.00000	103.04439	1269.90941	103.04439
43600.00000	102.74536	1269.40224	102.74536
43650.00000	103.95046	1257.20298	103.95046
43700.00000	103.62169	1255.26651	103.62169
43750.00000	103.29008	1256.88124	103.29008
43800.00000	104.06019	1247.25553	104.06019
43850.00000	104.57066	1238.36965	104.57066
43900.00000	104.65253	1234.71683	104.65253
43950.00000	105.30741	1228.80254	105.30741
44000.00000	104.85434	1225.26060	104.85434
44050.00000	104.78291	1218.76097	104.78291
44100.00000	105.31825	1204.17254	105.31825
44150.00000	105.14503	1205.11420	105.14503
44200.00000	105.22384	1204.49341	105.22384
44250.00000	105.75292	1196.18954	105.75292
44300.00000	106.11382	1186.71456	106.11382
44350.00000	104.90636	1182.93247	104.90636
44400.00000	105.92509	1176.82161	105.92509
44450.00000	106.14350	1172.51252	106.14350
44500.00000	106.09698	1169.34583	106.09698
44550.00000	107.34101	1158.25610	107.34101
44600.00000	106.21471	1160.43732	106.21471
44650.00000	105.79554	1149.99581	105.79554
44700.00000	105.69932	1145.33758	105.69932
44750.00000	105.85394	1142.22273	105.85394
44800.00000	106.09995	1133.33620	106.09995
44850.00000	105.56758	1128.14427	105.56758
44900.00000	105.23292	1127.46104	105.23292
44950.00000	105.02341	1120.84105	105.02341
45000.00000	105.44080	1109.38325	105.44080
45050.00000	104.03701	1115.98850	104.03701
45100.00000	104.36399	1106.77762	104.36399
45150.00000	104.50117	1097.10074	104.50117
45200.00000	103.66899	1098.19282	103.66899
45250.00000	103.63411	1093.62682	103.63411
45300.00000	103.46042	1088.73666	103.46042
45350.00000	102.78919	1079.57011	102.78919
45400.00000	103.07765	1078.45427	103.07765
45450.00000	102.84074	1072.56291	102.84074
45500.00000	101.34342	1066.86810	101.34342
45550.00000	101.07136	1071.71472	101.07136
45600.00000	102.10851	1061.88306	102.10851
45650.00000	100.69493	1057.09161	100.69493
45700.00000	100.19159	1053.93943	100.19159
45750.00000	101.13394	1057.79423	101.13394
45800.00000	99.83316	1046.02118	99.83316
45850.00000	99.15039	1047.73492	99.15039
45900.00000	99.59667	1042.41982	99.59667
45950.00000	98.46304	1048.31589	98.46304
46000.00000	97.30937	1031.17964	97.30937
46050.00000	97.85056	1032.57162	97.85056
46100.00000	96.31800	1037.11523	96.31800
46150.00000	95.79203	1033.59087	95.79203
46200.00000	93.76969	1024.46314	93.76969
46250.00000	95.27350	1025.32151	95.27350
46300.00000	94.54560	1025.15246	94.54560
46350.00000	95.39976	1020.52697	95.39976
46400.00000	93.79239	1016.37443	93.79239
46450.00000	92.36238	1020.51797	92.36238
46500.00000	93.23625	1023.18763	93.23625
46550.00000	93.00674	1029.95516	93.00674
46600.00000	93.05149	1023.75358	93.05149
46650.00000	90.18410	1024.15041	90.18410
46700.00000	89.74985	1034.73988	89.74985
46750.00000	91.06735	1037.60973	91.06735
46800.00000	88.65165	1038.47719	88.65165
46850.00000	89.92872	683.54527	89.92872
46900.00000	90.27746	679.37264	90.27746
46950.00000	91.53909	680.84690	91.53909
47000.00000	90.58035	688.03674	90.58035
47050.00000	92.75395	679.30195	92.75395
47100.00000	90.55535	682.81965	90.55535
47150.00000	92.12442	669.31400	92.12442
47200.00000	91.20509	680.96249	91.20509
47250.00000	93.35828	673.82919	93.35828
47300.00000	91.47990	665.64382	91.47990
47350.00000	91.34291	317.20117	91.34291
47400.00000	91.00860	316.46982	91.00860
47450.00000	92.47107	316.41627	92.47107
47500.00000	90.77389	299.70943	90.77389
47550.00000	91.03576	-49.25937	91.03576
47600.00000	91.07146	-61.18984	91.07146
47650.00000	92.53903	-62.51364	92.53903
47700.00000	91.42694	-56.80244	91.42694
47750.00000	88.80801	-61.43661	88.80801
47800.00000	90.75013	-69.79391	90.75013
47850.00000	91.06330	-419.24750	91.06330
47900.00000	91.42700	-772.86529	91.42700
47950.00000	91.35922	-777.95270	91.35922
48000.00000	90.48269	-770.07036	90.48269
48050.00000	91.63896	-783.42505	91.63896
48100.00000	90.24919	-778.39577	90.24919
48150.00000	90.51552	-1138.61139	90.51552
48200.00000	90.64290	-1131.76508	90.64290
48250.00000	91.07797	-1144.64948	91.07797
48300.00000	90.46400	-1143.05097	90.46400
48350.00000	90.23497	-1142.07791	90.23497
48400.00000	91.80456	-1492.23345	91.80456
48450.00000	92.21871	-1503.48417	92.21871
48500.00000	91.39839	-1505.32118	91.39839
48550.00000	90.91943	-1510.07446	90.91943
48600.00000	92.81313	-1858.98948	92.81313
48650.00000	93.49873	-1862.67565	93.49873
48700.00000	93.12829	-1876.90121	93.12829
48750.00000	91.85726	-2227.59358	91.85726
48800.00000	93.21905	-2233.76865	93.21905
48850.00000	93.46849	-2243.11017	93.46849
48900.00000	91.89345	-2596.84126	91.89345
48950.00000	93.00367	-2611.39625	93.00367
49000.00000	92.99889	-2610.15260	92.99889
49050.00000	92.63155	-2617.30709	92.63155
49100.00000	91.96298	-2967.24947	91.96298
49150.00000	93.78571	-3328.99110	93.78571
49200.00000	92.73517	-3339.93494	92.73517
49250.00000	92.08275	-3689.53847	92.08275
49300.00000	94.30544	-3356.84252	94.30544
49350.00000	90.74357	-3335.85188	90.74357
49400.00000	90.97337	-2985.30049	90.97337
49450.00000	89.78172	-2629.59281	89.78172
49500.00000	89.90961	-2273.35586	89.90961
49550.00000	89.97705	-1935.61286	89.97705
49600.00000	89.30199	-1910.50238	89.30199
49650.00000	90.79950	-1907.00351	90.79950
49700.00000	90.90454	-1560.51157	90.90454
49750.00000	89.73229	-1559.54988	89.73229
49800.00000	89.06569	-1565.60259	89.06569
49850.00000	87.44661	-1548.10179	87.44661
49900.00000	88.39942	-1187.76289	88.39942
49950.00000	90.68625	-857.81302	90.68625
