---ACOUSTIC CALIBRATION---
Filename: C:\Data\AZH DATA\AZH62\RightSecondary.calib
Date: 8/27/2019 4:15:00 PM
Format: 4
Probe Tube Correction File: C:\Data\Probe Tube Calibrations\50_ProbeTube.calib
Experiment VIs: 850
EPL_CFTS.exe V12.0.1 (2012)
DAQmx V9.6

Attenuation (dB): 40.000000
Min Freq (Hz): 50.000000
Max Freq (Hz): 49950.000000
Freq Step (Hz): 50.000000
Sample Rate (Hz): 100000.000000
[Smoothing]
Method=None
MA.Iterations=0
MA.Length=0
Loess.Length=0
Loess.Type=Linear
Loess.Robust=FALSE


Freq(Hz)	Mag(dB)	Phase(deg)	Unsmoothed(dB)

50.00000	97.10333	654.73893	97.10333
100.00000	75.59744	676.30454	75.59744
150.00000	66.33516	840.56707	66.33516
200.00000	75.33985	770.01272	75.33985
250.00000	85.18212	759.68305	85.18212
300.00000	85.03263	675.64167	85.03263
350.00000	81.59040	690.08812	81.59040
400.00000	84.26925	683.26820	84.26925
450.00000	84.25434	668.49656	84.25434
500.00000	86.24898	671.03788	86.24898
550.00000	88.38882	676.99936	88.38882
600.00000	91.76124	673.66313	91.76124
650.00000	92.42755	671.33071	92.42755
700.00000	94.13717	663.41606	94.13717
750.00000	95.91831	662.29362	95.91831
800.00000	99.18952	649.78232	99.18952
850.00000	101.02189	640.84274	101.02189
900.00000	102.65092	623.76766	102.65092
950.00000	103.76525	606.15746	103.76525
1000.00000	103.59651	588.41756	103.59651
1050.00000	103.02247	579.57713	103.02247
1100.00000	103.10482	567.34164	103.10482
1150.00000	102.16076	556.70065	102.16076
1200.00000	101.85618	554.28097	101.85618
1250.00000	101.87844	542.85365	101.87844
1300.00000	100.51031	537.28646	100.51031
1350.00000	99.83513	533.23660	99.83513
1400.00000	99.09840	532.58373	99.09840
1450.00000	99.25201	533.40313	99.25201
1500.00000	99.26244	531.13952	99.26244
1550.00000	99.34287	530.72122	99.34287
1600.00000	100.23132	526.00352	100.23132
1650.00000	100.70862	518.71145	100.70862
1700.00000	99.47042	514.23869	99.47042
1750.00000	99.30067	512.77859	99.30067
1800.00000	99.12351	508.84311	99.12351
1850.00000	98.51582	513.13885	98.51582
1900.00000	99.78851	514.22186	99.78851
1950.00000	100.42627	505.04383	100.42627
2000.00000	100.30199	497.22239	100.30199
2050.00000	99.16773	493.54770	99.16773
2100.00000	99.11411	491.69412	99.11411
2150.00000	98.93774	487.24704	98.93774
2200.00000	98.34475	484.14615	98.34475
2250.00000	97.48559	482.96543	97.48559
2300.00000	97.52120	485.43502	97.52120
2350.00000	97.16717	482.82781	97.16717
2400.00000	96.81885	483.00800	96.81885
2450.00000	96.76650	482.28722	96.76650
2500.00000	96.24820	483.55833	96.24820
2550.00000	95.91831	484.99885	95.91831
2600.00000	95.74154	490.88236	95.74154
2650.00000	96.74980	500.25729	96.74980
2700.00000	98.48684	501.42475	98.48684
2750.00000	100.06127	495.03029	100.06127
2800.00000	100.73712	485.11977	100.73712
2850.00000	100.60045	477.04184	100.60045
2900.00000	100.30496	470.35279	100.30496
2950.00000	99.81866	466.28003	99.81866
3000.00000	99.44894	462.67894	99.44894
3050.00000	98.96307	459.53808	98.96307
3100.00000	98.68212	458.14840	98.68212
3150.00000	98.26298	453.59624	98.26298
3200.00000	97.62209	451.78735	97.62209
3250.00000	96.82355	450.79640	96.82355
3300.00000	95.85059	450.49186	95.85059
3350.00000	94.76005	453.57387	94.76005
3400.00000	93.94425	462.48531	93.94425
3450.00000	93.97099	471.14469	93.97099
3500.00000	94.64976	477.22024	94.64976
3550.00000	95.19553	479.79088	95.19553
3600.00000	95.36854	481.53463	95.36854
3650.00000	95.20335	483.23404	95.20335
3700.00000	94.96925	492.47839	94.96925
3750.00000	95.71829	503.95975	95.71829
3800.00000	97.34870	512.28467	97.34870
3850.00000	99.39006	516.49399	99.39006
3900.00000	101.26838	516.75915	101.26838
3950.00000	103.02047	514.27706	103.02047
4000.00000	104.25755	510.73333	104.25755
4050.00000	105.40696	505.54658	105.40696
4100.00000	106.36741	501.62127	106.36741
4150.00000	107.32741	498.54444	107.32741
4200.00000	107.96716	494.91871	107.96716
4250.00000	108.89632	492.42799	108.89632
4300.00000	109.80629	490.01617	109.80629
4350.00000	110.79792	487.66778	110.79792
4400.00000	111.92045	484.96815	111.92045
4450.00000	113.18752	482.00902	113.18752
4500.00000	114.51990	477.48444	114.51990
4550.00000	115.93405	471.71472	115.93405
4600.00000	117.31732	464.58238	117.31732
4650.00000	118.71780	456.08427	118.71780
4700.00000	120.04233	445.49157	120.04233
4750.00000	121.18366	432.89236	121.18366
4800.00000	122.03175	418.36997	122.03175
4850.00000	122.42908	402.80346	122.42908
4900.00000	122.32719	387.15796	122.32719
4950.00000	121.73816	372.67420	121.73816
5000.00000	120.68751	360.68801	120.68751
5050.00000	119.62837	352.54651	119.62837
5100.00000	118.41032	343.07125	118.41032
5150.00000	115.92994	340.82809	115.92994
5200.00000	114.90552	359.23612	114.90552
5250.00000	117.99079	364.25899	117.99079
5300.00000	119.66525	350.84380	119.66525
5350.00000	119.93201	337.37747	119.93201
5400.00000	119.65333	326.53251	119.65333
5450.00000	119.21322	317.89608	119.21322
5500.00000	118.73154	310.52192	118.73154
5550.00000	118.26027	304.15294	118.26027
5600.00000	117.79552	298.33817	117.79552
5650.00000	117.35612	293.08016	117.35612
5700.00000	116.91251	287.96269	116.91251
5750.00000	116.49775	283.38174	116.49775
5800.00000	116.08225	278.93795	116.08225
5850.00000	115.69872	274.64735	115.69872
5900.00000	115.32385	270.58013	115.32385
5950.00000	114.95593	266.68395	114.95593
6000.00000	114.60131	263.02266	114.60131
6050.00000	114.23558	259.32524	114.23558
6100.00000	113.89533	255.78166	113.89533
6150.00000	113.55430	252.30522	113.55430
6200.00000	113.20556	248.96824	113.20556
6250.00000	112.88702	245.73437	112.88702
6300.00000	112.57549	242.56145	112.57549
6350.00000	112.24850	239.36385	112.24850
6400.00000	111.92611	236.37616	111.92611
6450.00000	111.63333	233.36575	111.63333
6500.00000	111.29700	230.50403	111.29700
6550.00000	110.96885	227.82371	110.96885
6600.00000	110.66370	225.28164	110.66370
6650.00000	110.35642	222.79008	110.35642
6700.00000	110.05102	220.28176	110.05102
6750.00000	109.74444	218.02849	109.74444
6800.00000	109.45506	215.91588	109.45506
6850.00000	109.16793	213.93395	109.16793
6900.00000	108.90281	212.04170	108.90281
6950.00000	108.65158	210.37846	108.65158
7000.00000	108.43802	208.72157	108.43802
7050.00000	108.22500	206.94230	108.22500
7100.00000	108.05440	205.16760	108.05440
7150.00000	107.87124	203.72014	107.87124
7200.00000	107.69095	202.20011	107.69095
7250.00000	107.51896	200.81059	107.51896
7300.00000	107.42030	199.56362	107.42030
7350.00000	107.31007	198.41062	107.31007
7400.00000	107.25441	197.22755	107.25441
7450.00000	107.23122	195.96581	107.23122
7500.00000	107.25750	194.75885	107.25750
7550.00000	107.32236	193.38598	107.32236
7600.00000	107.39256	191.70935	107.39256
7650.00000	107.49242	189.83956	107.49242
7700.00000	107.64603	187.89393	107.64603
7750.00000	107.75329	185.57988	107.75329
7800.00000	107.91176	182.98413	107.91176
7850.00000	108.05428	180.12258	108.05428
7900.00000	108.18526	177.06397	108.18526
7950.00000	108.28520	173.63357	108.28520
8000.00000	108.37248	169.98640	108.37248
8050.00000	108.43017	165.97687	108.43017
8100.00000	108.47059	162.44604	108.47059
8150.00000	108.40917	158.50739	108.40917
8200.00000	108.36450	154.78330	108.36450
8250.00000	108.26081	150.58894	108.26081
8300.00000	108.18318	146.60871	108.18318
8350.00000	108.02474	142.72777	108.02474
8400.00000	107.82816	138.46490	107.82816
8450.00000	107.54737	134.72322	107.54737
8500.00000	107.28295	131.06539	107.28295
8550.00000	107.05057	127.87053	107.05057
8600.00000	106.75696	124.32370	106.75696
8650.00000	106.44223	121.08234	106.44223
8700.00000	106.16865	117.48124	106.16865
8750.00000	105.80478	115.23965	105.80478
8800.00000	105.50358	111.97212	105.50358
8850.00000	105.15993	109.17107	105.15993
8900.00000	104.86560	106.78329	104.86560
8950.00000	104.58028	104.18924	104.58028
9000.00000	104.25252	102.11256	104.25252
9050.00000	104.06082	99.64267	104.06082
9100.00000	103.83284	97.68914	103.83284
9150.00000	103.63791	95.75501	103.63791
9200.00000	103.48059	93.84346	103.48059
9250.00000	103.25689	91.96052	103.25689
9300.00000	103.09408	90.25950	103.09408
9350.00000	102.95148	88.35860	102.95148
9400.00000	102.71261	86.92461	102.71261
9450.00000	102.60457	85.20616	102.60457
9500.00000	102.51473	83.44274	102.51473
9550.00000	102.36558	81.49188	102.36558
9600.00000	102.31378	79.25593	102.31378
9650.00000	102.22387	76.98467	102.22387
9700.00000	102.16091	75.35715	102.16091
9750.00000	102.15035	72.62311	102.15035
9800.00000	102.03127	71.04609	102.03127
9850.00000	101.91976	69.61941	101.91976
9900.00000	101.65481	67.59534	101.65481
9950.00000	101.47268	66.13289	101.47268
10000.00000	101.26782	63.80765	101.26782
10050.00000	101.02323	61.76111	101.02323
10100.00000	100.77341	59.60152	100.77341
10150.00000	100.49529	56.57835	100.49529
10200.00000	100.33379	54.02397	100.33379
10250.00000	100.15057	51.40626	100.15057
10300.00000	100.13228	49.08465	100.13228
10350.00000	100.00656	47.19595	100.00656
10400.00000	99.84009	45.22976	99.84009
10450.00000	99.80467	43.30566	99.80467
10500.00000	99.73059	41.64603	99.73059
10550.00000	99.58769	39.71971	99.58769
10600.00000	99.40773	37.90307	99.40773
10650.00000	99.22133	36.18690	99.22133
10700.00000	99.07977	33.04385	99.07977
10750.00000	99.01933	30.50790	99.01933
10800.00000	98.86864	28.20154	98.86864
10850.00000	98.78375	25.07781	98.78375
10900.00000	98.70615	23.06464	98.70615
10950.00000	98.58001	21.34712	98.58001
11000.00000	98.41754	19.39804	98.41754
11050.00000	98.08830	17.48741	98.08830
11100.00000	97.84143	14.96514	97.84143
11150.00000	97.49251	12.90665	97.49251
11200.00000	97.29984	10.64168	97.29984
11250.00000	96.99157	 8.03900	96.99157
11300.00000	96.70642	 5.81418	96.70642
11350.00000	96.50406	 4.37228	96.50406
11400.00000	96.20049	 2.87897	96.20049
11450.00000	96.00431	 1.08032	96.00431
11500.00000	95.89486	 0.51831	95.89486
11550.00000	95.56594	-0.47334	95.56594
11600.00000	95.43031	-2.49682	95.43031
11650.00000	95.19866	-2.90775	95.19866
11700.00000	95.08015	-4.27441	95.08015
11750.00000	95.03483	-5.77963	95.03483
11800.00000	94.97575	-7.59650	94.97575
11850.00000	94.98722	-7.98446	94.98722
11900.00000	94.76724	-9.79474	94.76724
11950.00000	94.73970	-10.82157	94.73970
12000.00000	94.57739	-12.10137	94.57739
12050.00000	94.38636	-13.59516	94.38636
12100.00000	94.28979	-16.34431	94.28979
12150.00000	94.17149	-18.79015	94.17149
12200.00000	94.15352	-21.36828	94.15352
12250.00000	94.07848	-23.18196	94.07848
12300.00000	95.10224	-25.71176	95.10224
12350.00000	93.86771	-27.82357	93.86771
12400.00000	93.66335	-29.06644	93.66335
12450.00000	93.44208	-30.78792	93.44208
12500.00000	93.18651	-33.27766	93.18651
12550.00000	92.89867	-35.42706	92.89867
12600.00000	92.53755	-37.66676	92.53755
12650.00000	92.47425	-39.52038	92.47425
12700.00000	92.11794	-41.39070	92.11794
12750.00000	91.82591	-43.28498	91.82591
12800.00000	91.56926	-44.21932	91.56926
12850.00000	91.01800	-45.29177	91.01800
12900.00000	90.80331	-46.84727	90.80331
12950.00000	90.61673	-48.34046	90.61673
13000.00000	90.40104	-50.27542	90.40104
13050.00000	90.25264	-49.95511	90.25264
13100.00000	90.00324	-50.93512	90.00324
13150.00000	89.82549	-52.58690	89.82549
13200.00000	89.56880	-51.92398	89.56880
13250.00000	89.20839	-52.72269	89.20839
13300.00000	88.90612	-51.82938	88.90612
13350.00000	88.65447	-53.89967	88.65447
13400.00000	88.72962	-55.49401	88.72962
13450.00000	88.38749	-54.85969	88.38749
13500.00000	88.37014	-54.40952	88.37014
13550.00000	88.04805	-55.20158	88.04805
13600.00000	87.84507	-54.99699	87.84507
13650.00000	87.69576	-55.11731	87.69576
13700.00000	87.25246	-56.07215	87.25246
13750.00000	87.01781	-56.06490	87.01781
13800.00000	86.68670	-57.54590	86.68670
13850.00000	86.53643	-58.84546	86.53643
13900.00000	86.37083	-59.09461	86.37083
13950.00000	86.47702	-58.90057	86.47702
14000.00000	86.49523	-58.14292	86.49523
14050.00000	86.51424	-57.54706	86.51424
14100.00000	86.33629	-56.37569	86.33629
14150.00000	86.21638	-56.18466	86.21638
14200.00000	86.22439	-55.52302	86.22439
14250.00000	86.40210	-53.93284	86.40210
14300.00000	86.40588	-53.66162	86.40588
14350.00000	86.20377	-52.21296	86.20377
14400.00000	85.96212	-53.12375	85.96212
14450.00000	85.98540	-53.14753	85.98540
14500.00000	86.10203	-54.08310	86.10203
14550.00000	86.26589	-53.67360	86.26589
14600.00000	86.29844	-53.91085	86.29844
14650.00000	86.56797	-51.70309	86.56797
14700.00000	86.60706	-54.95598	86.60706
14750.00000	86.66067	-54.09509	86.66067
14800.00000	86.48845	-53.62018	86.48845
14850.00000	86.84935	-54.50092	86.84935
14900.00000	86.97030	-55.14325	86.97030
14950.00000	87.13095	-56.12745	87.13095
15000.00000	87.39258	-58.01101	87.39258
15050.00000	87.12527	-56.79622	87.12527
15100.00000	87.38795	-56.45800	87.38795
15150.00000	87.78355	-57.91892	87.78355
15200.00000	87.72956	-56.28168	87.72956
15250.00000	87.61158	-57.90544	87.61158
15300.00000	87.82107	-57.41897	87.82107
15350.00000	87.76039	-58.58663	87.76039
15400.00000	87.72120	-57.66454	87.72120
15450.00000	87.80077	-59.27583	87.80077
15500.00000	88.07301	-60.15712	88.07301
15550.00000	88.26425	-61.40035	88.26425
15600.00000	88.57163	-62.65356	88.57163
15650.00000	88.85762	-60.54702	88.85762
15700.00000	88.85701	-62.38421	88.85701
15750.00000	89.07460	-62.02433	89.07460
15800.00000	89.29442	-61.57239	89.29442
15850.00000	89.27188	-63.10496	89.27188
15900.00000	89.36014	-63.87354	89.36014
15950.00000	89.90498	-63.16745	89.90498
16000.00000	89.86897	-63.60978	89.86897
16050.00000	90.24537	-65.33497	90.24537
16100.00000	90.19620	-67.02205	90.19620
16150.00000	90.40764	-67.90111	90.40764
16200.00000	90.75305	-70.06490	90.75305
16250.00000	91.05171	-69.05685	91.05171
16300.00000	91.39904	-70.04456	91.39904
16350.00000	91.52903	-70.72390	91.52903
16400.00000	91.72078	-72.07139	91.72078
16450.00000	91.82866	-73.37969	91.82866
16500.00000	92.15207	-75.35172	92.15207
16550.00000	92.38291	-76.34847	92.38291
16600.00000	92.70490	-77.71710	92.70490
16650.00000	92.94313	-78.77587	92.94313
16700.00000	93.14994	-79.82035	93.14994
16750.00000	93.31895	-81.38572	93.31895
16800.00000	93.51754	-83.75080	93.51754
16850.00000	93.91630	-85.23904	93.91630
16900.00000	94.14854	-86.59452	94.14854
16950.00000	94.40847	-87.58793	94.40847
17000.00000	94.49769	-88.95772	94.49769
17050.00000	94.81548	-90.52334	94.81548
17100.00000	94.96686	-92.28606	94.96686
17150.00000	95.37104	-94.67321	95.37104
17200.00000	95.62992	-96.76620	95.62992
17250.00000	95.76848	-98.72244	95.76848
17300.00000	96.01218	-100.69402	96.01218
17350.00000	96.06567	-102.27884	96.06567
17400.00000	96.29897	-104.59150	96.29897
17450.00000	96.37591	-107.60529	96.37591
17500.00000	96.67014	-109.08731	96.67014
17550.00000	96.83025	-111.04442	96.83025
17600.00000	97.10107	-112.48405	97.10107
17650.00000	97.19574	-115.41020	97.19574
17700.00000	97.33741	-117.49376	97.33741
17750.00000	97.72212	-119.11308	97.72212
17800.00000	97.75542	-121.13358	97.75542
17850.00000	97.96229	-122.78597	97.96229
17900.00000	98.09976	-124.07510	98.09976
17950.00000	98.37257	-127.16252	98.37257
18000.00000	98.54820	-129.84672	98.54820
18050.00000	98.92287	-131.07811	98.92287
18100.00000	99.04799	-134.03275	99.04799
18150.00000	99.23024	-135.09943	99.23024
18200.00000	99.36383	-138.34245	99.36383
18250.00000	99.64384	-139.71312	99.64384
18300.00000	99.88886	-142.23808	99.88886
18350.00000	100.15029	-144.55858	100.15029
18400.00000	100.28969	-147.31134	100.28969
18450.00000	100.42401	-150.86223	100.42401
18500.00000	100.67070	-153.26571	100.67070
18550.00000	100.84031	-155.42199	100.84031
18600.00000	101.19608	-158.63189	101.19608
18650.00000	101.23597	-160.72260	101.23597
18700.00000	101.40933	-163.94157	101.40933
18750.00000	101.65116	-166.51942	101.65116
18800.00000	101.96687	-168.70336	101.96687
18850.00000	102.04189	-171.91273	102.04189
18900.00000	102.26687	-174.57205	102.26687
18950.00000	102.49426	-178.27550	102.49426
19000.00000	102.55583	-180.90358	102.55583
19050.00000	102.87525	-184.34043	102.87525
19100.00000	103.00544	-187.59887	103.00544
19150.00000	103.32618	-191.09040	103.32618
19200.00000	103.46812	-194.12438	103.46812
19250.00000	103.55287	-198.94183	103.55287
19300.00000	103.61648	-202.04120	103.61648
19350.00000	103.72821	-205.88641	103.72821
19400.00000	103.77454	-209.49060	103.77454
19450.00000	103.91518	-212.58275	103.91518
19500.00000	103.85100	-217.17926	103.85100
19550.00000	103.91637	-220.75616	103.91637
19600.00000	104.00756	-225.00490	104.00756
19650.00000	103.93281	-228.09385	103.93281
19700.00000	103.82152	-231.64182	103.82152
19750.00000	103.79837	-234.67800	103.79837
19800.00000	103.81783	-239.08444	103.81783
19850.00000	103.80696	-242.17413	103.80696
19900.00000	103.70909	-246.25085	103.70909
19950.00000	103.61662	-249.39587	103.61662
20000.00000	103.54172	-252.84820	103.54172
20050.00000	103.48041	-256.08650	103.48041
20100.00000	103.30004	-259.35958	103.30004
20150.00000	103.28918	-261.61635	103.28918
20200.00000	103.13058	-265.45566	103.13058
20250.00000	102.95118	-268.36327	102.95118
20300.00000	102.74335	-271.39253	102.74335
20350.00000	102.67625	-274.45883	102.67625
20400.00000	102.47283	-276.40814	102.47283
20450.00000	102.24007	-279.21095	102.24007
20500.00000	102.13018	-281.93547	102.13018
20550.00000	101.73119	-283.58339	101.73119
20600.00000	101.64904	-285.56068	101.64904
20650.00000	101.47135	-287.58462	101.47135
20700.00000	101.24356	-289.29237	101.24356
20750.00000	101.12837	-290.70715	101.12837
20800.00000	100.93364	-291.76948	100.93364
20850.00000	100.86250	-293.04766	100.86250
20900.00000	100.69538	-293.95241	100.69538
20950.00000	100.61177	-294.29791	100.61177
21000.00000	100.57501	-294.91605	100.57501
21050.00000	100.72140	-295.14173	100.72140
21100.00000	100.74627	-295.51270	100.74627
21150.00000	100.91845	-296.43772	100.91845
21200.00000	101.11184	-296.98670	101.11184
21250.00000	101.29612	-299.22634	101.29612
21300.00000	101.57619	-300.12753	101.57619
21350.00000	101.75708	-301.63730	101.75708
21400.00000	101.97292	-303.97353	101.97292
21450.00000	102.18299	-306.24001	102.18299
21500.00000	102.41243	-309.11582	102.41243
21550.00000	102.50981	-311.36067	102.50981
21600.00000	102.72362	-314.24150	102.72362
21650.00000	102.79208	-317.19587	102.79208
21700.00000	102.90266	-319.90575	102.90266
21750.00000	102.98831	-322.83774	102.98831
21800.00000	103.05725	-325.87529	103.05725
21850.00000	103.02213	-328.53794	103.02213
21900.00000	103.08221	-331.35205	103.08221
21950.00000	103.07328	-333.99432	103.07328
22000.00000	103.15784	-336.81199	103.15784
22050.00000	103.13170	-338.97737	103.13170
22100.00000	103.11249	-341.56898	103.11249
22150.00000	103.04939	-344.04233	103.04939
22200.00000	103.10662	-346.58421	103.10662
22250.00000	103.02818	-348.68616	103.02818
22300.00000	102.91048	-350.80065	102.91048
22350.00000	102.98088	-353.43494	102.98088
22400.00000	102.96361	-355.75951	102.96361
22450.00000	102.89668	-357.63385	102.89668
22500.00000	102.78964	-358.86690	102.78964
22550.00000	102.75411	-361.02218	102.75411
22600.00000	102.76672	-363.66022	102.76672
22650.00000	102.74221	-365.42004	102.74221
22700.00000	102.70756	-367.07112	102.70756
22750.00000	102.61389	-367.03797	102.61389
22800.00000	102.66865	-370.97490	102.66865
22850.00000	102.71767	-373.40022	102.71767
22900.00000	102.74533	-373.51565	102.74533
22950.00000	102.79575	-375.18698	102.79575
23000.00000	102.74450	-376.53697	102.74450
23050.00000	102.73560	-378.74875	102.73560
23100.00000	102.84968	-379.59383	102.84968
23150.00000	102.85716	-380.51317	102.85716
23200.00000	102.98589	-383.74210	102.98589
23250.00000	102.89210	-385.95039	102.89210
23300.00000	103.17551	-387.60422	103.17551
23350.00000	103.00618	-390.04548	103.00618
23400.00000	103.13695	-391.19836	103.13695
23450.00000	103.29040	-393.14938	103.29040
23500.00000	103.20546	-394.07520	103.20546
23550.00000	103.24337	-394.84191	103.24337
23600.00000	103.25974	-398.61949	103.25974
23650.00000	103.41290	-400.28918	103.41290
23700.00000	103.65160	-403.81516	103.65160
23750.00000	103.68947	-404.50459	103.68947
23800.00000	103.47256	-405.76501	103.47256
23850.00000	103.72306	-406.79501	103.72306
23900.00000	104.19213	-409.85745	104.19213
23950.00000	103.87408	-412.69093	103.87408
24000.00000	103.85181	-415.96213	103.85181
24050.00000	104.05420	-416.37931	104.05420
24100.00000	104.29774	-420.12747	104.29774
24150.00000	104.41419	-422.34808	104.41419
24200.00000	104.48060	-426.50882	104.48060
24250.00000	104.21283	-426.76991	104.21283
24300.00000	104.54037	-429.88741	104.54037
24350.00000	104.55250	-432.95694	104.55250
24400.00000	104.53173	-435.98714	104.53173
24450.00000	104.35015	-438.13417	104.35015
24500.00000	104.94038	-440.07042	104.94038
24550.00000	104.71045	-445.19315	104.71045
24600.00000	105.31890	-86.44995	105.31890
24650.00000	104.92690	268.53995	104.92690
24700.00000	104.86613	628.45390	104.86613
24750.00000	104.90574	983.24501	104.90574
24800.00000	104.93534	1340.12804	104.93534
24850.00000	104.67891	1698.18988	104.67891
24900.00000	104.70412	2057.28674	104.70412
24950.00000	104.77365	2412.02920	104.77365
25000.00000	104.78250	2403.66594	104.78250
25050.00000	104.85117	2404.02927	104.85117
25100.00000	104.46521	2399.31305	104.46521
25150.00000	104.61922	2398.36146	104.61922
25200.00000	104.43111	2393.12483	104.43111
25250.00000	104.53883	2391.93053	104.53883
25300.00000	104.39882	2389.10391	104.39882
25350.00000	104.33266	2382.46402	104.33266
25400.00000	104.20484	2377.56571	104.20484
25450.00000	104.17218	2375.92408	104.17218
25500.00000	103.88023	2373.49493	103.88023
25550.00000	103.76510	2369.14958	103.76510
25600.00000	103.72688	2366.59772	103.72688
25650.00000	103.51921	2364.52769	103.51921
25700.00000	103.40769	2361.06655	103.40769
25750.00000	103.10124	2357.61673	103.10124
25800.00000	102.98502	2353.58178	102.98502
25850.00000	102.85882	2351.20599	102.85882
25900.00000	102.78580	2346.95099	102.78580
25950.00000	102.38291	2347.81919	102.38291
26000.00000	102.30953	2342.56494	102.30953
26050.00000	102.13258	2339.66546	102.13258
26100.00000	102.07063	2337.27733	102.07063
26150.00000	101.82386	2334.46019	101.82386
26200.00000	101.74175	2331.29272	101.74175
26250.00000	101.61861	2327.63887	101.61861
26300.00000	101.53375	2324.47120	101.53375
26350.00000	100.99240	2323.42789	100.99240
26400.00000	100.88677	2320.22471	100.88677
26450.00000	101.07100	2317.00625	101.07100
26500.00000	100.67253	2313.90474	100.67253
26550.00000	100.42156	2308.48007	100.42156
26600.00000	100.32082	2305.97161	100.32082
26650.00000	100.20027	2306.10814	100.20027
26700.00000	100.09490	2301.95556	100.09490
26750.00000	99.68771	2299.40079	99.68771
26800.00000	99.49392	2293.53127	99.49392
26850.00000	99.67723	2293.74291	99.67723
26900.00000	99.52181	2291.22783	99.52181
26950.00000	99.47503	2286.68324	99.47503
27000.00000	98.84649	2285.93554	98.84649
27050.00000	99.11527	2281.93936	99.11527
27100.00000	98.52728	2279.92791	98.52728
27150.00000	98.38013	2276.04963	98.38013
27200.00000	98.43448	2274.59173	98.43448
27250.00000	97.84831	2272.69811	97.84831
27300.00000	97.57537	2268.44425	97.57537
27350.00000	97.51712	2268.27232	97.51712
27400.00000	97.07927	2265.33059	97.07927
27450.00000	96.84605	2262.73563	96.84605
27500.00000	96.72666	2262.38700	96.72666
27550.00000	96.61072	2259.03790	96.61072
27600.00000	96.71250	2255.86840	96.71250
27650.00000	96.09722	2256.00284	96.09722
27700.00000	96.05604	2250.42246	96.05604
27750.00000	95.88057	2248.51200	95.88057
27800.00000	95.93896	2245.38509	95.93896
27850.00000	95.84929	2247.61443	95.84929
27900.00000	95.32744	2245.44114	95.32744
27950.00000	94.68004	2242.37669	94.68004
28000.00000	94.77038	2241.91755	94.77038
28050.00000	95.11320	2238.04589	95.11320
28100.00000	94.34876	2236.94306	94.34876
28150.00000	94.39096	2236.50868	94.39096
28200.00000	94.43648	2231.21275	94.43648
28250.00000	93.98847	2228.56574	93.98847
28300.00000	93.64011	2229.10326	93.64011
28350.00000	93.44773	2228.63267	93.44773
28400.00000	93.55099	2228.47530	93.55099
28450.00000	93.98180	2224.08179	93.98180
28500.00000	93.10549	2225.58803	93.10549
28550.00000	93.22062	2225.50094	93.22062
28600.00000	93.13864	2224.09227	93.13864
28650.00000	93.18239	2219.28737	93.18239
28700.00000	92.87035	2220.69685	92.87035
28750.00000	93.53904	2221.13224	93.53904
28800.00000	92.87877	2220.07427	92.87877
28850.00000	92.45367	2214.20670	92.45367
28900.00000	92.49633	2215.52249	92.49633
28950.00000	92.17563	2217.03789	92.17563
29000.00000	92.49252	2214.15454	92.49252
29050.00000	92.01782	2216.85538	92.01782
29100.00000	92.02851	2215.15151	92.02851
29150.00000	91.65316	2213.94435	91.65316
29200.00000	91.73645	2212.83248	91.73645
29250.00000	91.87559	2211.57105	91.87559
29300.00000	91.70271	2210.75306	91.70271
29350.00000	91.78323	2210.17650	91.78323
29400.00000	91.68361	2208.82350	91.68361
29450.00000	91.42983	2209.65499	91.42983
29500.00000	91.86201	2211.44238	91.86201
29550.00000	91.64809	2207.71229	91.64809
29600.00000	91.53335	2208.76397	91.53335
29650.00000	91.61325	2208.83713	91.61325
29700.00000	91.59258	2209.46344	91.59258
29750.00000	91.55306	2210.23829	91.55306
29800.00000	91.31676	2209.27219	91.31676
29850.00000	91.41057	2208.57392	91.41057
29900.00000	91.68368	2210.19659	91.68368
29950.00000	90.69051	2210.60936	90.69051
30000.00000	91.45843	2212.34893	91.45843
30050.00000	91.50988	2212.43210	91.50988
30100.00000	91.31204	2214.94237	91.31204
30150.00000	91.45182	2213.04716	91.45182
30200.00000	91.68503	2212.95154	91.68503
30250.00000	91.60641	2215.10220	91.60641
30300.00000	91.57682	2217.39971	91.57682
30350.00000	91.73421	2219.49467	91.73421
30400.00000	91.85645	2219.33335	91.85645
30450.00000	91.78762	2221.00857	91.78762
30500.00000	92.06439	2220.28948	92.06439
30550.00000	92.18473	2223.67732	92.18473
30600.00000	92.42882	2226.03808	92.42882
30650.00000	92.86001	2227.37493	92.86001
30700.00000	93.03844	2228.27233	93.03844
30750.00000	93.36332	2230.79064	93.36332
30800.00000	93.73928	2232.32181	93.73928
30850.00000	94.18364	2234.60965	94.18364
30900.00000	94.47269	2236.60712	94.47269
30950.00000	95.15373	2236.68532	95.15373
31000.00000	95.80635	2236.44459	95.80635
31050.00000	96.28060	2237.51641	96.28060
31100.00000	97.09018	2238.46374	97.09018
31150.00000	97.35410	2237.93683	97.35410
31200.00000	98.30685	2237.02526	98.30685
31250.00000	98.81153	2236.53375	98.81153
31300.00000	99.47945	2234.68358	99.47945
31350.00000	100.18157	2233.25052	100.18157
31400.00000	100.62720	2230.17143	100.62720
31450.00000	101.26147	2227.70723	101.26147
31500.00000	101.73928	2224.36118	101.73928
31550.00000	102.30175	2221.85005	102.30175
31600.00000	102.82635	2217.32401	102.82635
31650.00000	103.21875	2213.84405	103.21875
31700.00000	103.59871	2210.63208	103.59871
31750.00000	104.02537	2207.78843	104.02537
31800.00000	104.24387	2202.81056	104.24387
31850.00000	104.63342	2198.12058	104.63342
31900.00000	104.66550	2194.73523	104.66550
31950.00000	104.98879	2190.62051	104.98879
32000.00000	105.18790	2186.14874	105.18790
32050.00000	105.34770	2182.06752	105.34770
32100.00000	105.36657	2177.37598	105.36657
32150.00000	105.52576	2173.65177	105.52576
32200.00000	105.61368	2169.25369	105.61368
32250.00000	105.60430	2164.21559	105.60430
32300.00000	105.58745	2160.97922	105.58745
32350.00000	105.57764	2157.60228	105.57764
32400.00000	105.62348	2153.67322	105.62348
32450.00000	105.51133	2149.41763	105.51133
32500.00000	105.59779	2146.81504	105.59779
32550.00000	105.62923	2142.25004	105.62923
32600.00000	105.47426	2138.62696	105.47426
32650.00000	105.48142	2134.45121	105.48142
32700.00000	105.32077	2130.80347	105.32077
32750.00000	105.13086	2127.10184	105.13086
32800.00000	105.14560	2124.45495	105.14560
32850.00000	105.15892	2120.68542	105.15892
32900.00000	104.89485	2116.88165	104.89485
32950.00000	104.68558	2112.66452	104.68558
33000.00000	104.54782	2112.31031	104.54782
33050.00000	104.42356	2107.18760	104.42356
33100.00000	104.31939	2105.18323	104.31939
33150.00000	104.31656	2102.74511	104.31656
33200.00000	104.35003	2101.37294	104.35003
33250.00000	104.00471	2097.58077	104.00471
33300.00000	104.15233	2094.97966	104.15233
33350.00000	103.95516	2092.25232	103.95516
33400.00000	103.80474	2090.55227	103.80474
33450.00000	103.90097	2086.32209	103.90097
33500.00000	103.72494	2087.26741	103.72494
33550.00000	103.76324	2082.30950	103.76324
33600.00000	103.82249	2080.78028	103.82249
33650.00000	103.86189	2077.83487	103.86189
33700.00000	104.01697	2076.25079	104.01697
33750.00000	103.79329	2073.22032	103.79329
33800.00000	103.99605	2070.91073	103.99605
33850.00000	103.91147	2068.85589	103.91147
33900.00000	104.12723	2065.19802	104.12723
33950.00000	104.25678	2062.99953	104.25678
34000.00000	104.36003	2058.95676	104.36003
34050.00000	104.36218	2056.80795	104.36218
34100.00000	104.31649	2054.59229	104.31649
34150.00000	104.39229	2051.08013	104.39229
34200.00000	104.36937	2048.33207	104.36937
34250.00000	104.43649	2045.00978	104.43649
34300.00000	104.28210	2041.87123	104.28210
34350.00000	104.40641	2039.03142	104.40641
34400.00000	104.32976	2038.85549	104.32976
34450.00000	104.57149	2032.65975	104.57149
34500.00000	104.55403	2031.53241	104.55403
34550.00000	104.54940	2028.32757	104.54940
34600.00000	104.21434	2023.84611	104.21434
34650.00000	104.79825	2024.71639	104.79825
34700.00000	104.52069	2020.72325	104.52069
34750.00000	104.67186	2015.69202	104.67186
34800.00000	104.64884	2016.27912	104.64884
34850.00000	104.89427	2015.13541	104.89427
34900.00000	105.24483	2009.78843	105.24483
34950.00000	105.13629	2008.85189	105.13629
35000.00000	105.18510	2004.76434	105.18510
35050.00000	105.11592	2004.28295	105.11592
35100.00000	105.33534	2001.59568	105.33534
35150.00000	105.12877	1999.32891	105.12877
35200.00000	105.23698	1996.73570	105.23698
35250.00000	105.33719	1994.14559	105.33719
35300.00000	105.69165	1990.79177	105.69165
35350.00000	105.68283	1988.15961	105.68283
35400.00000	105.56931	1985.41097	105.56931
35450.00000	105.76102	1983.88216	105.76102
35500.00000	105.34928	1982.78526	105.34928
35550.00000	105.88671	1980.36412	105.88671
35600.00000	105.84581	1977.55590	105.84581
35650.00000	105.85639	1976.11465	105.85639
35700.00000	105.91732	1975.79050	105.91732
35750.00000	105.84354	1973.41378	105.84354
35800.00000	106.23755	1972.39845	106.23755
35850.00000	106.36338	1968.60989	106.36338
35900.00000	106.35729	1967.44951	106.35729
35950.00000	106.65129	1965.64050	106.65129
36000.00000	106.86625	1964.29403	106.86625
36050.00000	107.12345	1961.49185	107.12345
36100.00000	107.40017	1959.61988	107.40017
36150.00000	107.26638	1957.71878	107.26638
36200.00000	107.60626	1956.42829	107.60626
36250.00000	107.53181	1954.64379	107.53181
36300.00000	107.69188	1953.31221	107.69188
36350.00000	107.97387	1951.68365	107.97387
36400.00000	108.11669	1950.13897	108.11669
36450.00000	108.26361	1947.88002	108.26361
36500.00000	108.52844	1946.80502	108.52844
36550.00000	108.64317	1943.00534	108.64317
36600.00000	108.79599	1942.34262	108.79599
36650.00000	109.23304	1941.13659	109.23304
36700.00000	109.56613	1938.03504	109.56613
36750.00000	109.67674	1936.30618	109.67674
36800.00000	109.75388	1934.99312	109.75388
36850.00000	109.95723	1932.25095	109.95723
36900.00000	110.35540	1930.50293	110.35540
36950.00000	110.34077	1926.92075	110.34077
37000.00000	110.39669	1926.14658	110.39669
37050.00000	110.71682	1925.24948	110.71682
37100.00000	110.99731	1922.10035	110.99731
37150.00000	111.14134	1918.64822	111.14134
37200.00000	111.44930	1918.16546	111.44930
37250.00000	111.26122	1914.85960	111.26122
37300.00000	111.56127	1912.67548	111.56127
37350.00000	111.93123	1910.31723	111.93123
37400.00000	111.80411	1909.87972	111.80411
37450.00000	111.87448	1906.97743	111.87448
37500.00000	112.31656	1904.62491	112.31656
37550.00000	112.16684	1902.11568	112.16684
37600.00000	112.51843	1900.09581	112.51843
37650.00000	112.65559	1898.20887	112.65559
37700.00000	112.87169	1894.83308	112.87169
37750.00000	112.97165	1893.52694	112.97165
37800.00000	113.00876	1889.67403	113.00876
37850.00000	113.27705	1885.81980	113.27705
37900.00000	113.28263	1883.88754	113.28263
37950.00000	113.48759	1881.94892	113.48759
38000.00000	113.40628	1880.03657	113.40628
38050.00000	113.64160	1876.56824	113.64160
38100.00000	113.80284	1873.40107	113.80284
38150.00000	113.75103	1870.49204	113.75103
38200.00000	113.99189	1867.17272	113.99189
38250.00000	114.08981	1864.39255	114.08981
38300.00000	114.20793	1860.08249	114.20793
38350.00000	114.22523	1857.49126	114.22523
38400.00000	114.24321	1853.75031	114.24321
38450.00000	114.43866	1849.73962	114.43866
38500.00000	114.60927	1845.50109	114.60927
38550.00000	114.61881	1842.02568	114.61881
38600.00000	114.70744	1838.80409	114.70744
38650.00000	114.77571	1834.32277	114.77571
38700.00000	114.83951	1830.30919	114.83951
38750.00000	114.85989	1826.77014	114.85989
38800.00000	115.06667	1822.60572	115.06667
38850.00000	114.99823	1818.02684	114.99823
38900.00000	115.14628	1813.65825	115.14628
38950.00000	115.00465	1809.26071	115.00465
39000.00000	115.05709	1803.97695	115.05709
39050.00000	115.17087	1799.17315	115.17087
39100.00000	115.01293	1794.85487	115.01293
39150.00000	114.90823	1789.53885	114.90823
39200.00000	114.87193	1784.88229	114.87193
39250.00000	114.78265	1779.75764	114.78265
39300.00000	114.58301	1774.70515	114.58301
39350.00000	114.47532	1770.45106	114.47532
39400.00000	114.29453	1765.12451	114.29453
39450.00000	114.09531	1760.42775	114.09531
39500.00000	113.94395	1755.82544	113.94395
39550.00000	113.60746	1751.32950	113.60746
39600.00000	113.29751	1746.44885	113.29751
39650.00000	113.12988	1742.97654	113.12988
39700.00000	112.82383	1738.46977	112.82383
39750.00000	112.60159	1734.29435	112.60159
39800.00000	112.31737	1730.49562	112.31737
39850.00000	112.04476	1726.67712	112.04476
39900.00000	111.74259	1722.76447	111.74259
39950.00000	111.48818	1719.49010	111.48818
40000.00000	110.98931	1717.40571	110.98931
40050.00000	110.89315	1712.72833	110.89315
40100.00000	110.55366	1709.45855	110.55366
40150.00000	110.29583	1706.82875	110.29583
40200.00000	110.01161	1703.37344	110.01161
40250.00000	109.73305	1701.27554	109.73305
40300.00000	109.57791	1698.40903	109.57791
40350.00000	109.19328	1696.51876	109.19328
40400.00000	108.86527	1693.87007	108.86527
40450.00000	108.72361	1692.27950	108.72361
40500.00000	108.63531	1690.42265	108.63531
40550.00000	108.46723	1687.31147	108.46723
40600.00000	108.19707	1686.18849	108.19707
40650.00000	108.12842	1684.92211	108.12842
40700.00000	107.85803	1683.92814	107.85803
40750.00000	107.88792	1682.34684	107.88792
40800.00000	107.71592	1680.17455	107.71592
40850.00000	107.61423	1679.91223	107.61423
40900.00000	107.61150	1678.56701	107.61150
40950.00000	107.35491	1677.38825	107.35491
41000.00000	107.23784	1677.27112	107.23784
41050.00000	107.46248	1676.45089	107.46248
41100.00000	107.56634	1674.33920	107.56634
41150.00000	107.68307	1674.81970	107.68307
41200.00000	107.93755	1673.56081	107.93755
41250.00000	107.88738	1670.37851	107.88738
41300.00000	107.94476	1670.93709	107.94476
41350.00000	108.05428	1671.56824	108.05428
41400.00000	108.33868	1664.78153	108.33868
41450.00000	108.59034	1667.18617	108.59034
41500.00000	108.59786	1665.33490	108.59786
41550.00000	108.57445	1666.99224	108.57445
41600.00000	108.49654	1663.84278	108.49654
41650.00000	109.08479	1661.38762	109.08479
41700.00000	109.48522	1659.40085	109.48522
41750.00000	109.32846	1661.70219	109.32846
41800.00000	108.78911	1655.11830	108.78911
41850.00000	108.93538	1655.83884	108.93538
41900.00000	108.84239	1652.93373	108.84239
41950.00000	110.03371	1658.14553	110.03371
42000.00000	109.26413	1650.01644	109.26413
42050.00000	108.38771	1648.57583	108.38771
42100.00000	109.00525	1648.05734	109.00525
42150.00000	108.35174	1641.06733	108.35174
42200.00000	108.24279	1648.16843	108.24279
42250.00000	108.33687	1646.26166	108.33687
42300.00000	107.35322	1639.91986	107.35322
42350.00000	107.86017	1640.53997	107.86017
42400.00000	107.42051	1640.50673	107.42051
42450.00000	108.11751	1635.39782	108.11751
42500.00000	107.11485	1633.81607	107.11485
42550.00000	107.09616	1647.26529	107.09616
42600.00000	106.70599	1636.28587	106.70599
42650.00000	106.26042	1638.86514	106.26042
42700.00000	106.00894	1636.73525	106.00894
42750.00000	106.31734	1632.82345	106.31734
42800.00000	105.31307	1628.19522	105.31307
42850.00000	104.95158	1629.95664	104.95158
42900.00000	105.87086	1632.11721	105.87086
42950.00000	104.58385	1630.35506	104.58385
43000.00000	105.09553	1617.34878	105.09553
43050.00000	104.15995	1621.67011	104.15995
43100.00000	104.54840	1624.12540	104.54840
43150.00000	103.20076	1620.93856	103.20076
43200.00000	103.64040	1619.68225	103.64040
43250.00000	103.41881	1619.89634	103.41881
43300.00000	103.73449	1618.86092	103.73449
43350.00000	103.34910	1613.13009	103.34910
43400.00000	103.22931	1611.07122	103.22931
43450.00000	103.90327	1615.34239	103.90327
43500.00000	102.46811	1606.33171	102.46811
43550.00000	103.26787	1607.54783	103.26787
43600.00000	103.14783	1598.63777	103.14783
43650.00000	103.45719	1590.66029	103.45719
43700.00000	102.66067	1594.46492	102.66067
43750.00000	102.01214	1588.83262	102.01214
43800.00000	102.54874	1584.89677	102.54874
43850.00000	102.79105	1578.14477	102.79105
43900.00000	102.57320	1579.09168	102.57320
43950.00000	101.92003	1569.75837	101.92003
44000.00000	102.01545	1569.11090	102.01545
44050.00000	101.86511	1564.79638	101.86511
44100.00000	101.45069	1553.17074	101.45069
44150.00000	101.02290	1554.51052	101.02290
44200.00000	100.93360	1553.10031	100.93360
44250.00000	100.53442	1547.46321	100.53442
44300.00000	100.74818	1539.71883	100.74818
44350.00000	99.83678	1539.66625	99.83678
44400.00000	100.34505	1535.94720	100.34505
44450.00000	100.15555	1532.21192	100.15555
44500.00000	99.65681	1527.15358	99.65681
44550.00000	101.11297	1514.19227	101.11297
44600.00000	99.49116	1519.00927	99.49116
44650.00000	99.13336	1509.43496	99.13336
44700.00000	98.92530	1504.17279	98.92530
44750.00000	98.82304	1507.04062	98.82304
44800.00000	99.02282	1493.01716	99.02282
44850.00000	98.48627	1491.39523	98.48627
44900.00000	98.22865	1491.11831	98.22865
44950.00000	97.97681	1488.59858	97.97681
45000.00000	97.93919	1472.90128	97.93919
45050.00000	96.18220	1475.64508	96.18220
45100.00000	96.05934	1470.08497	96.05934
45150.00000	96.59537	1458.44428	96.59537
45200.00000	95.70410	1461.68402	95.70410
45250.00000	95.82604	1451.61997	95.82604
45300.00000	96.03865	1450.53626	96.03865
45350.00000	95.54719	1445.40932	95.54719
45400.00000	94.57584	1446.34372	94.57584
45450.00000	94.57689	1434.31622	94.57689
45500.00000	94.09595	1427.89834	94.09595
45550.00000	93.48925	1427.17577	93.48925
45600.00000	93.43443	1419.74543	93.43443
45650.00000	92.88786	1404.25628	92.88786
45700.00000	91.37104	1407.73511	91.37104
45750.00000	91.77708	1407.37328	91.77708
45800.00000	91.73033	1399.01572	91.73033
45850.00000	91.40203	1392.05640	91.40203
45900.00000	89.35125	1385.53175	89.35125
45950.00000	90.41016	1395.62090	90.41016
46000.00000	88.61535	1377.19895	88.61535
46050.00000	88.10796	1382.39572	88.10796
46100.00000	87.24924	1376.94273	87.24924
46150.00000	86.38369	1373.41627	86.38369
46200.00000	83.43535	1373.47056	83.43535
46250.00000	85.55291	1358.70377	85.55291
46300.00000	84.09987	1363.49118	84.09987
46350.00000	84.53627	1357.03637	84.53627
46400.00000	82.81289	1342.42788	82.81289
46450.00000	80.76954	1342.30450	80.76954
46500.00000	81.19265	1342.31675	81.19265
46550.00000	82.59842	1358.38458	82.59842
46600.00000	78.77122	1368.61070	78.77122
46650.00000	77.74980	1349.92913	77.74980
46700.00000	77.86139	1353.69823	77.86139
46750.00000	79.56081	1370.29830	79.56081
46800.00000	77.54512	1372.16422	77.54512
46850.00000	75.68458	1027.97750	75.68458
46900.00000	78.73460	1000.59267	78.73460
46950.00000	77.15311	999.88311	77.15311
47000.00000	79.09955	991.80703	79.09955
47050.00000	79.83810	992.87147	79.83810
47100.00000	75.92191	990.76730	75.92191
47150.00000	79.28687	979.67655	79.28687
47200.00000	75.32064	993.85758	75.32064
47250.00000	79.02883	988.04552	79.02883
47300.00000	79.24482	987.56982	79.24482
47350.00000	81.04540	631.64029	81.04540
47400.00000	77.02609	644.91333	77.02609
47450.00000	79.62754	649.48299	79.62754
47500.00000	76.84169	623.15145	76.84169
47550.00000	77.73293	281.07517	77.73293
47600.00000	78.05400	263.84927	78.05400
47650.00000	77.65325	237.59432	77.65325
47700.00000	73.65898	302.72305	73.65898
47750.00000	77.22397	271.22353	77.22397
47800.00000	77.15917	240.71625	77.15917
47850.00000	79.58456	-112.81832	79.58456
47900.00000	77.15862	-452.06094	77.15862
47950.00000	79.20519	-447.56136	79.20519
48000.00000	77.69701	-451.45271	77.69701
48050.00000	81.17214	-460.40195	81.17214
48100.00000	79.50292	-482.49047	79.50292
48150.00000	79.74065	-818.99819	79.74065
48200.00000	80.25786	-819.55054	80.25786
48250.00000	78.79863	-852.23047	78.79863
48300.00000	79.69556	-836.65982	79.69556
48350.00000	80.93060	-853.48425	80.93060
48400.00000	81.15478	-1204.26598	81.15478
48450.00000	80.67340	-1226.13232	80.67340
48500.00000	80.49223	-1205.24240	80.49223
48550.00000	77.11545	-1204.24742	77.11545
48600.00000	79.55998	-1580.71999	79.55998
48650.00000	79.76380	-1588.71190	79.76380
48700.00000	80.27747	-1600.34915	80.27747
48750.00000	76.87079	-1944.51994	76.87079
48800.00000	80.85763	-1933.61820	80.85763
48850.00000	79.41327	-1967.31119	79.41327
48900.00000	78.66401	-2294.24953	78.66401
48950.00000	80.42599	-2318.86273	80.42599
49000.00000	78.62066	-2327.76178	78.62066
49050.00000	81.09404	-2354.26190	81.09404
49100.00000	79.84729	-2709.13134	79.84729
49150.00000	80.87302	-3074.61705	80.87302
49200.00000	79.90305	-3083.11304	79.90305
49250.00000	82.03035	-3419.03975	82.03035
49300.00000	79.98712	-3081.63541	79.98712
49350.00000	80.94344	-3085.73443	80.94344
49400.00000	82.01238	-2711.57065	82.01238
49450.00000	83.59018	-2396.74289	83.59018
49500.00000	81.23838	-2001.82283	81.23838
49550.00000	83.74804	-1661.45047	83.74804
49600.00000	81.54918	-1713.36631	81.54918
49650.00000	79.42588	-1649.60423	79.42588
49700.00000	78.25005	-1317.05877	78.25005
49750.00000	78.64150	-1382.35704	78.64150
49800.00000	84.24661	-1342.84826	84.24661
49850.00000	76.83234	-1373.04051	76.83234
49900.00000	81.21107	-1005.89413	81.21107
49950.00000	82.59636	-641.76231	82.59636
