---ACOUSTIC CALIBRATION---
Filename: C:\Data\AZH DATA\AZH62\RightPrimary.calib
Date: 8/27/2019 3:45:21 PM
Format: 4
Probe Tube Correction File: C:\Data\Probe Tube Calibrations\50_ProbeTube.calib
Experiment VIs: 850
EPL_CFTS.exe V12.0.1 (2012)
DAQmx V9.6

Attenuation (dB): 40.000000
Min Freq (Hz): 50.000000
Max Freq (Hz): 49950.000000
Freq Step (Hz): 50.000000
Sample Rate (Hz): 100000.000000
[Smoothing]
Method=None
MA.Iterations=0
MA.Length=0
Loess.Length=0
Loess.Type=Linear
Loess.Robust=FALSE


Freq(Hz)	Mag(dB)	Phase(deg)	Unsmoothed(dB)

50.00000	110.07321	570.42031	110.07321
100.00000	78.48919	424.89438	78.48919
150.00000	76.23663	488.67577	76.23663
200.00000	70.60366	412.96579	70.60366
250.00000	85.32758	422.30422	85.32758
300.00000	85.51746	294.93211	85.51746
350.00000	82.49770	360.50182	82.49770
400.00000	85.81813	366.26988	85.81813
450.00000	86.73728	368.54373	86.73728
500.00000	90.67176	349.20155	90.67176
550.00000	91.05689	368.89904	91.05689
600.00000	93.74293	362.03133	93.74293
650.00000	95.93177	347.34536	95.93177
700.00000	98.72966	329.37342	98.72966
750.00000	100.43935	315.76122	100.43935
800.00000	100.98656	292.91213	100.98656
850.00000	100.87218	276.32909	100.87218
900.00000	99.54466	258.93312	99.54466
950.00000	97.70310	255.70982	97.70310
1000.00000	96.07227	257.22056	96.07227
1050.00000	94.39294	270.85815	94.39294
1100.00000	95.58585	293.55107	95.58585
1150.00000	98.74205	298.05243	98.74205
1200.00000	101.33726	296.35732	101.33726
1250.00000	103.28462	289.05556	103.28462
1300.00000	104.86889	282.92812	104.86889
1350.00000	106.20297	273.77725	106.20297
1400.00000	106.97167	265.79784	106.97167
1450.00000	107.88733	259.56591	107.88733
1500.00000	109.01084	253.62712	109.01084
1550.00000	109.87442	245.05153	109.87442
1600.00000	111.45395	236.23503	111.45395
1650.00000	112.37940	218.77276	112.37940
1700.00000	111.17889	208.82021	111.17889
1750.00000	110.91930	202.86651	110.91930
1800.00000	110.62248	198.28718	110.62248
1850.00000	110.74014	197.41299	110.74014
1900.00000	111.87520	193.69753	111.87520
1950.00000	112.60624	181.05677	112.60624
2000.00000	111.69386	169.08377	111.69386
2050.00000	110.40243	172.93862	110.40243
2100.00000	112.15835	173.32633	112.15835
2150.00000	112.88162	162.01066	112.88162
2200.00000	112.79185	151.83622	112.79185
2250.00000	112.27367	145.23316	112.27367
2300.00000	112.35687	139.38411	112.35687
2350.00000	112.11741	133.25792	112.11741
2400.00000	111.90660	127.42737	111.90660
2450.00000	111.60010	121.25092	111.60010
2500.00000	111.30273	116.21562	111.30273
2550.00000	110.74921	110.65959	110.74921
2600.00000	110.26222	106.41733	110.26222
2650.00000	109.79378	102.32184	109.79378
2700.00000	109.28880	98.93742	109.28880
2750.00000	108.76049	94.94786	108.76049
2800.00000	108.12150	92.12227	108.12150
2850.00000	107.53324	90.28103	107.53324
2900.00000	106.91014	87.95763	106.91014
2950.00000	106.24711	87.48451	106.24711
3000.00000	105.59216	85.84963	105.59216
3050.00000	104.85634	85.53989	104.85634
3100.00000	104.01016	85.50064	104.01016
3150.00000	102.81097	86.90459	102.81097
3200.00000	101.54958	93.51169	101.54958
3250.00000	100.50960	103.23144	100.50960
3300.00000	100.13221	115.41042	100.13221
3350.00000	100.36561	133.37697	100.36561
3400.00000	102.31309	149.97801	102.31309
3450.00000	104.97255	157.54591	104.97255
3500.00000	107.55572	158.27334	107.55572
3550.00000	109.64067	155.00925	109.64067
3600.00000	111.45518	150.94284	111.45518
3650.00000	112.88669	145.48021	112.88669
3700.00000	114.16130	140.43825	114.16130
3750.00000	115.44623	135.05479	115.44623
3800.00000	116.61968	128.48983	116.61968
3850.00000	117.64307	121.68844	117.64307
3900.00000	118.60987	115.10152	118.60987
3950.00000	119.54517	108.00301	119.54517
4000.00000	120.39973	100.65408	120.39973
4050.00000	121.19716	93.32381	121.19716
4100.00000	122.03572	85.83314	122.03572
4150.00000	123.05319	77.38486	123.05319
4200.00000	123.79266	67.33867	123.79266
4250.00000	124.46436	56.11424	124.46436
4300.00000	124.89941	43.95405	124.89941
4350.00000	124.99015	31.55130	124.99015
4400.00000	124.83359	20.01032	124.83359
4450.00000	124.52951	 9.44217	124.52951
4500.00000	124.12696	-0.12142	124.12696
4550.00000	123.70256	-8.97384	123.70256
4600.00000	123.23139	-17.25873	123.23139
4650.00000	122.80959	-25.07426	122.80959
4700.00000	122.35126	-33.37881	122.35126
4750.00000	121.76513	-41.94940	121.76513
4800.00000	120.98800	-50.70008	120.98800
4850.00000	119.91607	-58.60669	119.91607
4900.00000	118.60947	-64.72057	118.60947
4950.00000	117.21982	-68.03084	117.21982
5000.00000	115.91508	-69.29662	115.91508
5050.00000	114.81513	-68.78513	114.81513
5100.00000	113.61566	-65.14127	113.61566
5150.00000	113.51418	-59.26860	113.51418
5200.00000	112.80892	-55.58139	112.80892
5250.00000	113.98128	-42.67449	113.98128
5300.00000	116.45892	-49.49450	116.45892
5350.00000	116.74236	-62.70554	116.74236
5400.00000	116.20373	-70.61530	116.20373
5450.00000	115.66596	-74.95199	115.66596
5500.00000	115.23756	-78.18728	115.23756
5550.00000	114.91843	-80.77174	114.91843
5600.00000	114.66042	-83.22688	114.66042
5650.00000	114.45564	-85.44425	114.45564
5700.00000	114.27664	-87.91428	114.27664
5750.00000	114.12998	-90.17491	114.12998
5800.00000	113.96370	-92.61582	113.96370
5850.00000	113.84380	-94.96823	113.84380
5900.00000	113.72250	-97.27756	113.72250
5950.00000	113.59852	-99.71381	113.59852
6000.00000	113.51885	-101.73983	113.51885
6050.00000	113.41761	-104.04943	113.41761
6100.00000	113.36659	-106.21866	113.36659
6150.00000	113.32778	-108.59631	113.32778
6200.00000	113.27701	-111.00175	113.27701
6250.00000	113.25199	-113.72052	113.25199
6300.00000	113.20701	-116.38336	113.20701
6350.00000	113.13964	-119.24138	113.13964
6400.00000	113.06315	-121.87425	113.06315
6450.00000	112.99720	-124.52689	112.99720
6500.00000	112.91665	-127.17833	112.91665
6550.00000	112.84376	-129.84112	112.84376
6600.00000	112.76696	-132.30586	112.76696
6650.00000	112.70298	-134.82091	112.70298
6700.00000	112.64871	-137.48483	112.64871
6750.00000	112.61207	-140.04506	112.61207
6800.00000	112.56875	-142.47005	112.56875
6850.00000	112.53460	-144.96035	112.53460
6900.00000	112.51667	-147.40450	112.51667
6950.00000	112.49493	-149.92638	112.49493
7000.00000	112.49816	-152.51589	112.49816
7050.00000	112.48395	-155.20210	112.48395
7100.00000	112.49268	-158.12691	112.49268
7150.00000	112.51259	-160.86924	112.51259
7200.00000	112.50491	-163.76395	112.50491
7250.00000	112.48321	-166.89753	112.48321
7300.00000	112.49693	-169.94081	112.49693
7350.00000	112.47691	-172.87189	112.47691
7400.00000	112.46579	-176.10811	112.46579
7450.00000	112.45747	-179.42774	112.45747
7500.00000	112.46976	-182.78234	112.46976
7550.00000	112.39884	-185.97373	112.39884
7600.00000	112.34061	-189.29153	112.34061
7650.00000	112.29534	-192.63223	112.29534
7700.00000	112.28045	-195.92075	112.28045
7750.00000	112.20042	-199.20140	112.20042
7800.00000	112.13170	-202.65265	112.13170
7850.00000	112.07033	-205.92149	112.07033
7900.00000	112.02880	-209.14679	112.02880
7950.00000	111.96518	-212.71860	111.96518
8000.00000	111.90312	-216.25442	111.90312
8050.00000	111.84057	-220.07242	111.84057
8100.00000	111.77730	-223.33795	111.77730
8150.00000	111.63198	-226.99168	111.63198
8200.00000	111.54653	-230.35207	111.54653
8250.00000	111.41279	-234.37934	111.41279
8300.00000	111.28371	-238.18438	111.28371
8350.00000	111.09380	-241.87583	111.09380
8400.00000	110.89466	-246.00882	110.89466
8450.00000	110.63119	-249.91213	110.63119
8500.00000	110.39953	-254.13537	110.39953
8550.00000	110.16237	-257.95138	110.16237
8600.00000	109.88924	-262.21718	109.88924
8650.00000	109.56112	-266.07710	109.56112
8700.00000	109.28221	-270.25603	109.28221
8750.00000	108.88647	-272.96487	108.88647
8800.00000	108.56184	-276.49426	108.56184
8850.00000	108.14464	-279.63354	108.14464
8900.00000	107.76028	-282.19081	107.76028
8950.00000	107.36102	-285.12584	107.36102
9000.00000	106.84785	-287.79771	106.84785
9050.00000	106.43102	-290.70017	106.43102
9100.00000	106.00598	-293.04587	106.00598
9150.00000	105.63299	-295.61927	105.63299
9200.00000	105.29655	-298.22326	105.29655
9250.00000	104.92954	-300.57222	104.92954
9300.00000	104.66324	-302.58251	104.66324
9350.00000	104.46798	-304.49710	104.46798
9400.00000	104.16475	-305.64182	104.16475
9450.00000	103.90539	-306.67627	103.90539
9500.00000	103.66674	-306.71957	103.66674
9550.00000	103.53411	-306.79929	103.53411
9600.00000	103.40859	-308.33997	103.40859
9650.00000	103.14317	-309.96571	103.14317
9700.00000	102.86363	-311.10332	102.86363
9750.00000	102.66457	-313.50793	102.66457
9800.00000	102.41421	-314.94102	102.41421
9850.00000	102.25461	-316.43482	102.25461
9900.00000	101.99760	-318.40998	101.99760
9950.00000	101.89331	-319.59764	101.89331
10000.00000	101.79931	-321.57671	101.79931
10050.00000	101.64972	-322.71777	101.64972
10100.00000	101.47591	-323.70430	101.47591
10150.00000	101.19634	-325.57327	101.19634
10200.00000	100.99581	-326.98821	100.99581
10250.00000	100.74010	-328.92908	100.74010
10300.00000	100.61152	-330.92617	100.61152
10350.00000	100.39985	-332.90418	100.39985
10400.00000	100.20456	-335.38869	100.20456
10450.00000	100.17142	-337.79776	100.17142
10500.00000	100.15074	-339.89439	100.15074
10550.00000	100.11124	-341.91296	100.11124
10600.00000	100.02003	-343.58299	100.02003
10650.00000	99.90222	-344.66175	99.90222
10700.00000	99.79296	-347.08381	99.79296
10750.00000	99.68323	-348.91927	99.68323
10800.00000	99.45885	-350.61421	99.45885
10850.00000	99.27134	-353.62855	99.27134
10900.00000	99.12384	-355.68687	99.12384
10950.00000	98.97503	-357.72465	98.97503
11000.00000	98.83893	-360.02066	98.83893
11050.00000	98.56474	-362.14191	98.56474
11100.00000	98.37197	-364.60430	98.37197
11150.00000	98.08418	-366.17451	98.08418
11200.00000	97.94552	-367.87567	97.94552
11250.00000	97.62143	-370.08207	97.62143
11300.00000	97.28994	-372.17630	97.28994
11350.00000	97.02437	-373.54399	97.02437
11400.00000	96.69319	-375.60688	96.69319
11450.00000	96.45696	-377.77827	96.45696
11500.00000	96.33319	-378.92600	96.33319
11550.00000	96.02838	-380.12623	96.02838
11600.00000	95.92898	-382.25759	95.92898
11650.00000	95.70793	-382.59535	95.70793
11700.00000	95.55239	-383.67686	95.55239
11750.00000	95.43209	-385.08886	95.43209
11800.00000	95.21952	-386.87042	95.21952
11850.00000	95.11867	-387.32582	95.11867
11900.00000	94.79017	-389.13782	94.79017
11950.00000	94.65042	-390.31853	94.65042
12000.00000	94.41248	-391.37302	94.41248
12050.00000	94.19809	-392.60354	94.19809
12100.00000	94.08751	-394.61445	94.08751
12150.00000	93.93272	-396.21861	93.93272
12200.00000	93.89227	-397.82778	93.89227
12250.00000	93.70121	-398.90331	93.70121
12300.00000	94.72117	-400.62211	94.72117
12350.00000	93.40158	-402.14395	93.40158
12400.00000	93.21696	-402.93072	93.21696
12450.00000	93.03389	-404.39599	93.03389
12500.00000	92.86951	-406.08401	92.86951
12550.00000	92.68291	-408.19852	92.68291
12600.00000	92.47661	-410.28826	92.47661
12650.00000	92.43924	-412.05363	92.43924
12700.00000	92.20317	-413.43024	92.20317
12750.00000	91.89890	-414.58755	91.89890
12800.00000	91.68914	-416.23875	91.68914
12850.00000	91.22898	-417.85678	91.22898
12900.00000	90.88252	-419.20759	90.88252
12950.00000	90.76640	-421.07644	90.76640
13000.00000	90.46775	-423.40996	90.46775
13050.00000	90.24761	-424.01970	90.24761
13100.00000	89.96902	-425.56103	89.96902
13150.00000	89.71943	-427.21271	89.71943
13200.00000	89.47370	-426.07268	89.47370
13250.00000	89.09726	-427.06734	89.09726
13300.00000	88.70184	-426.42860	88.70184
13350.00000	88.32613	-428.23411	88.32613
13400.00000	88.25630	-428.65058	88.25630
13450.00000	87.83457	-428.24435	87.83457
13500.00000	87.72437	-427.28999	87.72437
13550.00000	87.26684	-427.09131	87.26684
13600.00000	87.05058	-426.28845	87.05058
13650.00000	86.79284	-426.47336	86.79284
13700.00000	86.23878	-427.18869	86.23878
13750.00000	86.15405	-427.42443	86.15405
13800.00000	85.97608	-429.16060	85.97608
13850.00000	85.84381	-428.69358	85.84381
13900.00000	85.67252	-426.72668	85.67252
13950.00000	85.40072	-425.41388	85.40072
14000.00000	85.38191	-423.94773	85.38191
14050.00000	85.27728	-424.56926	85.27728
14100.00000	85.00397	-424.43901	85.00397
14150.00000	84.98355	-423.76917	84.98355
14200.00000	85.07398	-422.38411	85.07398
14250.00000	85.55284	-419.63572	85.55284
14300.00000	85.36170	-418.78014	85.36170
14350.00000	85.22875	-416.36342	85.22875
14400.00000	84.87544	-416.67492	84.87544
14450.00000	84.69722	-414.98997	84.69722
14500.00000	84.53309	-415.20067	84.53309
14550.00000	84.69984	-415.34918	84.69984
14600.00000	84.92694	-415.12343	84.92694
14650.00000	84.99175	-413.65840	84.99175
14700.00000	84.98899	-415.75007	84.98899
14750.00000	85.09339	-414.13818	85.09339
14800.00000	85.00984	-411.56930	85.00984
14850.00000	85.40904	-410.99594	85.40904
14900.00000	85.57199	-411.81827	85.57199
14950.00000	85.93544	-411.37531	85.93544
15000.00000	85.91560	-409.67178	85.91560
15050.00000	85.89315	-407.71581	85.89315
15100.00000	86.01768	-407.48619	86.01768
15150.00000	86.09742	-407.68306	86.09742
15200.00000	86.12435	-407.73519	86.12435
15250.00000	86.06144	-407.18032	86.06144
15300.00000	86.76941	-407.82538	86.76941
15350.00000	86.94903	-407.17188	86.94903
15400.00000	86.91280	-404.04430	86.91280
15450.00000	86.97479	-404.59857	86.97479
15500.00000	87.32415	-404.81859	87.32415
15550.00000	87.58732	-404.58962	87.58732
15600.00000	87.78986	-405.11559	87.78986
15650.00000	88.32284	-401.56592	88.32284
15700.00000	88.44357	-402.13813	88.44357
15750.00000	88.93888	-401.27584	88.93888
15800.00000	89.19912	-400.12195	89.19912
15850.00000	89.26707	-399.95102	89.26707
15900.00000	89.76104	-402.11672	89.76104
15950.00000	90.30366	-401.33407	90.30366
16000.00000	90.72354	-401.47998	90.72354
16050.00000	91.29812	-400.97926	91.29812
16100.00000	91.53604	-401.12697	91.53604
16150.00000	91.87952	-401.52190	91.87952
16200.00000	92.29771	-403.24864	92.29771
16250.00000	92.81900	-404.92844	92.81900
16300.00000	93.55492	-406.32718	93.55492
16350.00000	93.99612	-406.87318	93.99612
16400.00000	94.40594	-407.26941	94.40594
16450.00000	94.76986	-408.40160	94.76986
16500.00000	95.19000	-410.55393	95.19000
16550.00000	95.73491	-413.63897	95.73491
16600.00000	96.24983	-415.81213	96.24983
16650.00000	96.72461	-417.62651	96.72461
16700.00000	97.14854	-419.17592	97.14854
16750.00000	97.45659	-421.96112	97.45659
16800.00000	97.88831	-424.84984	97.88831
16850.00000	98.35319	-427.77237	98.35319
16900.00000	98.74371	-431.01231	98.74371
16950.00000	99.17508	-433.70067	99.17508
17000.00000	99.41865	-436.68968	99.41865
17050.00000	99.79703	-439.13603	99.79703
17100.00000	99.91018	-441.80620	99.91018
17150.00000	100.34320	-445.84149	100.34320
17200.00000	100.64998	-448.95938	100.64998
17250.00000	100.86314	-452.60652	100.86314
17300.00000	101.18192	-455.63274	101.18192
17350.00000	101.18209	-458.17236	101.18209
17400.00000	101.47289	-461.78606	101.47289
17450.00000	101.58236	-465.40275	101.58236
17500.00000	101.83200	-468.54189	101.83200
17550.00000	102.04839	-471.47363	102.04839
17600.00000	102.27206	-474.12198	102.27206
17650.00000	102.36348	-477.98426	102.36348
17700.00000	102.45083	-481.21386	102.45083
17750.00000	102.72070	-483.80045	102.72070
17800.00000	102.75177	-487.30577	102.75177
17850.00000	102.92126	-489.83874	102.92126
17900.00000	103.06351	-492.68292	103.06351
17950.00000	103.22725	-496.08662	103.22725
18000.00000	103.34891	-499.60722	103.34891
18050.00000	103.61516	-502.07369	103.61516
18100.00000	103.65481	-505.56609	103.65481
18150.00000	103.78157	-508.18889	103.78157
18200.00000	103.84955	-511.51327	103.84955
18250.00000	104.01368	-513.83514	104.01368
18300.00000	104.16019	-517.25684	104.16019
18350.00000	104.30317	-520.27169	104.30317
18400.00000	104.34035	-523.55941	104.34035
18450.00000	104.39029	-527.78746	104.39029
18500.00000	104.51888	-530.96110	104.51888
18550.00000	104.56472	-533.63563	104.56472
18600.00000	104.72276	-537.43702	104.72276
18650.00000	104.66856	-540.24046	104.66856
18700.00000	104.69331	-543.91618	104.69331
18750.00000	104.80106	-546.93029	104.80106
18800.00000	104.91518	-549.63594	104.91518
18850.00000	104.80203	-552.88435	104.80203
18900.00000	104.82058	-555.70585	104.82058
18950.00000	104.90079	-559.06940	104.90079
19000.00000	104.78221	-561.37381	104.78221
19050.00000	104.91633	-564.46964	104.91633
19100.00000	104.89559	-566.97188	104.89559
19150.00000	105.06199	-569.68453	105.06199
19200.00000	105.11995	-572.09978	105.11995
19250.00000	105.14002	-575.99260	105.14002
19300.00000	105.14710	-578.15186	105.14710
19350.00000	105.20611	-581.07643	105.20611
19400.00000	105.26345	-583.86305	105.26345
19450.00000	105.40749	-586.20741	105.40749
19500.00000	105.40029	-589.91613	105.40029
19550.00000	105.47213	-592.91441	105.47213
19600.00000	105.62140	-596.59837	105.62140
19650.00000	105.59627	-599.40207	105.59627
19700.00000	105.55059	-602.72177	105.55059
19750.00000	105.57437	-605.45556	105.57437
19800.00000	105.68759	-609.46911	105.68759
19850.00000	105.71409	-612.57790	105.71409
19900.00000	105.69468	-616.66013	105.69468
19950.00000	105.65398	-619.87192	105.65398
20000.00000	105.64301	-623.33528	105.64301
20050.00000	105.62464	-626.70176	105.62464
20100.00000	105.49459	-630.07903	105.49459
20150.00000	105.50910	-632.66190	105.50910
20200.00000	105.38771	-636.82069	105.38771
20250.00000	105.24654	-639.90769	105.24654
20300.00000	105.07127	-643.12679	105.07127
20350.00000	105.01340	-646.52595	105.01340
20400.00000	104.82204	-648.72497	104.82204
20450.00000	104.59774	-651.82960	104.59774
20500.00000	104.50127	-654.92621	104.50127
20550.00000	104.10739	-656.92112	104.10739
20600.00000	104.01572	-659.20053	104.01572
20650.00000	103.83780	-661.46213	103.83780
20700.00000	103.59804	-663.37889	103.59804
20750.00000	103.48020	-665.21869	103.48020
20800.00000	103.26690	-666.55096	103.26690
20850.00000	103.17611	-668.25317	103.17611
20900.00000	102.99791	-669.58116	102.99791
20950.00000	102.87153	-670.32133	102.87153
21000.00000	102.78845	-671.26633	102.78845
21050.00000	102.89638	-671.88934	102.89638
21100.00000	102.85502	-672.67316	102.85502
21150.00000	102.97218	-673.98403	102.97218
21200.00000	103.09822	-674.66169	103.09822
21250.00000	103.20309	-677.14994	103.20309
21300.00000	103.38308	-678.23508	103.38308
21350.00000	103.49763	-679.88438	103.49763
21400.00000	103.62695	-682.27051	103.62695
21450.00000	103.76947	-684.52789	103.76947
21500.00000	103.90304	-687.35810	103.90304
21550.00000	103.89809	-689.61661	103.89809
21600.00000	104.04817	-692.41252	104.04817
21650.00000	104.06476	-695.33985	104.06476
21700.00000	104.08808	-697.84584	104.08808
21750.00000	104.11801	-700.56337	104.11801
21800.00000	104.11918	-703.43353	104.11918
21850.00000	104.04362	-705.74277	104.04362
21900.00000	104.02676	-708.48507	104.02676
21950.00000	103.97078	-710.64878	103.97078
22000.00000	103.97905	-713.04159	103.97905
22050.00000	103.90238	-714.99201	103.90238
22100.00000	103.83093	-717.33894	103.83093
22150.00000	103.79666	-719.44623	103.79666
22200.00000	103.79935	-721.65995	103.79935
22250.00000	103.70653	-723.30581	103.70653
22300.00000	103.61506	-725.46288	103.61506
22350.00000	103.73705	-727.59025	103.73705
22400.00000	103.66401	-729.89619	103.66401
22450.00000	103.58857	-731.51894	103.58857
22500.00000	103.54951	-732.56604	103.54951
22550.00000	103.54121	-734.96372	103.54121
22600.00000	103.51859	-737.51691	103.51859
22650.00000	103.50691	-739.41787	103.50691
22700.00000	103.45766	-740.87472	103.45766
22750.00000	103.45014	-741.39005	103.45014
22800.00000	103.52766	-745.11216	103.52766
22850.00000	103.53002	-747.47955	103.53002
22900.00000	103.52930	-748.21196	103.52930
22950.00000	103.61397	-750.25073	103.61397
23000.00000	103.59680	-751.59424	103.59680
23050.00000	103.54732	-754.37813	103.54732
23100.00000	103.66456	-755.17807	103.66456
23150.00000	103.53627	-756.47912	103.53627
23200.00000	103.67927	-759.82220	103.67927
23250.00000	103.57706	-762.57213	103.57706
23300.00000	103.85985	-764.65623	103.85985
23350.00000	103.58679	-766.95440	103.58679
23400.00000	103.63646	-768.47971	103.63646
23450.00000	103.76214	-771.13263	103.76214
23500.00000	103.64709	-772.33224	103.64709
23550.00000	103.61872	-773.19510	103.61872
23600.00000	103.59637	-777.10120	103.59637
23650.00000	103.70669	-778.98908	103.70669
23700.00000	103.89771	-783.17928	103.89771
23750.00000	103.85975	-783.82943	103.85975
23800.00000	103.64441	-785.59806	103.64441
23850.00000	103.79044	-786.82559	103.79044
23900.00000	104.22323	-789.97761	104.22323
23950.00000	103.86742	-793.12670	103.86742
24000.00000	103.65120	-796.27468	103.65120
24050.00000	103.88007	-796.79798	103.88007
24100.00000	104.11213	-801.46319	104.11213
24150.00000	104.14979	-803.54848	104.14979
24200.00000	104.12427	-807.73743	104.12427
24250.00000	103.72470	-808.37162	103.72470
24300.00000	103.95471	-811.87770	103.95471
24350.00000	103.89923	-814.26423	103.89923
24400.00000	103.82078	-817.79134	103.82078
24450.00000	103.41294	-819.80239	103.41294
24500.00000	103.87754	-821.89998	103.87754
24550.00000	103.71975	-467.60269	103.71975
24600.00000	104.07222	-468.62755	104.07222
24650.00000	103.63550	-113.25624	103.63550
24700.00000	103.40198	246.86693	103.40198
24750.00000	103.46676	601.44428	103.46676
24800.00000	103.26418	959.41234	103.26418
24850.00000	102.78874	1317.30735	102.78874
24900.00000	102.83632	1675.79275	102.83632
24950.00000	102.98205	2031.19023	102.98205
25000.00000	102.72947	2023.73811	102.72947
25050.00000	102.35432	1669.57158	102.35432
25100.00000	102.01495	1660.46538	102.01495
25150.00000	102.14793	1660.78653	102.14793
25200.00000	101.79111	1657.29988	101.79111
25250.00000	101.89042	1656.82307	101.89042
25300.00000	101.72060	1655.11790	101.72060
25350.00000	101.52686	1648.51905	101.52686
25400.00000	101.39104	1645.31667	101.39104
25450.00000	101.21578	1644.39440	101.21578
25500.00000	100.95255	1643.76899	100.95255
25550.00000	100.88103	1640.32396	100.88103
25600.00000	100.86445	1638.56684	100.86445
25650.00000	100.74106	1638.25680	100.74106
25700.00000	100.54328	1635.87781	100.54328
25750.00000	100.22240	1633.60618	100.22240
25800.00000	100.12564	1630.43086	100.12564
25850.00000	100.10716	1629.36042	100.10716
25900.00000	99.95636	1626.13868	99.95636
25950.00000	99.66184	1628.34422	99.66184
26000.00000	99.69078	1624.22626	99.69078
26050.00000	99.61273	1622.19256	99.61273
26100.00000	99.44009	1620.96714	99.44009
26150.00000	99.49282	1619.14539	99.49282
26200.00000	99.45514	1617.47354	99.45514
26250.00000	99.38326	1615.72375	99.38326
26300.00000	99.45989	1612.88017	99.45989
26350.00000	99.03914	1613.08253	99.03914
26400.00000	99.06191	1610.99971	99.06191
26450.00000	99.43938	1607.55747	99.43938
26500.00000	99.16137	1605.47786	99.16137
26550.00000	99.06534	1600.85270	99.06534
26600.00000	98.99354	1599.89702	98.99354
26650.00000	99.19210	1600.37600	99.19210
26700.00000	99.25497	1596.89121	99.25497
26750.00000	98.95237	1595.06729	98.95237
26800.00000	99.03086	1589.50271	99.03086
26850.00000	99.33272	1589.62244	99.33272
26900.00000	99.26490	1588.16308	99.26490
26950.00000	99.42465	1583.31327	99.42465
27000.00000	99.01846	1583.52940	99.01846
27050.00000	99.18001	1579.47627	99.18001
27100.00000	98.87607	1578.41770	98.87607
27150.00000	98.96747	1574.52113	98.96747
27200.00000	98.98759	1573.37947	98.98759
27250.00000	98.62769	1571.58887	98.62769
27300.00000	98.58915	1567.76243	98.58915
27350.00000	98.74780	1566.96230	98.74780
27400.00000	98.35685	1563.44542	98.35685
27450.00000	98.21128	1562.70179	98.21128
27500.00000	98.34743	1559.50538	98.34743
27550.00000	98.39742	1557.52298	98.39742
27600.00000	98.55881	1553.19736	98.55881
27650.00000	97.90911	1553.25891	97.90911
27700.00000	97.91620	1547.55854	97.91620
27750.00000	97.88560	1545.11438	97.88560
27800.00000	97.91902	1540.57624	97.91902
27850.00000	98.02834	1542.78485	98.02834
27900.00000	97.51553	1540.86586	97.51553
27950.00000	96.77054	1537.42912	96.77054
28000.00000	96.84539	1536.13012	96.84539
28050.00000	97.23564	1532.49763	97.23564
28100.00000	96.53782	1530.51220	96.53782
28150.00000	96.39999	1529.36557	96.39999
28200.00000	96.47118	1524.74894	96.47118
28250.00000	95.99464	1522.26526	95.99464
28300.00000	95.56300	1522.47032	95.56300
28350.00000	95.89891	1521.97637	95.89891
28400.00000	95.50281	1520.88133	95.50281
28450.00000	95.77521	1518.31480	95.77521
28500.00000	95.27307	1518.05719	95.27307
28550.00000	94.99578	1519.94685	94.99578
28600.00000	94.80797	1517.12451	94.80797
28650.00000	94.88089	1513.26801	94.88089
28700.00000	94.76420	1514.75777	94.76420
28750.00000	95.00158	1514.60459	95.00158
28800.00000	94.47466	1513.78444	94.47466
28850.00000	94.20448	1510.49109	94.20448
28900.00000	94.26250	1509.00091	94.26250
28950.00000	93.91238	1511.56646	93.91238
29000.00000	94.13688	1509.23117	94.13688
29050.00000	93.62228	1511.38109	93.62228
29100.00000	93.80650	1510.89281	93.80650
29150.00000	93.23548	1511.46474	93.23548
29200.00000	93.09110	1508.48723	93.09110
29250.00000	93.54434	1508.26281	93.54434
29300.00000	93.32856	1507.67159	93.32856
29350.00000	93.59321	1507.20500	93.59321
29400.00000	93.28564	1507.84229	93.28564
29450.00000	93.12586	1508.50060	93.12586
29500.00000	93.41472	1509.90015	93.41472
29550.00000	93.20699	1506.12916	93.20699
29600.00000	93.28584	1506.28933	93.28584
29650.00000	93.36850	1506.48850	93.36850
29700.00000	93.43281	1508.45025	93.43281
29750.00000	93.51400	1507.70597	93.51400
29800.00000	93.38015	1506.73620	93.38015
29850.00000	93.53402	1507.36635	93.53402
29900.00000	93.75812	1507.15345	93.75812
29950.00000	93.28523	1507.92454	93.28523
30000.00000	93.65754	1510.19295	93.65754
30050.00000	93.97320	1507.77639	93.97320
30100.00000	93.76056	1509.50598	93.76056
30150.00000	94.13580	1507.95002	94.13580
30200.00000	94.32084	1506.57765	94.32084
30250.00000	94.24109	1508.73905	94.24109
30300.00000	94.23880	1508.96659	94.23880
30350.00000	94.52558	1511.26251	94.52558
30400.00000	94.72359	1509.04328	94.72359
30450.00000	94.66187	1508.78693	94.66187
30500.00000	94.98464	1509.26573	94.98464
30550.00000	95.07647	1511.09006	95.07647
30600.00000	95.42800	1511.60175	95.42800
30650.00000	95.61203	1511.40284	95.61203
30700.00000	95.96110	1511.24007	95.96110
30750.00000	95.97117	1512.53050	95.97117
30800.00000	96.49079	1512.59986	96.49079
30850.00000	96.92574	1513.96251	96.92574
30900.00000	97.00403	1514.74463	97.00403
30950.00000	97.80782	1513.39989	97.80782
31000.00000	98.17062	1512.80772	98.17062
31050.00000	98.73811	1513.47616	98.73811
31100.00000	99.37448	1513.51930	99.37448
31150.00000	99.54289	1512.04902	99.54289
31200.00000	100.48833	1510.17374	100.48833
31250.00000	100.93197	1508.75772	100.93197
31300.00000	101.45683	1506.67712	101.45683
31350.00000	102.07147	1504.29995	102.07147
31400.00000	102.38611	1501.21997	102.38611
31450.00000	103.02923	1498.19009	103.02923
31500.00000	103.44843	1494.38029	103.44843
31550.00000	103.93919	1491.05855	103.93919
31600.00000	104.44731	1486.95181	104.44731
31650.00000	104.68478	1483.23995	104.68478
31700.00000	105.03379	1479.89031	105.03379
31750.00000	105.42719	1476.91398	105.42719
31800.00000	105.76181	1471.67482	105.76181
31850.00000	106.01462	1467.15494	106.01462
31900.00000	105.99293	1463.32444	105.99293
31950.00000	106.38976	1459.28250	106.38976
32000.00000	106.51831	1454.72871	106.51831
32050.00000	106.67747	1450.63761	106.67747
32100.00000	106.81158	1446.25743	106.81158
32150.00000	106.92340	1443.08392	106.92340
32200.00000	107.11970	1438.54842	107.11970
32250.00000	107.13087	1433.73569	107.13087
32300.00000	107.16637	1430.05481	107.16637
32350.00000	107.14230	1426.33379	107.14230
32400.00000	107.27712	1422.46215	107.27712
32450.00000	107.18811	1417.80671	107.18811
32500.00000	107.26849	1414.42458	107.26849
32550.00000	107.29643	1409.36302	107.29643
32600.00000	107.14848	1406.41114	107.14848
32650.00000	107.19877	1402.90469	107.19877
32700.00000	107.08316	1399.14892	107.08316
32750.00000	106.98258	1395.23554	106.98258
32800.00000	107.11654	1392.55780	107.11654
32850.00000	107.01012	1388.46380	107.01012
32900.00000	106.89157	1384.05078	106.89157
32950.00000	106.63347	1380.34634	106.63347
33000.00000	106.58517	1378.74974	106.58517
33050.00000	106.54602	1373.23726	106.54602
33100.00000	106.52002	1370.77205	106.52002
33150.00000	106.41982	1368.60311	106.41982
33200.00000	106.46318	1366.12658	106.46318
33250.00000	106.16830	1363.54296	106.16830
33300.00000	105.98388	1359.92690	105.98388
33350.00000	105.95648	1356.84781	105.95648
33400.00000	105.69078	1354.44049	105.69078
33450.00000	105.63223	1351.59058	105.63223
33500.00000	105.86499	1350.78418	105.86499
33550.00000	105.42087	1346.66369	105.42087
33600.00000	105.59758	1344.85208	105.59758
33650.00000	105.41963	1342.67812	105.41963
33700.00000	105.31242	1339.88002	105.31242
33750.00000	105.17574	1337.55525	105.17574
33800.00000	105.11859	1335.03943	105.11859
33850.00000	104.74176	1333.58920	104.74176
33900.00000	104.96871	1330.04894	104.96871
33950.00000	104.75239	1329.30999	104.75239
34000.00000	104.71018	1326.88552	104.71018
34050.00000	104.64655	1325.16120	104.64655
34100.00000	104.41514	1324.61222	104.41514
34150.00000	104.54083	1319.99593	104.54083
34200.00000	104.51637	1321.01146	104.51637
34250.00000	104.60295	1317.75936	104.60295
34300.00000	104.52129	1315.64537	104.52129
34350.00000	104.58388	1314.41648	104.58388
34400.00000	104.28236	1313.48830	104.28236
34450.00000	104.44332	1308.93642	104.44332
34500.00000	104.41388	1309.04426	104.41388
34550.00000	104.31289	1308.04109	104.31289
34600.00000	104.08687	1303.52836	104.08687
34650.00000	104.34340	1304.78958	104.34340
34700.00000	103.99830	1304.05029	103.99830
34750.00000	104.16706	1298.61965	104.16706
34800.00000	104.41024	1299.78197	104.41024
34850.00000	104.56381	1301.20640	104.56381
34900.00000	104.68826	1297.02274	104.68826
34950.00000	104.42016	1297.96316	104.42016
35000.00000	104.56430	1293.41517	104.56430
35050.00000	104.56963	1293.35923	104.56963
35100.00000	104.87955	1291.85567	104.87955
35150.00000	104.72342	1291.26131	104.72342
35200.00000	104.85299	1289.94883	104.85299
35250.00000	104.75660	1287.56467	104.75660
35300.00000	105.18806	1285.84342	105.18806
35350.00000	105.03994	1283.27970	105.03994
35400.00000	105.11561	1281.98344	105.11561
35450.00000	105.17045	1281.15408	105.17045
35500.00000	104.96985	1280.38470	104.96985
35550.00000	105.16117	1278.91478	105.16117
35600.00000	105.59881	1278.38687	105.59881
35650.00000	105.49308	1277.44544	105.49308
35700.00000	105.62666	1274.43942	105.62666
35750.00000	105.51382	1275.20023	105.51382
35800.00000	105.76855	1274.79806	105.76855
35850.00000	105.95012	1273.20321	105.95012
35900.00000	106.18595	1269.48802	106.18595
35950.00000	106.47016	1269.65419	106.47016
36000.00000	106.61555	1269.33657	106.61555
36050.00000	106.66204	1267.50056	106.66204
36100.00000	106.88384	1267.23203	106.88384
36150.00000	107.11753	1265.55038	107.11753
36200.00000	107.36478	1264.54405	107.36478
36250.00000	107.48285	1263.05425	107.48285
36300.00000	107.63273	1262.12551	107.63273
36350.00000	108.06414	1261.05511	108.06414
36400.00000	108.25888	1260.10970	108.25888
36450.00000	108.39925	1257.76200	108.39925
36500.00000	108.91449	1257.27782	108.91449
36550.00000	109.04305	1253.31308	109.04305
36600.00000	109.26316	1252.54137	109.26316
36650.00000	109.61618	1251.95576	109.61618
36700.00000	110.01970	1247.77273	110.01970
36750.00000	110.36673	1245.01084	110.36673
36800.00000	110.40228	1243.14657	110.40228
36850.00000	110.68583	1241.26085	110.68583
36900.00000	111.14526	1239.19606	111.14526
36950.00000	111.28235	1235.79953	111.28235
37000.00000	111.03101	1234.47380	111.03101
37050.00000	111.36136	1232.28267	111.36136
37100.00000	111.79450	1227.43224	111.79450
37150.00000	112.16960	1224.39618	112.16960
37200.00000	112.46890	1222.77572	112.46890
37250.00000	112.40941	1219.02311	112.40941
37300.00000	112.48447	1217.33396	112.48447
37350.00000	112.99733	1213.81534	112.99733
37400.00000	112.90597	1211.80457	112.90597
37450.00000	113.10333	1208.51538	113.10333
37500.00000	113.47731	1205.48681	113.47731
37550.00000	113.38815	1202.49293	113.38815
37600.00000	113.62750	1199.47380	113.62750
37650.00000	113.85493	1197.33664	113.85493
37700.00000	114.10758	1192.12766	114.10758
37750.00000	114.27005	1190.42179	114.27005
37800.00000	114.31718	1186.39215	114.31718
37850.00000	114.42312	1182.06524	114.42312
37900.00000	114.68484	1179.09179	114.68484
37950.00000	114.82159	1177.28213	114.82159
38000.00000	114.77563	1173.70584	114.77563
38050.00000	115.10825	1169.30132	115.10825
38100.00000	115.36688	1166.66129	115.36688
38150.00000	115.40040	1162.35281	115.40040
38200.00000	115.68665	1157.51205	115.68665
38250.00000	115.83156	1154.82212	115.83156
38300.00000	116.05685	1149.98104	116.05685
38350.00000	116.13098	1147.18337	116.13098
38400.00000	116.32117	1142.80178	116.32117
38450.00000	116.49651	1137.38648	116.49651
38500.00000	116.70785	1133.39664	116.70785
38550.00000	116.90794	1128.91462	116.90794
38600.00000	117.11120	1124.33570	117.11120
38650.00000	117.22250	1119.33491	117.22250
38700.00000	117.36797	1114.18621	117.36797
38750.00000	117.50771	1109.50755	117.50771
38800.00000	117.64862	1104.40710	117.64862
38850.00000	117.66953	1099.08106	117.66953
38900.00000	117.85762	1093.78989	117.85762
38950.00000	117.94573	1088.30761	117.94573
39000.00000	117.98313	1082.37168	117.98313
39050.00000	118.04938	1076.45111	118.04938
39100.00000	117.89163	1070.46723	117.89163
39150.00000	117.81874	1064.78538	117.81874
39200.00000	117.76258	1059.21992	117.76258
39250.00000	117.69907	1053.46095	117.69907
39300.00000	117.54413	1047.62452	117.54413
39350.00000	117.38464	1042.55635	117.38464
39400.00000	117.06506	1036.33584	117.06506
39450.00000	116.79363	1031.32412	116.79363
39500.00000	116.61316	1026.01469	116.61316
39550.00000	116.28643	1020.68716	116.28643
39600.00000	115.89384	1015.55228	115.89384
39650.00000	115.61043	1011.20951	115.61043
39700.00000	115.21171	1006.89049	115.21171
39750.00000	114.88632	1002.52178	114.88632
39800.00000	114.53259	998.28554	114.53259
39850.00000	114.11780	994.25120	114.11780
39900.00000	113.76198	990.59162	113.76198
39950.00000	113.34363	987.02472	113.34363
40000.00000	112.89241	985.19083	112.89241
40050.00000	112.58276	980.63402	112.58276
40100.00000	112.23497	977.56879	112.23497
40150.00000	111.78108	974.00189	111.78108
40200.00000	111.40470	971.40857	111.40470
40250.00000	111.02915	968.44766	111.02915
40300.00000	110.73718	966.64139	110.73718
40350.00000	110.22084	964.54748	110.22084
40400.00000	109.84213	962.28120	109.84213
40450.00000	109.53884	960.34423	109.53884
40500.00000	109.22839	959.01337	109.22839
40550.00000	108.92126	956.67169	108.92126
40600.00000	108.58034	955.00065	108.58034
40650.00000	108.28712	953.77767	108.28712
40700.00000	107.84979	952.95279	107.84979
40750.00000	107.78644	950.97103	107.78644
40800.00000	107.42982	949.41199	107.42982
40850.00000	107.09195	949.29359	107.09195
40900.00000	106.73855	948.11195	106.73855
40950.00000	106.37009	948.42909	106.37009
41000.00000	105.98632	947.58870	105.98632
41050.00000	105.91559	946.41428	105.91559
41100.00000	105.77889	945.66025	105.77889
41150.00000	105.65347	946.83339	105.65347
41200.00000	105.59135	946.33327	105.59135
41250.00000	105.11390	943.49473	105.11390
41300.00000	104.78148	945.89223	104.78148
41350.00000	104.83269	946.00679	104.83269
41400.00000	104.54012	940.00679	104.54012
41450.00000	104.30125	944.84867	104.30125
41500.00000	104.19672	944.39003	104.19672
41550.00000	103.91134	947.01027	103.91134
41600.00000	103.31315	945.19593	103.31315
41650.00000	103.62637	944.03217	103.62637
41700.00000	103.73842	946.14330	103.73842
41750.00000	103.27238	948.81727	103.27238
41800.00000	102.76423	945.04098	102.76423
41850.00000	101.77491	948.02972	101.77491
41900.00000	101.88044	949.26084	101.88044
41950.00000	103.05853	955.06407	103.05853
42000.00000	101.99601	950.34691	101.99601
42050.00000	100.98847	949.26017	100.98847
42100.00000	100.99096	952.33062	100.99096
42150.00000	101.07160	946.16870	101.07160
42200.00000	100.23678	950.53220	100.23678
42250.00000	99.75557	955.50619	99.75557
42300.00000	98.76139	950.89601	98.76139
42350.00000	99.82413	952.26439	99.82413
42400.00000	99.75581	960.22227	99.75581
42450.00000	99.06484	954.72772	99.06484
42500.00000	99.26490	953.18584	99.26490
42550.00000	98.78623	970.09407	98.78623
42600.00000	99.04914	962.63738	99.04914
42650.00000	98.59755	960.79576	98.59755
42700.00000	99.25886	962.86071	99.25886
42750.00000	99.50395	960.04252	99.50395
42800.00000	99.04371	957.36400	99.04371
42850.00000	99.22755	952.09086	99.22755
42900.00000	100.17382	957.39121	100.17382
42950.00000	99.32997	957.24267	99.32997
43000.00000	99.37085	951.74738	99.37085
43050.00000	99.63760	943.75074	99.63760
43100.00000	100.36331	947.48425	100.36331
43150.00000	98.85877	940.51177	98.85877
43200.00000	99.45853	942.88130	99.45853
43250.00000	100.14962	939.33249	100.14962
43300.00000	99.88500	932.54210	99.88500
43350.00000	101.25695	929.72270	101.25695
43400.00000	100.92100	922.81235	100.92100
43450.00000	102.42415	923.97810	102.42415
43500.00000	101.26640	914.57666	101.26640
43550.00000	101.82745	909.96371	101.82745
43600.00000	102.12549	907.32119	102.12549
43650.00000	102.94518	893.14274	102.94518
43700.00000	102.34995	892.70552	102.34995
43750.00000	102.40814	894.20948	102.40814
43800.00000	103.05617	884.46198	103.05617
43850.00000	103.84723	878.97151	103.84723
43900.00000	104.07587	875.63118	104.07587
43950.00000	104.28085	869.04543	104.28085
44000.00000	103.99245	863.84159	103.99245
44050.00000	104.58957	857.15201	104.58957
44100.00000	105.03169	845.35850	105.03169
44150.00000	104.69819	848.21859	104.69819
44200.00000	104.94638	842.37711	104.94638
44250.00000	105.24949	835.82528	105.24949
44300.00000	105.64012	829.80990	105.64012
44350.00000	104.55035	821.93386	104.55035
44400.00000	105.69387	818.82621	105.69387
44450.00000	106.17306	814.65550	106.17306
44500.00000	105.37538	810.84925	105.37538
44550.00000	106.95864	798.76315	106.95864
44600.00000	106.02523	797.64744	106.02523
44650.00000	105.23425	788.41943	105.23425
44700.00000	105.22706	783.69392	105.22706
44750.00000	105.32414	782.08857	105.32414
44800.00000	106.21035	776.12082	106.21035
44850.00000	105.55635	770.86187	105.55635
44900.00000	105.01222	768.91173	105.01222
44950.00000	105.40102	758.19101	105.40102
45000.00000	105.29933	751.60685	105.29933
45050.00000	103.68138	755.95526	103.68138
45100.00000	104.39402	746.11099	104.39402
45150.00000	104.13982	735.78291	104.13982
45200.00000	104.06715	737.81429	104.06715
45250.00000	103.62457	733.53947	103.62457
45300.00000	103.11739	726.45402	103.11739
45350.00000	102.90808	721.20561	102.90808
45400.00000	102.89234	722.50876	102.89234
45450.00000	102.75765	713.72734	102.75765
45500.00000	101.04116	708.25820	101.04116
45550.00000	100.69420	710.71080	100.69420
45600.00000	102.22945	700.88472	102.22945
45650.00000	100.12185	695.36303	100.12185
45700.00000	100.16591	695.69850	100.16591
45750.00000	101.00658	699.84452	101.00658
45800.00000	99.58794	688.05617	99.58794
45850.00000	99.81522	689.60125	99.81522
45900.00000	98.92127	686.92256	98.92127
45950.00000	98.47837	688.96455	98.47837
46000.00000	96.99919	671.96126	96.99919
46050.00000	97.62505	669.86222	97.62505
46100.00000	95.60424	674.39436	95.60424
46150.00000	96.60164	677.24863	96.60164
46200.00000	94.54716	665.58804	94.54716
46250.00000	95.63205	664.49314	95.63205
46300.00000	93.75372	672.83794	93.75372
46350.00000	95.04367	661.52970	95.04367
46400.00000	93.97859	658.07212	93.97859
46450.00000	91.67434	658.85385	91.67434
46500.00000	92.72737	659.88882	92.72737
46550.00000	91.56133	666.61547	91.56133
46600.00000	91.36208	660.78174	91.36208
46650.00000	89.96071	665.46359	89.96071
46700.00000	89.65824	676.85995	89.65824
46750.00000	90.37442	682.46314	90.37442
46800.00000	88.67454	666.73438	88.67454
46850.00000	90.25283	327.84721	90.25283
46900.00000	90.28194	315.21015	90.28194
46950.00000	90.88584	319.94658	90.88584
47000.00000	90.09183	324.75316	90.09183
47050.00000	91.33186	314.17076	91.33186
47100.00000	91.03227	315.84446	91.03227
47150.00000	91.52757	317.61436	91.52757
47200.00000	90.84451	315.26269	90.84451
47250.00000	92.58670	317.27842	92.58670
47300.00000	91.91227	308.30127	91.91227
47350.00000	91.45777	-45.99727	91.45777
47400.00000	90.98414	-48.29802	90.98414
47450.00000	93.34425	-44.80788	93.34425
47500.00000	91.19702	-55.94516	91.19702
47550.00000	90.42654	-411.00501	90.42654
47600.00000	91.12183	-410.67292	91.12183
47650.00000	93.01115	-419.75867	93.01115
47700.00000	91.96824	-421.67576	91.96824
47750.00000	90.36463	-418.66090	90.36463
47800.00000	89.14116	-434.88399	89.14116
47850.00000	90.87510	-780.68665	90.87510
47900.00000	91.69121	-1130.47257	91.69121
47950.00000	89.59423	-1139.48312	89.59423
48000.00000	90.85745	-1136.74146	90.85745
48050.00000	91.81251	-1139.99958	91.81251
48100.00000	90.52031	-1141.17774	90.52031
48150.00000	91.17040	-1498.98355	91.17040
48200.00000	91.56139	-1499.05075	91.56139
48250.00000	90.62603	-1497.77272	90.62603
48300.00000	92.16557	-1501.59527	92.16557
48350.00000	91.43615	-1509.30368	91.43615
48400.00000	91.63617	-1854.55651	91.63617
48450.00000	92.70179	-1861.22862	92.70179
48500.00000	91.68143	-1864.33716	91.68143
48550.00000	90.74978	-1872.35683	90.74978
48600.00000	93.13435	-2226.85436	93.13435
48650.00000	93.08233	-2227.56830	93.08233
48700.00000	93.49739	-2237.75222	93.49739
48750.00000	91.52844	-2587.33698	91.52844
48800.00000	92.70580	-2595.08285	92.70580
48850.00000	93.50691	-2603.25815	93.50691
48900.00000	92.14767	-2954.98031	92.14767
48950.00000	92.47045	-2970.53478	92.47045
49000.00000	93.53339	-2974.02705	93.53339
49050.00000	92.73044	-2979.56054	92.73044
49100.00000	91.61580	-3338.10528	91.61580
49150.00000	93.38180	-3697.18985	93.38180
49200.00000	92.83877	-3701.72713	92.83877
49250.00000	92.59323	-4059.14987	92.59323
49300.00000	92.74129	-3715.56849	92.74129
49350.00000	91.63597	-3697.92258	91.63597
49400.00000	91.27362	-3350.49111	91.27362
49450.00000	90.72822	-2995.45857	90.72822
49500.00000	90.05511	-2638.68775	90.05511
49550.00000	91.22421	-2287.82568	91.22421
49600.00000	89.06804	-2275.10903	89.06804
49650.00000	89.95161	-2281.25434	89.95161
49700.00000	90.71007	-1944.59544	90.71007
49750.00000	90.18979	-1921.83297	90.18979
49800.00000	86.09679	-1914.16460	86.09679
49850.00000	87.99821	-1915.58126	87.99821
49900.00000	84.69096	-1567.18580	84.69096
49950.00000	89.19884	-1207.41253	89.19884
