---ACOUSTIC CALIBRATION---
Filename: C:\Data\AZH DATA\AZH62\RightSecondary.calib
Date: 8/27/2019 4:14:43 PM
Format: 4
Probe Tube Correction File: C:\Data\Probe Tube Calibrations\50_ProbeTube.calib
Experiment VIs: 850
EPL_CFTS.exe V12.0.1 (2012)
DAQmx V9.6

Attenuation (dB): 40.000000
Min Freq (Hz): 50.000000
Max Freq (Hz): 49950.000000
Freq Step (Hz): 50.000000
Sample Rate (Hz): 100000.000000
[Smoothing]
Method=None
MA.Iterations=0
MA.Length=0
Loess.Length=0
Loess.Type=Linear
Loess.Robust=FALSE


Freq(Hz)	Mag(dB)	Phase(deg)	Unsmoothed(dB)

50.00000	98.45605	405.58968	98.45605
100.00000	76.60912	480.03872	76.60912
150.00000	66.15955	656.58517	66.15955
200.00000	60.19833	477.70907	60.19833
250.00000	65.01361	373.24897	65.01361
300.00000	83.27349	259.25136	83.27349
350.00000	73.83405	294.54493	73.83405
400.00000	78.98091	275.54962	78.98091
450.00000	75.96052	270.25554	75.96052
500.00000	79.66756	277.96306	79.66756
550.00000	79.35019	277.69866	79.35019
600.00000	83.39529	270.48245	83.39529
650.00000	82.44311	267.08821	82.44311
700.00000	84.81551	251.47251	84.81551
750.00000	84.73719	255.30345	84.73719
800.00000	87.90557	242.35863	87.90557
850.00000	88.81472	242.79572	88.81472
900.00000	90.50751	221.40309	90.50751
950.00000	91.00395	211.97536	91.00395
1000.00000	91.39131	199.59196	91.39131
1050.00000	90.15538	188.23575	90.15538
1100.00000	90.10737	180.60487	90.10737
1150.00000	89.14044	168.29732	89.14044
1200.00000	87.29367	169.18005	87.29367
1250.00000	88.48039	157.46781	88.48039
1300.00000	85.50313	149.88238	85.50313
1350.00000	86.29809	151.19855	86.29809
1400.00000	84.84655	137.54405	84.84655
1450.00000	85.84502	151.56762	85.84502
1500.00000	84.05159	138.03324	84.05159
1550.00000	85.97190	151.07712	85.97190
1600.00000	87.06349	138.66998	87.06349
1650.00000	87.66328	136.91717	87.66328
1700.00000	86.12228	128.24917	86.12228
1750.00000	85.79105	133.18105	85.79105
1800.00000	85.61103	125.88530	85.61103
1850.00000	84.80664	131.98775	84.80664
1900.00000	86.40221	127.21655	86.40221
1950.00000	86.20165	124.97243	86.20165
2000.00000	87.75240	123.63806	87.75240
2050.00000	85.03009	113.70486	85.03009
2100.00000	85.05834	110.23289	85.05834
2150.00000	84.64573	104.68926	84.64573
2200.00000	84.25998	114.77004	84.25998
2250.00000	83.64696	97.93994	83.64696
2300.00000	82.67630	114.45681	82.67630
2350.00000	83.48890	96.20422	83.48890
2400.00000	81.83204	96.09850	81.83204
2450.00000	83.08152	98.91745	83.08152
2500.00000	80.49283	102.68564	80.49283
2550.00000	82.53852	101.99054	82.53852
2600.00000	81.51269	99.76607	81.51269
2650.00000	82.34175	119.36956	82.34175
2700.00000	82.83993	122.16312	82.83993
2750.00000	85.46155	118.39074	85.46155
2800.00000	85.39479	109.53631	85.39479
2850.00000	85.65218	99.15706	85.65218
2900.00000	85.25360	92.37078	85.25360
2950.00000	84.63541	91.16818	84.63541
3000.00000	84.15349	89.99153	84.15349
3050.00000	83.89573	85.10173	83.89573
3100.00000	83.34808	82.49260	83.34808
3150.00000	82.97595	79.71783	82.97595
3200.00000	82.06563	78.50356	82.06563
3250.00000	81.74492	77.79751	81.74492
3300.00000	80.67756	78.64242	80.67756
3350.00000	79.60793	82.10991	79.60793
3400.00000	79.19574	91.35001	79.19574
3450.00000	79.16821	101.82709	79.16821
3500.00000	80.78200	104.43224	80.78200
3550.00000	80.65079	109.84806	80.65079
3600.00000	80.15340	110.19674	80.15340
3650.00000	81.31007	111.45280	81.31007
3700.00000	81.55668	119.69891	81.55668
3750.00000	82.13010	126.93678	82.13010
3800.00000	83.90956	134.10956	83.90956
3850.00000	84.91740	136.29705	84.91740
3900.00000	86.84795	138.44807	86.84795
3950.00000	88.09598	136.05759	88.09598
4000.00000	89.11142	133.18710	89.11142
4050.00000	90.39000	128.67694	90.39000
4100.00000	91.00373	124.21433	91.00373
4150.00000	92.03417	120.48151	92.03417
4200.00000	92.76151	118.51080	92.76151
4250.00000	93.30875	113.88686	93.30875
4300.00000	94.12282	113.51641	94.12282
4350.00000	94.59959	111.74247	94.59959
4400.00000	95.74502	110.39905	95.74502
4450.00000	97.06215	108.82176	97.06215
4500.00000	98.35728	105.97273	98.35728
4550.00000	99.94055	100.87470	99.94055
4600.00000	101.39869	94.77844	101.39869
4650.00000	102.82098	86.52268	102.82098
4700.00000	104.21444	76.33495	104.21444
4750.00000	105.40648	64.07956	105.40648
4800.00000	106.33681	49.61736	106.33681
4850.00000	106.77399	34.24914	106.77399
4900.00000	106.71807	18.67778	106.71807
4950.00000	106.14639	 4.19445	106.14639
5000.00000	105.10524	-7.90609	105.10524
5050.00000	104.06030	-15.76342	104.06030
5100.00000	102.87271	-25.07058	102.87271
5150.00000	100.40811	-27.59824	100.40811
5200.00000	99.32544	-9.17763	99.32544
5250.00000	102.40671	-3.66459	102.40671
5300.00000	104.09935	-17.04670	104.09935
5350.00000	104.36528	-30.49965	104.36528
5400.00000	104.10071	-41.23643	104.10071
5450.00000	103.62949	-49.72327	103.62949
5500.00000	103.14866	-56.91818	103.14866
5550.00000	102.69151	-63.24025	102.69151
5600.00000	102.23644	-68.84942	102.23644
5650.00000	101.79955	-74.10978	101.79955
5700.00000	101.36629	-79.11543	101.36629
5750.00000	100.95210	-83.48686	100.95210
5800.00000	100.52223	-87.78653	100.52223
5850.00000	100.15322	-92.08142	100.15322
5900.00000	99.77195	-96.00020	99.77195
5950.00000	99.42189	-99.81642	99.42189
6000.00000	99.02632	-103.31045	99.02632
6050.00000	98.70097	-107.02259	98.70097
6100.00000	98.36940	-110.42565	98.36940
6150.00000	98.04564	-113.83601	98.04564
6200.00000	97.68586	-116.94795	97.68586
6250.00000	97.36124	-120.09090	97.36124
6300.00000	97.02403	-123.18178	97.02403
6350.00000	96.75443	-126.36843	96.75443
6400.00000	96.43413	-129.21574	96.43413
6450.00000	96.10574	-131.87807	96.10574
6500.00000	95.80265	-134.78664	95.80265
6550.00000	95.49669	-137.49195	95.49669
6600.00000	95.19547	-140.01723	95.19547
6650.00000	94.89924	-142.37848	94.89924
6700.00000	94.58236	-144.94797	94.58236
6750.00000	94.28500	-146.99008	94.28500
6800.00000	93.97832	-149.11278	93.97832
6850.00000	93.76429	-150.74516	93.76429
6900.00000	93.46357	-152.61954	93.46357
6950.00000	93.18257	-154.29877	93.18257
7000.00000	93.01593	-155.70370	93.01593
7050.00000	92.81166	-157.78700	92.81166
7100.00000	92.62273	-159.17927	92.62273
7150.00000	92.42617	-160.74359	92.42617
7200.00000	92.28175	-162.13248	92.28175
7250.00000	92.14511	-163.53400	92.14511
7300.00000	92.00921	-165.05989	92.00921
7350.00000	91.89506	-166.32657	91.89506
7400.00000	91.86885	-167.79420	91.86885
7450.00000	91.85423	-168.51621	91.85423
7500.00000	91.88664	-170.13773	91.88664
7550.00000	91.93653	-171.61732	91.93653
7600.00000	92.03151	-173.24904	92.03151
7650.00000	92.10669	-175.02007	92.10669
7700.00000	92.24423	-177.03094	92.24423
7750.00000	92.30280	-179.22381	92.30280
7800.00000	92.47188	-182.12060	92.47188
7850.00000	92.63547	-184.92632	92.63547
7900.00000	92.72547	-187.92605	92.72547
7950.00000	92.81386	-191.01146	92.81386
8000.00000	92.85471	-194.86782	92.85471
8050.00000	92.89512	-198.61667	92.89512
8100.00000	92.91617	-202.07766	92.91617
8150.00000	92.84877	-206.13863	92.84877
8200.00000	92.81368	-209.55209	92.81368
8250.00000	92.70020	-213.48258	92.70020
8300.00000	92.61631	-217.29252	92.61631
8350.00000	92.44669	-221.03879	92.44669
8400.00000	92.23665	-225.09798	92.23665
8450.00000	91.97005	-228.79735	91.97005
8500.00000	91.68919	-232.34700	91.68919
8550.00000	91.49553	-235.43287	91.49553
8600.00000	91.16075	-238.50846	91.16075
8650.00000	90.90253	-242.17248	90.90253
8700.00000	90.62432	-245.84465	90.62432
8750.00000	90.30881	-247.79296	90.30881
8800.00000	90.01571	-250.70081	90.01571
8850.00000	89.69069	-253.41316	89.69069
8900.00000	89.44914	-255.82819	89.44914
8950.00000	89.15613	-258.42031	89.15613
9000.00000	88.79570	-260.24677	88.79570
9050.00000	88.59081	-262.73022	88.59081
9100.00000	88.31120	-264.85154	88.31120
9150.00000	88.17338	-267.10580	88.17338
9200.00000	88.02463	-268.74549	88.02463
9250.00000	87.77136	-271.15613	87.77136
9300.00000	87.66940	-272.79661	87.66940
9350.00000	87.50692	-274.94141	87.50692
9400.00000	87.26438	-276.53167	87.26438
9450.00000	87.20453	-278.13351	87.20453
9500.00000	87.08963	-280.12934	87.08963
9550.00000	86.96330	-281.57282	86.96330
9600.00000	86.85585	-283.38328	86.85585
9650.00000	86.75047	-285.73720	86.75047
9700.00000	86.64654	-286.88362	86.64654
9750.00000	86.62220	-289.69034	86.62220
9800.00000	86.42060	-291.30041	86.42060
9850.00000	86.32117	-292.94152	86.32117
9900.00000	86.04949	-295.17645	86.04949
9950.00000	85.90924	-297.12497	85.90924
10000.00000	85.67120	-299.26171	85.67120
10050.00000	85.53196	-301.07836	85.53196
10100.00000	85.31799	-303.09860	85.31799
10150.00000	85.07581	-305.99526	85.07581
10200.00000	84.93380	-307.92737	84.93380
10250.00000	84.64050	-310.28000	84.64050
10300.00000	84.64662	-312.26069	84.64662
10350.00000	84.44223	-314.25859	84.44223
10400.00000	84.24166	-316.74992	84.24166
10450.00000	84.15938	-318.55334	84.15938
10500.00000	84.11582	-320.52168	84.11582
10550.00000	83.96184	-322.93319	83.96184
10600.00000	83.89066	-324.89699	83.89066
10650.00000	83.71266	-326.42522	83.71266
10700.00000	83.64368	-329.17051	83.64368
10750.00000	83.53529	-331.23239	83.53529
10800.00000	83.37230	-333.36658	83.37230
10850.00000	83.23449	-336.01943	83.23449
10900.00000	83.09924	-337.97344	83.09924
10950.00000	82.95415	-339.99066	82.95415
11000.00000	82.72929	-342.29509	82.72929
11050.00000	82.48703	-344.29285	82.48703
11100.00000	82.25030	-346.91181	82.25030
11150.00000	81.92556	-348.63384	81.92556
11200.00000	81.80476	-350.50091	81.80476
11250.00000	81.50076	-352.82151	81.50076
11300.00000	81.19816	-354.97912	81.19816
11350.00000	80.93628	-356.08281	80.93628
11400.00000	80.57796	-357.27106	80.57796
11450.00000	80.38041	-359.60649	80.38041
11500.00000	80.29579	-360.31467	80.29579
11550.00000	80.04052	-361.38067	80.04052
11600.00000	79.93065	-363.53507	79.93065
11650.00000	79.76162	-363.92334	79.76162
11700.00000	79.66664	-364.82201	79.66664
11750.00000	79.50816	-365.91179	79.50816
11800.00000	79.44818	-367.33106	79.44818
11850.00000	79.43346	-368.29061	79.43346
11900.00000	79.20815	-370.07841	79.20815
11950.00000	79.13608	-371.33616	79.13608
12000.00000	79.00896	-372.44551	79.00896
12050.00000	78.97083	-374.27429	78.97083
12100.00000	78.91869	-376.92444	78.91869
12150.00000	78.77273	-378.46938	78.77273
12200.00000	78.69439	-381.23666	78.69439
12250.00000	78.69151	-382.68977	78.69151
12300.00000	79.69801	-385.71943	79.69801
12350.00000	78.38259	-388.00176	78.38259
12400.00000	78.23490	-390.06929	78.23490
12450.00000	78.04350	-391.52057	78.04350
12500.00000	77.88126	-393.81497	77.88126
12550.00000	77.56094	-396.26875	77.56094
12600.00000	77.17827	-397.95405	77.17827
12650.00000	77.20880	-399.41387	77.20880
12700.00000	76.74579	-401.27206	76.74579
12750.00000	76.50215	-404.24445	76.50215
12800.00000	76.03343	-404.88720	76.03343
12850.00000	75.59059	-405.44105	75.59059
12900.00000	75.48013	-408.56848	75.48013
12950.00000	75.20152	-408.96617	75.20152
13000.00000	74.89551	-411.79528	74.89551
13050.00000	74.73839	-409.99604	74.73839
13100.00000	74.47289	-410.84237	74.47289
13150.00000	74.41235	-413.99601	74.41235
13200.00000	74.10877	-413.78836	74.10877
13250.00000	73.90977	-412.91134	73.90977
13300.00000	73.41055	-412.22287	73.41055
13350.00000	73.12777	-413.60374	73.12777
13400.00000	73.45614	-414.09149	73.45614
13450.00000	72.70678	-413.93721	72.70678
13500.00000	72.47632	-414.32242	72.47632
13550.00000	72.52704	-414.25622	72.52704
13600.00000	72.52090	-414.60270	72.52090
13650.00000	72.13772	-416.00420	72.13772
13700.00000	71.75568	-415.44891	71.75568
13750.00000	71.25454	-417.31271	71.25454
13800.00000	71.48998	-417.44397	71.48998
13850.00000	70.55735	-413.85193	70.55735
13900.00000	71.11141	-416.79000	71.11141
13950.00000	71.37213	-417.54435	71.37213
14000.00000	70.58888	-416.41403	70.58888
14050.00000	71.10695	-414.57764	71.10695
14100.00000	70.56460	-416.00541	70.56460
14150.00000	70.81104	-414.82992	70.81104
14200.00000	70.62950	-415.28425	70.62950
14250.00000	71.06496	-415.33587	71.06496
14300.00000	70.91650	-412.24222	70.91650
14350.00000	70.41821	-412.45474	70.41821
14400.00000	70.43269	-413.63758	70.43269
14450.00000	70.94370	-411.02071	70.94370
14500.00000	70.56935	-410.02129	70.56935
14550.00000	70.46120	-410.44416	70.46120
14600.00000	70.63994	-414.82994	70.63994
14650.00000	71.16026	-413.14721	71.16026
14700.00000	71.10619	-415.14750	71.10619
14750.00000	71.30289	-414.03089	71.30289
14800.00000	70.94390	-413.64123	70.94390
14850.00000	71.15670	-416.27900	71.15670
14900.00000	72.30913	-411.98511	72.30913
14950.00000	71.42995	-413.65637	71.42995
15000.00000	72.00718	-418.26183	72.00718
15050.00000	71.79271	-411.52548	71.79271
15100.00000	71.92155	-414.64203	71.92155
15150.00000	72.00401	-419.67241	72.00401
15200.00000	72.58031	-413.84382	72.58031
15250.00000	71.83385	-417.57256	71.83385
15300.00000	72.26353	-417.63397	72.26353
15350.00000	72.76891	-416.44689	72.76891
15400.00000	72.09941	-419.22567	72.09941
15450.00000	72.12373	-417.43816	72.12373
15500.00000	72.34636	-421.86931	72.34636
15550.00000	72.81684	-420.00021	72.81684
15600.00000	72.72282	-422.03789	72.72282
15650.00000	73.77189	-419.17493	73.77189
15700.00000	73.08734	-419.46598	73.08734
15750.00000	73.03253	-422.38823	73.03253
15800.00000	73.71030	-418.53666	73.71030
15850.00000	74.02598	-419.87002	74.02598
15900.00000	73.98214	-422.04593	73.98214
15950.00000	74.26050	-424.58135	74.26050
16000.00000	74.14078	-423.93543	74.14078
16050.00000	74.05139	-427.40868	74.05139
16100.00000	75.18294	-423.63157	75.18294
16150.00000	74.89918	-426.89011	74.89918
16200.00000	75.42488	-427.38651	75.42488
16250.00000	75.60072	-427.04487	75.60072
16300.00000	76.03740	-430.56461	76.03740
16350.00000	76.01164	-429.26713	76.01164
16400.00000	76.19682	-427.95167	76.19682
16450.00000	75.92405	-430.23777	75.92405
16500.00000	77.36370	-436.62944	77.36370
16550.00000	77.04218	-434.66723	77.04218
16600.00000	77.13077	-437.67795	77.13077
16650.00000	77.43934	-436.10907	77.43934
16700.00000	77.42019	-435.00414	77.42019
16750.00000	78.12294	-439.68240	78.12294
16800.00000	77.95422	-440.90834	77.95422
16850.00000	78.41572	-441.40335	78.41572
16900.00000	78.77828	-443.20957	78.77828
16950.00000	78.81669	-446.82713	78.81669
17000.00000	79.06671	-449.19647	79.06671
17050.00000	79.30955	-449.08453	79.30955
17100.00000	79.82405	-450.01957	79.82405
17150.00000	79.89467	-452.50052	79.89467
17200.00000	80.25703	-456.66464	80.25703
17250.00000	80.16434	-459.35869	80.16434
17300.00000	80.48651	-459.97938	80.48651
17350.00000	80.72852	-458.91643	80.72852
17400.00000	80.50516	-463.22298	80.50516
17450.00000	81.15642	-466.11240	81.15642
17500.00000	80.97366	-469.76507	80.97366
17550.00000	81.15118	-471.54975	81.15118
17600.00000	81.58628	-472.27448	81.58628
17650.00000	81.62719	-474.04430	81.62719
17700.00000	81.74750	-476.27917	81.74750
17750.00000	82.35567	-476.90664	82.35567
17800.00000	82.26617	-480.11101	82.26617
17850.00000	82.73960	-480.95740	82.73960
17900.00000	82.41698	-484.39909	82.41698
17950.00000	83.06481	-486.11815	83.06481
18000.00000	83.06481	-486.44463	83.06481
18050.00000	83.40013	-489.00668	83.40013
18100.00000	83.75629	-492.59292	83.75629
18150.00000	83.36841	-493.01342	83.36841
18200.00000	84.03217	-497.39771	84.03217
18250.00000	84.17002	-498.77754	84.17002
18300.00000	84.28213	-501.55289	84.28213
18350.00000	84.58343	-504.81265	84.58343
18400.00000	84.61251	-504.17140	84.61251
18450.00000	85.05736	-509.56274	85.05736
18500.00000	85.14322	-512.48253	85.14322
18550.00000	85.26704	-513.35780	85.26704
18600.00000	85.70320	-517.22627	85.70320
18650.00000	85.76237	-518.80923	85.76237
18700.00000	85.73372	-522.32835	85.73372
18750.00000	86.02130	-524.68632	86.02130
18800.00000	86.45133	-526.28086	86.45133
18850.00000	86.50701	-529.09543	86.50701
18900.00000	86.72430	-532.88265	86.72430
18950.00000	87.05683	-535.07089	87.05683
19000.00000	87.09564	-538.49265	87.09564
19050.00000	87.24473	-541.69130	87.24473
19100.00000	87.40975	-543.97996	87.40975
19150.00000	87.74532	-548.29515	87.74532
19200.00000	87.92283	-550.88860	87.92283
19250.00000	88.05633	-555.56376	88.05633
19300.00000	88.02806	-558.46551	88.02806
19350.00000	88.24226	-562.12950	88.24226
19400.00000	88.31968	-565.74691	88.31968
19450.00000	88.54841	-568.93424	88.54841
19500.00000	88.36286	-573.87159	88.36286
19550.00000	88.53973	-576.92128	88.53973
19600.00000	88.44273	-581.11368	88.44273
19650.00000	88.51940	-584.60145	88.51940
19700.00000	88.36746	-587.96701	88.36746
19750.00000	88.38663	-591.23234	88.38663
19800.00000	88.45516	-595.99605	88.45516
19850.00000	88.38785	-598.31671	88.38785
19900.00000	88.33631	-602.94012	88.33631
19950.00000	88.15566	-606.36384	88.15566
20000.00000	88.18389	-609.26137	88.18389
20050.00000	88.05928	-612.34182	88.05928
20100.00000	87.87639	-616.42021	87.87639
20150.00000	87.91838	-618.67441	87.91838
20200.00000	87.65401	-622.26611	87.65401
20250.00000	87.59180	-625.38207	87.59180
20300.00000	87.43387	-628.32121	87.43387
20350.00000	87.22113	-630.75153	87.22113
20400.00000	87.04894	-633.20050	87.04894
20450.00000	86.76514	-636.04601	86.76514
20500.00000	86.75532	-638.02012	86.75532
20550.00000	86.30926	-640.62475	86.30926
20600.00000	86.21425	-642.19923	86.21425
20650.00000	86.07705	-644.08178	86.07705
20700.00000	85.80771	-646.04134	85.80771
20750.00000	85.71182	-647.33348	85.71182
20800.00000	85.53949	-648.18142	85.53949
20850.00000	85.44371	-649.86382	85.44371
20900.00000	85.29639	-650.56454	85.29639
20950.00000	85.29309	-650.52101	85.29309
21000.00000	85.18311	-651.62162	85.18311
21050.00000	85.25124	-651.53844	85.25124
21100.00000	85.33515	-651.88350	85.33515
21150.00000	85.50536	-652.96692	85.50536
21200.00000	85.76353	-653.40638	85.76353
21250.00000	85.86098	-655.60695	85.86098
21300.00000	86.13443	-656.54164	86.13443
21350.00000	86.35912	-657.49176	86.35912
21400.00000	86.56025	-660.49654	86.56025
21450.00000	86.78831	-662.48429	86.78831
21500.00000	86.95886	-665.27590	86.95886
21550.00000	87.06913	-668.61627	87.06913
21600.00000	87.24792	-670.95408	87.24792
21650.00000	87.41373	-673.90348	87.41373
21700.00000	87.46870	-676.40022	87.46870
21750.00000	87.60576	-679.61490	87.60576
21800.00000	87.64204	-682.82225	87.64204
21850.00000	87.60599	-685.59463	87.60599
21900.00000	87.67636	-688.10199	87.67636
21950.00000	87.76542	-690.87602	87.76542
22000.00000	87.73139	-692.71682	87.73139
22050.00000	87.81629	-695.82254	87.81629
22100.00000	87.66179	-697.73024	87.66179
22150.00000	87.76341	-699.72209	87.76341
22200.00000	87.62646	-701.90938	87.62646
22250.00000	87.56153	-704.48620	87.56153
22300.00000	87.65926	-706.99017	87.65926
22350.00000	87.47518	-710.15767	87.47518
22400.00000	87.81631	-712.42330	87.81631
22450.00000	87.51246	-713.02072	87.51246
22500.00000	87.32840	-715.99096	87.32840
22550.00000	87.37674	-717.31928	87.37674
22600.00000	87.50839	-720.84711	87.50839
22650.00000	87.37229	-720.78321	87.37229
22700.00000	87.37771	-723.43799	87.37771
22750.00000	87.38519	-723.52847	87.38519
22800.00000	87.28676	-727.65122	87.28676
22850.00000	87.63153	-728.49799	87.63153
22900.00000	87.29984	-729.66770	87.29984
22950.00000	87.34280	-732.13948	87.34280
23000.00000	87.35403	-733.98177	87.35403
23050.00000	87.40795	-734.29799	87.40795
23100.00000	87.71809	-736.55733	87.71809
23150.00000	87.47339	-736.85602	87.47339
23200.00000	87.71992	-739.38886	87.71992
23250.00000	87.66924	-741.76922	87.66924
23300.00000	87.63187	-745.55710	87.63187
23350.00000	87.66754	-744.61574	87.66754
23400.00000	87.75236	-747.28652	87.75236
23450.00000	88.22519	-750.46455	88.22519
23500.00000	87.75946	-750.33808	87.75946
23550.00000	87.81800	-750.15770	87.81800
23600.00000	88.10563	-754.82907	88.10563
23650.00000	88.04728	-755.66490	88.04728
23700.00000	88.48914	-760.38648	88.48914
23750.00000	88.07432	-761.74064	88.07432
23800.00000	88.37791	-763.03996	88.37791
23850.00000	88.03596	-761.04977	88.03596
23900.00000	88.69725	-768.09285	88.69725
23950.00000	88.42694	-770.43138	88.42694
24000.00000	88.83924	-773.00959	88.83924
24050.00000	88.73774	-772.33257	88.73774
24100.00000	89.01186	-778.14513	89.01186
24150.00000	88.79245	-778.12668	88.79245
24200.00000	89.10550	-782.84036	89.10550
24250.00000	88.61654	-783.85740	88.61654
24300.00000	89.99196	-783.99794	89.99196
24350.00000	88.86748	-428.91819	88.86748
24400.00000	89.17242	-432.92059	89.17242
24450.00000	88.63933	-430.88222	88.63933
24500.00000	89.60176	-76.94924	89.60176
24550.00000	89.32256	277.63919	89.32256
24600.00000	90.27573	278.33642	90.27573
24650.00000	89.62882	633.00707	89.62882
24700.00000	89.51462	991.52592	89.51462
24750.00000	89.50362	1346.96416	89.50362
24800.00000	89.52945	1704.43782	89.52945
24850.00000	89.13503	2060.87684	89.13503
24900.00000	90.09894	2063.79751	90.09894
24950.00000	89.21638	2414.99441	89.21638
25000.00000	89.29951	2406.89877	89.29951
25050.00000	90.66787	2403.31594	90.66787
25100.00000	88.57686	2045.92959	88.57686
25150.00000	89.16447	2041.64582	89.16447
25200.00000	89.11240	2037.34912	89.11240
25250.00000	89.03809	2034.42440	89.03809
25300.00000	88.89434	2036.83630	88.89434
25350.00000	88.93614	2031.12214	88.93614
25400.00000	88.75430	2021.15846	88.75430
25450.00000	88.31910	2023.80441	88.31910
25500.00000	88.53574	2020.02597	88.53574
25550.00000	88.39605	2011.85685	88.39605
25600.00000	88.15560	2010.80502	88.15560
25650.00000	87.71112	2010.08020	87.71112
25700.00000	87.83409	2006.90500	87.83409
25750.00000	87.90375	2002.30702	87.90375
25800.00000	87.98144	1997.54309	87.98144
25850.00000	87.41401	1998.20255	87.41401
25900.00000	87.24019	1993.83625	87.24019
25950.00000	87.03639	1992.27679	87.03639
26000.00000	86.98786	1989.41171	86.98786
26050.00000	86.91921	1981.97698	86.91921
26100.00000	86.62261	1985.17664	86.62261
26150.00000	86.65617	1979.63946	86.65617
26200.00000	86.32565	1976.87090	86.32565
26250.00000	86.20765	1971.94748	86.20765
26300.00000	85.82028	1970.81113	85.82028
26350.00000	85.54529	1970.03344	85.54529
26400.00000	85.24484	1964.24788	85.24484
26450.00000	85.87560	1963.40527	85.87560
26500.00000	84.89432	1958.41016	84.89432
26550.00000	84.47908	1954.37297	84.47908
26600.00000	84.62594	1950.39717	84.62594
26650.00000	84.92714	1951.80534	84.92714
26700.00000	84.89581	1950.39743	84.89581
26750.00000	84.25831	1944.05165	84.25831
26800.00000	84.44406	1939.90327	84.44406
26850.00000	83.48432	1938.18908	83.48432
26900.00000	83.38220	1936.33000	83.38220
26950.00000	83.93204	1933.56052	83.93204
27000.00000	83.13941	1931.66531	83.13941
27050.00000	83.97773	1924.62349	83.97773
27100.00000	83.10564	1928.65528	83.10564
27150.00000	82.91000	1922.18014	82.91000
27200.00000	83.42116	1920.67002	83.42116
27250.00000	82.00656	1920.80056	82.00656
27300.00000	82.46026	1910.77348	82.46026
27350.00000	82.03063	1917.07266	82.03063
27400.00000	81.48357	1915.85883	81.48357
27450.00000	81.79441	1908.74367	81.79441
27500.00000	81.44560	1908.87245	81.44560
27550.00000	81.51065	1909.00811	81.51065
27600.00000	82.15629	1901.99967	82.15629
27650.00000	80.95652	1904.17400	80.95652
27700.00000	80.65596	1894.19790	80.65596
27750.00000	80.64325	1889.00485	80.64325
27800.00000	81.07473	1885.99449	81.07473
27850.00000	80.53028	1893.35324	80.53028
27900.00000	79.55132	1888.09437	79.55132
27950.00000	79.61384	1885.66541	79.61384
28000.00000	79.77275	1887.06565	79.77275
28050.00000	79.62682	1878.37076	79.62682
28100.00000	79.74895	1879.13409	79.74895
28150.00000	80.07118	1877.48037	80.07118
28200.00000	79.11813	1873.22417	79.11813
28250.00000	78.20631	1866.87293	78.20631
28300.00000	77.58769	1877.36934	77.58769
28350.00000	77.59582	1864.45196	77.59582
28400.00000	77.64501	1868.51190	77.64501
28450.00000	78.56230	1865.54895	78.56230
28500.00000	77.41150	1863.55318	77.41150
28550.00000	77.56473	1858.43686	77.56473
28600.00000	76.37237	1868.70243	76.37237
28650.00000	78.19103	1857.57774	78.19103
28700.00000	75.92616	1868.45021	75.92616
28750.00000	78.21111	1864.55647	78.21111
28800.00000	77.38565	1869.77512	77.38565
28850.00000	75.15236	1868.41230	75.15236
28900.00000	76.99793	1865.09721	76.99793
28950.00000	75.56374	1853.21409	75.56374
29000.00000	76.57525	1848.42245	76.57525
29050.00000	77.71398	1855.44269	77.71398
29100.00000	75.84512	1863.45684	75.84512
29150.00000	77.02595	1846.67495	77.02595
29200.00000	75.32528	1861.37568	75.32528
29250.00000	75.58505	1853.14527	75.58505
29300.00000	75.70145	1857.01531	75.70145
29350.00000	76.49916	1850.51052	76.49916
29400.00000	77.02323	1861.82340	77.02323
29450.00000	75.80085	1857.29147	75.80085
29500.00000	76.67600	1862.73369	76.67600
29550.00000	75.74808	1854.25188	75.74808
29600.00000	75.17395	1849.83400	75.17395
29650.00000	76.16893	1848.39179	76.16893
29700.00000	74.64516	1861.74791	74.64516
29750.00000	76.63307	1849.32118	76.63307
29800.00000	75.82419	1856.47428	75.82419
29850.00000	75.54509	1852.42884	75.54509
29900.00000	76.15718	1859.43020	76.15718
29950.00000	76.31330	1860.73892	76.31330
30000.00000	75.55759	1860.84171	75.55759
30050.00000	75.47272	1865.43301	75.47272
30100.00000	75.48275	1857.19077	75.48275
30150.00000	76.95737	1856.81347	76.95737
30200.00000	76.17237	1857.08639	76.17237
30250.00000	76.16393	1854.01753	76.16393
30300.00000	75.50813	1864.21248	75.50813
30350.00000	77.48820	1859.22211	77.48820
30400.00000	77.03867	1870.38335	77.03867
30450.00000	76.47189	1868.24945	76.47189
30500.00000	76.56511	1866.90420	76.56511
30550.00000	76.75375	1870.63406	76.75375
30600.00000	77.03908	1873.98429	77.03908
30650.00000	77.06433	1872.24131	77.06433
30700.00000	77.46120	1873.85533	77.46120
30750.00000	78.24486	1880.83436	78.24486
30800.00000	77.97355	1878.03045	77.97355
30850.00000	78.69282	1882.72096	78.69282
30900.00000	79.24643	1880.08560	79.24643
30950.00000	79.67633	1883.71890	79.67633
31000.00000	80.41670	1885.61943	80.41670
31050.00000	80.90404	1885.06502	80.90404
31100.00000	81.40304	1886.12997	81.40304
31150.00000	82.52242	1884.59887	82.52242
31200.00000	82.92752	1883.46778	82.92752
31250.00000	83.53295	1884.77545	83.53295
31300.00000	84.46641	1884.65032	84.46641
31350.00000	84.75110	1879.92670	84.75110
31400.00000	85.49528	1879.00871	85.49528
31450.00000	86.15506	1877.28523	86.15506
31500.00000	86.31906	1874.53743	86.31906
31550.00000	86.86499	1869.23869	86.86499
31600.00000	87.64803	1865.28729	87.64803
31650.00000	87.85732	1859.40911	87.85732
31700.00000	88.22760	1858.16588	88.22760
31750.00000	89.00748	1857.83848	89.00748
31800.00000	88.82560	1852.06329	88.82560
31850.00000	89.21703	1848.43232	89.21703
31900.00000	89.50170	1844.21301	89.50170
31950.00000	89.89789	1839.11149	89.89789
32000.00000	89.89352	1835.56750	89.89352
32050.00000	90.04943	1831.63205	90.04943
32100.00000	90.46510	1826.61048	90.46510
32150.00000	90.15535	1822.09319	90.15535
32200.00000	90.47271	1817.34478	90.47271
32250.00000	90.21451	1815.21565	90.21451
32300.00000	90.64286	1810.84583	90.64286
32350.00000	90.07160	1808.47904	90.07160
32400.00000	90.44651	1803.94950	90.44651
32450.00000	90.25175	1798.57372	90.25175
32500.00000	90.56739	1793.51146	90.56739
32550.00000	90.07168	1791.08143	90.07168
32600.00000	90.25021	1786.48951	90.25021
32650.00000	90.36464	1784.41222	90.36464
32700.00000	89.99677	1783.61011	89.99677
32750.00000	89.89851	1775.94394	89.89851
32800.00000	89.88738	1773.68826	89.88738
32850.00000	89.79743	1768.49689	89.79743
32900.00000	89.78836	1760.24235	89.78836
32950.00000	89.69693	1761.65264	89.69693
33000.00000	89.36021	1763.29928	89.36021
33050.00000	89.61128	1754.22313	89.61128
33100.00000	89.03834	1749.87400	89.03834
33150.00000	89.18735	1751.02244	89.18735
33200.00000	89.63562	1747.17050	89.63562
33250.00000	89.30873	1744.16290	89.30873
33300.00000	88.88631	1746.12290	88.88631
33350.00000	89.02036	1740.03049	89.02036
33400.00000	88.26360	1740.65664	88.26360
33450.00000	88.82854	1735.28926	88.82854
33500.00000	89.48060	1735.75470	89.48060
33550.00000	88.82303	1733.81889	88.82303
33600.00000	88.66747	1732.71944	88.66747
33650.00000	88.76631	1724.56411	88.76631
33700.00000	88.54476	1720.24821	88.54476
33750.00000	88.14998	1722.45236	88.14998
33800.00000	89.08338	1718.56808	89.08338
33850.00000	88.80504	1714.35669	88.80504
33900.00000	88.54500	1712.39910	88.54500
33950.00000	89.05789	1706.15657	89.05789
34000.00000	89.23796	1711.45394	89.23796
34050.00000	88.88374	1704.23176	88.88374
34100.00000	88.81869	1700.52325	88.81869
34150.00000	89.70254	1699.15030	89.70254
34200.00000	88.93754	1693.36199	88.93754
34250.00000	88.88147	1690.73333	88.88147
34300.00000	88.40783	1691.85419	88.40783
34350.00000	88.97138	1684.43301	88.97138
34400.00000	89.19749	1685.63556	89.19749
34450.00000	89.38154	1681.02049	89.38154
34500.00000	89.07808	1676.96974	89.07808
34550.00000	89.84808	1677.29155	89.84808
34600.00000	89.27855	1670.63896	89.27855
34650.00000	89.67910	1670.74934	89.67910
34700.00000	88.90067	1669.96812	88.90067
34750.00000	88.79818	1665.21483	88.79818
34800.00000	88.93391	1663.53773	88.93391
34850.00000	89.03173	1659.19475	89.03173
34900.00000	89.66306	1665.84210	89.66306
34950.00000	90.32683	1654.38825	90.32683
35000.00000	89.39650	1646.05247	89.39650
35050.00000	90.19770	1649.83757	90.19770
35100.00000	89.79873	1646.80704	89.79873
35150.00000	89.62969	1640.34536	89.62969
35200.00000	89.39392	1637.72506	89.39392
35250.00000	89.71663	1635.31174	89.71663
35300.00000	90.68092	1637.36106	90.68092
35350.00000	91.02811	1633.35226	91.02811
35400.00000	90.03282	1635.66748	90.03282
35450.00000	89.50467	1629.82785	89.50467
35500.00000	90.91963	1630.49369	90.91963
35550.00000	90.70105	1625.24348	90.70105
35600.00000	89.68975	1625.12388	89.68975
35650.00000	90.48167	1621.02788	90.48167
35700.00000	90.72467	1619.28860	90.72467
35750.00000	90.66727	1619.63907	90.66727
35800.00000	89.76457	1614.20254	89.76457
35850.00000	90.66762	1616.46969	90.66762
35900.00000	91.53391	1616.93834	91.53391
35950.00000	92.04914	1613.17609	92.04914
36000.00000	90.78964	1612.11570	90.78964
36050.00000	92.03427	1611.64429	92.03427
36100.00000	92.01676	1605.96105	92.01676
36150.00000	92.19501	1607.90452	92.19501
36200.00000	91.98331	1602.95232	91.98331
36250.00000	92.16298	1599.33359	92.16298
36300.00000	92.37206	1597.04699	92.37206
36350.00000	92.55190	1597.59201	92.55190
36400.00000	93.33796	1600.49196	93.33796
36450.00000	92.83731	1596.72848	92.83731
36500.00000	93.19043	1594.76691	93.19043
36550.00000	93.02048	1596.91433	93.02048
36600.00000	93.60032	1590.74207	93.60032
36650.00000	94.01801	1589.50625	94.01801
36700.00000	94.65530	1590.33566	94.65530
36750.00000	94.08365	1582.65703	94.08365
36800.00000	94.32292	1582.12035	94.32292
36850.00000	94.39056	1582.90850	94.39056
36900.00000	95.17453	1578.05333	95.17453
36950.00000	95.47140	1572.29645	95.47140
37000.00000	94.71029	1570.97640	94.71029
37050.00000	95.07130	1571.78121	95.07130
37100.00000	95.89802	1572.81964	95.89802
37150.00000	95.75430	1570.02005	95.75430
37200.00000	96.28488	1564.09697	96.28488
37250.00000	96.41609	1565.87353	96.41609
37300.00000	96.52173	1561.72656	96.52173
37350.00000	96.56564	1557.16230	96.56564
37400.00000	96.80828	1553.03426	96.80828
37450.00000	96.96115	1555.24724	96.96115
37500.00000	97.10810	1551.29263	97.10810
37550.00000	97.25117	1551.87152	97.25117
37600.00000	97.39445	1549.19121	97.39445
37650.00000	97.87548	1546.55725	97.87548
37700.00000	97.80737	1543.49595	97.80737
37750.00000	98.04998	1542.85466	98.04998
37800.00000	97.81409	1538.55843	97.81409
37850.00000	98.32455	1535.83059	98.32455
37900.00000	98.44022	1532.58495	98.44022
37950.00000	98.64573	1531.09870	98.64573
38000.00000	98.15085	1525.78452	98.15085
38050.00000	98.59909	1526.21573	98.59909
38100.00000	98.87705	1521.54932	98.87705
38150.00000	98.62805	1518.64002	98.62805
38200.00000	98.82366	1515.63299	98.82366
38250.00000	99.19268	1513.53877	99.19268
38300.00000	99.33391	1509.31730	99.33391
38350.00000	99.14180	1504.14090	99.14180
38400.00000	99.31651	1501.93624	99.31651
38450.00000	99.50614	1498.88037	99.50614
38500.00000	99.44898	1494.31737	99.44898
38550.00000	99.68007	1490.74009	99.68007
38600.00000	99.67114	1489.26807	99.67114
38650.00000	99.86537	1484.92031	99.86537
38700.00000	99.72783	1480.13546	99.72783
38750.00000	100.06300	1474.91133	100.06300
38800.00000	100.21782	1471.77981	100.21782
38850.00000	100.15432	1469.30912	100.15432
38900.00000	99.81558	1463.69489	99.81558
38950.00000	100.16472	1457.15083	100.16472
39000.00000	100.30650	1454.17445	100.30650
39050.00000	100.26991	1448.04747	100.26991
39100.00000	99.87788	1443.80351	99.87788
39150.00000	100.04512	1437.91689	100.04512
39200.00000	99.95054	1433.63825	99.95054
39250.00000	99.64515	1427.79011	99.64515
39300.00000	99.48747	1424.30797	99.48747
39350.00000	99.63442	1420.11903	99.63442
39400.00000	99.28192	1416.01954	99.28192
39450.00000	99.03041	1409.92400	99.03041
39500.00000	98.70581	1403.92229	98.70581
39550.00000	98.51336	1399.01859	98.51336
39600.00000	98.25621	1395.13612	98.25621
39650.00000	98.30720	1394.69904	98.30720
39700.00000	98.09270	1387.48273	98.09270
39750.00000	97.80832	1384.10905	97.80832
39800.00000	97.26574	1380.95774	97.26574
39850.00000	97.13434	1376.12936	97.13434
39900.00000	96.78074	1370.57311	96.78074
39950.00000	96.58388	1368.48678	96.58388
40000.00000	96.02694	1367.02825	96.02694
40050.00000	95.83090	1361.85263	95.83090
40100.00000	95.57266	1358.04567	95.57266
40150.00000	95.41662	1355.58849	95.41662
40200.00000	95.11032	1353.06935	95.11032
40250.00000	94.86245	1350.88491	94.86245
40300.00000	94.85130	1346.85928	94.85130
40350.00000	93.85493	1345.62321	93.85493
40400.00000	93.97875	1342.65377	93.97875
40450.00000	93.43587	1340.54476	93.43587
40500.00000	93.55737	1339.87413	93.55737
40550.00000	93.28943	1337.38342	93.28943
40600.00000	93.32244	1333.72501	93.32244
40650.00000	92.90526	1330.52485	92.90526
40700.00000	92.39599	1332.78644	92.39599
40750.00000	92.73931	1331.73159	92.73931
40800.00000	92.51216	1327.59809	92.51216
40850.00000	92.07221	1325.94955	92.07221
40900.00000	92.68655	1322.35123	92.68655
40950.00000	92.36197	1325.69303	92.36197
41000.00000	91.88174	1324.59601	91.88174
41050.00000	92.53131	1326.95424	92.53131
41100.00000	92.55885	1320.80916	92.55885
41150.00000	92.86067	1325.53912	92.86067
41200.00000	92.92598	1323.83140	92.92598
41250.00000	92.61435	1315.56527	92.61435
41300.00000	92.96168	1322.03267	92.96168
41350.00000	93.35790	1316.66720	93.35790
41400.00000	93.41664	1312.50171	93.41664
41450.00000	93.78413	1318.62891	93.78413
41500.00000	93.28949	1311.42909	93.28949
41550.00000	93.70216	1315.02471	93.70216
41600.00000	93.62428	1311.83078	93.62428
41650.00000	94.79408	1309.62333	94.79408
41700.00000	94.58983	1308.16328	94.58983
41750.00000	94.33111	1315.35271	94.33111
41800.00000	94.27974	1303.05940	94.27974
41850.00000	92.62372	1299.21957	92.62372
41900.00000	93.59645	1298.40447	93.59645
41950.00000	94.69591	1303.63166	94.69591
42000.00000	93.91415	1298.88844	93.91415
42050.00000	93.51294	1293.46789	93.51294
42100.00000	93.19780	1300.27674	93.19780
42150.00000	93.47247	1290.82134	93.47247
42200.00000	93.08754	1285.40527	93.08754
42250.00000	94.30340	1290.63222	94.30340
42300.00000	92.00529	1282.21054	92.00529
42350.00000	93.25862	1297.53758	93.25862
42400.00000	92.42182	1288.15784	92.42182
42450.00000	93.21304	1283.67982	93.21304
42500.00000	92.79077	1282.77897	92.79077
42550.00000	91.57624	1297.17815	91.57624
42600.00000	90.20509	1290.21035	90.20509
42650.00000	90.38527	1279.02203	90.38527
42700.00000	90.66026	1285.23890	90.66026
42750.00000	93.17595	1290.33910	93.17595
42800.00000	90.70304	1268.05582	90.70304
42850.00000	91.57907	1268.99221	91.57907
42900.00000	91.10625	1275.29441	91.10625
42950.00000	89.91058	1293.37397	89.91058
43000.00000	92.56788	1259.45066	92.56788
43050.00000	89.49464	1271.87608	89.49464
43100.00000	90.74809	1267.77844	90.74809
43150.00000	90.20681	1271.99910	90.20681
43200.00000	89.38515	1279.16170	89.38515
43250.00000	90.17470	1273.74664	90.17470
43300.00000	88.95404	1257.09546	88.95404
43350.00000	92.07454	1271.59113	92.07454
43400.00000	87.93351	1268.87724	87.93351
43450.00000	90.65115	1266.95084	90.65115
43500.00000	84.55649	1264.05865	84.55649
43550.00000	88.52295	1252.33571	88.52295
43600.00000	90.39916	1239.60947	90.39916
43650.00000	88.55001	1244.81303	88.55001
43700.00000	89.09740	1242.42849	89.09740
43750.00000	87.60074	1253.78356	87.60074
43800.00000	87.01903	1234.55740	87.01903
43850.00000	89.79345	1250.05986	89.79345
43900.00000	90.04585	1238.06381	90.04585
43950.00000	85.46642	1238.95276	85.46642
44000.00000	85.76995	1232.73312	85.76995
44050.00000	87.62920	1218.50364	87.62920
44100.00000	87.12139	1189.58224	87.12139
44150.00000	84.78330	1213.53308	84.78330
44200.00000	85.47530	1221.37049	85.47530
44250.00000	83.44932	1210.61884	83.44932
44300.00000	87.79514	1196.78968	87.79514
44350.00000	85.95401	1199.77388	85.95401
44400.00000	87.16429	1197.43162	87.16429
44450.00000	83.34425	1190.24248	83.34425
44500.00000	86.46434	1189.04033	86.46434
44550.00000	88.38449	1171.26595	88.38449
44600.00000	85.15247	1158.12049	85.15247
44650.00000	85.14575	1163.83350	85.14575
44700.00000	83.23476	1166.14007	83.23476
44750.00000	81.82083	1150.04968	81.82083
44800.00000	80.45430	1163.19381	80.45430
44850.00000	81.55452	1171.87078	81.55452
44900.00000	87.08455	1135.71375	87.08455
44950.00000	84.49221	1160.81288	84.49221
45000.00000	82.84356	1118.58080	82.84356
45050.00000	85.79700	1126.52301	85.79700
45100.00000	81.66804	1123.75122	81.66804
45150.00000	84.46809	1104.89803	84.46809
45200.00000	83.70298	1124.25599	83.70298
45250.00000	76.70295	1114.14448	76.70295
45300.00000	78.19125	1110.69219	78.19125
45350.00000	76.06641	1059.68037	76.06641
45400.00000	81.88072	1097.52652	81.88072
45450.00000	78.63622	1089.36946	78.63622
45500.00000	78.52976	1072.67648	78.52976
45550.00000	77.63777	1056.58563	77.63777
45600.00000	78.48662	1062.28435	78.48662
45650.00000	74.96467	1083.73243	74.96467
45700.00000	74.42741	975.49360	74.42741
45750.00000	80.75017	1076.89850	80.75017
45800.00000	75.21211	1001.54014	75.21211
45850.00000	81.27195	1036.31446	81.27195
45900.00000	73.58059	1060.23435	73.58059
45950.00000	74.99402	1127.82234	74.99402
46000.00000	66.64148	967.07056	66.64148
46050.00000	64.53395	1018.84681	64.53395
46100.00000	56.88723	971.18925	56.88723
46150.00000	71.22368	1059.41975	71.22368
46200.00000	70.12090	1021.06815	70.12090
46250.00000	70.56458	1014.91639	70.56458
46300.00000	70.79550	1028.99209	70.79550
46350.00000	70.95426	992.19211	70.95426
46400.00000	74.14508	992.71934	74.14508
46450.00000	62.15109	1029.20966	62.15109
46500.00000	62.53578	972.46757	62.53578
46550.00000	69.94028	1020.92206	69.94028
46600.00000	70.99448	921.67757	70.99448
46650.00000	62.46772	714.43962	62.46772
46700.00000	65.85410	641.94707	65.85410
46750.00000	60.06953	671.52787	60.06953
46800.00000	59.16392	644.17687	59.16392
46850.00000	64.42921	281.22065	64.42921
46900.00000	70.31253	353.00649	70.31253
46950.00000	55.05851	355.39371	55.05851
47000.00000	69.81298	205.09244	69.81298
47050.00000	69.25945	300.47546	69.25945
47100.00000	52.74522	196.44255	52.74522
47150.00000	68.92448	311.11615	68.92448
47200.00000	60.63866	454.92909	60.63866
47250.00000	67.85134	286.51952	67.85134
47300.00000	71.77906	209.77012	71.77906
47350.00000	70.19031	-117.80429	70.19031
47400.00000	62.40783	-56.18306	62.40783
47450.00000	66.13594	75.74339	66.13594
47500.00000	62.19396	-109.71480	62.19396
47550.00000	61.12462	-509.68222	61.12462
47600.00000	62.04042	-625.22573	62.04042
47650.00000	67.79822	-764.39742	67.79822
47700.00000	71.60751	-941.09342	71.60751
47750.00000	60.49444	-774.67865	60.49444
47800.00000	68.79239	-772.32763	68.79239
47850.00000	64.18553	-1158.34387	64.18553
47900.00000	67.08626	-1543.56697	67.08626
47950.00000	67.83619	-1558.46898	67.83619
48000.00000	67.04280	-1510.74421	67.04280
48050.00000	64.23187	-1699.04163	64.23187
48100.00000	63.72044	-1578.52555	63.72044
48150.00000	63.91201	-1832.89527	63.91201
48200.00000	67.96271	-1916.18493	67.96271
48250.00000	70.81936	-1903.53299	70.81936
48300.00000	67.37680	-1880.57748	67.37680
48350.00000	70.74758	-1912.58023	70.74758
48400.00000	65.77002	-2302.41238	65.77002
48450.00000	67.51957	-2297.36884	67.51957
48500.00000	67.34622	-2280.80431	67.34622
48550.00000	69.28817	-2278.01902	69.28817
48600.00000	69.10311	-2672.02697	69.10311
48650.00000	71.98954	-2525.04679	71.98954
48700.00000	61.41984	-2457.97982	61.41984
48750.00000	66.09107	-2932.25257	66.09107
48800.00000	63.14288	-2961.70080	63.14288
48850.00000	72.51765	-3003.61539	72.51765
48900.00000	68.04356	-3362.23035	68.04356
48950.00000	66.02647	-3558.20343	66.02647
49000.00000	70.30875	-3568.11960	70.30875
49050.00000	76.99668	-3746.18509	76.99668
49100.00000	72.72556	-4173.03476	72.72556
49150.00000	53.96544	-4363.40582	53.96544
49200.00000	71.38442	-4231.42384	71.38442
49250.00000	68.34952	-4509.88699	68.34952
49300.00000	74.60253	-4158.47879	74.60253
49350.00000	74.57930	-4027.33659	74.57930
49400.00000	73.81533	-3554.52004	73.81533
49450.00000	64.55674	-3141.67442	64.55674
49500.00000	68.63099	-2786.93454	68.63099
49550.00000	65.05428	-2343.80069	65.05428
49600.00000	60.54237	-2190.23267	60.54237
49650.00000	75.57020	-2036.00540	75.57020
49700.00000	72.81098	-1681.18852	72.81098
49750.00000	60.23728	-1717.55980	60.23728
49800.00000	77.43951	-1769.55822	77.43951
49850.00000	71.01300	-1670.68949	71.01300
49900.00000	77.06653	-1357.57228	77.06653
49950.00000	73.87841	-1018.79191	73.87841
