---ACOUSTIC CALIBRATION---
Filename: C:\Data\AZH DATA\AZH61\RightPrimary.calib
Date: 8/27/2019 3:08:51 PM
Format: 4
Probe Tube Correction File: C:\Data\Probe Tube Calibrations\50_ProbeTube.calib
Experiment VIs: 850
EPL_CFTS.exe V12.0.1 (2012)
DAQmx V9.6

Attenuation (dB): 40.000000
Min Freq (Hz): 50.000000
Max Freq (Hz): 49950.000000
Freq Step (Hz): 50.000000
Sample Rate (Hz): 100000.000000
[Smoothing]
Method=None
MA.Iterations=0
MA.Length=0
Loess.Length=0
Loess.Type=Linear
Loess.Robust=FALSE


Freq(Hz)	Mag(dB)	Phase(deg)	Unsmoothed(dB)

50.00000	101.73201	356.27855	101.73201
100.00000	87.11221	360.86703	87.11221
150.00000	71.98751	530.02735	71.98751
200.00000	75.55609	481.48679	75.55609
250.00000	88.18189	465.58826	88.18189
300.00000	83.69291	413.93918	83.69291
350.00000	86.86268	398.17616	86.86268
400.00000	85.05004	368.96409	85.05004
450.00000	84.36216	386.27061	84.36216
500.00000	92.13618	374.93144	92.13618
550.00000	93.24694	371.03065	93.24694
600.00000	94.62703	365.31800	94.62703
650.00000	95.75399	349.40192	95.75399
700.00000	99.12513	331.18520	99.12513
750.00000	100.94359	317.45255	100.94359
800.00000	101.47708	290.38098	101.47708
850.00000	101.33030	275.88322	101.33030
900.00000	99.48986	258.73012	99.48986
950.00000	97.69209	257.32961	97.69209
1000.00000	96.02453	257.58424	96.02453
1050.00000	93.83736	271.37787	93.83736
1100.00000	96.22984	293.50762	96.22984
1150.00000	98.58700	300.58561	98.58700
1200.00000	101.75155	297.98169	101.75155
1250.00000	103.18708	291.05325	103.18708
1300.00000	104.92167	285.93347	104.92167
1350.00000	106.15126	273.04926	106.15126
1400.00000	106.95416	267.83828	106.95416
1450.00000	107.93326	260.17319	107.93326
1500.00000	109.09065	254.37160	109.09065
1550.00000	109.85203	245.85167	109.85203
1600.00000	111.21541	236.27689	111.21541
1650.00000	112.26167	219.68520	112.26167
1700.00000	110.96945	209.61587	110.96945
1750.00000	110.79360	203.28183	110.79360
1800.00000	110.58636	198.75058	110.58636
1850.00000	110.69154	197.44771	110.69154
1900.00000	111.80708	193.95755	111.80708
1950.00000	112.53802	180.54913	112.53802
2000.00000	111.64728	168.70819	111.64728
2050.00000	110.23344	173.04402	110.23344
2100.00000	112.11402	172.89254	112.11402
2150.00000	112.71013	161.49831	112.71013
2200.00000	112.65103	151.39604	112.65103
2250.00000	112.07333	144.78208	112.07333
2300.00000	112.15332	139.17223	112.15332
2350.00000	111.88615	132.64856	111.88615
2400.00000	111.64252	127.04853	111.64252
2450.00000	111.34966	120.67891	111.34966
2500.00000	110.91528	115.59730	110.91528
2550.00000	110.57107	109.82458	110.57107
2600.00000	110.00294	105.47273	110.00294
2650.00000	109.52174	101.59928	109.52174
2700.00000	109.03781	97.91142	109.03781
2750.00000	108.30922	94.93532	108.30922
2800.00000	107.82192	91.55399	107.82192
2850.00000	107.22185	90.50843	107.22185
2900.00000	106.62214	87.99880	106.62214
2950.00000	106.00403	86.91844	106.00403
3000.00000	105.22098	86.37748	105.22098
3050.00000	104.44359	84.81931	104.44359
3100.00000	103.66730	86.32645	103.66730
3150.00000	102.46154	86.99431	102.46154
3200.00000	101.09665	93.75548	101.09665
3250.00000	100.57327	103.97679	100.57327
3300.00000	100.16580	115.98570	100.16580
3350.00000	100.38872	130.92586	100.38872
3400.00000	102.16515	148.19472	102.16515
3450.00000	104.73029	154.96708	104.73029
3500.00000	107.23220	155.78557	107.23220
3550.00000	109.31190	152.82836	109.31190
3600.00000	111.10340	149.35313	111.10340
3650.00000	112.54396	144.39887	112.54396
3700.00000	113.84464	138.68878	113.84464
3750.00000	115.23242	133.35190	115.23242
3800.00000	116.34465	126.57817	116.34465
3850.00000	117.36259	119.35733	117.36259
3900.00000	118.26318	112.83085	118.26318
3950.00000	119.21344	105.44013	119.21344
4000.00000	120.02171	98.08324	120.02171
4050.00000	120.77351	90.51539	120.77351
4100.00000	121.62755	83.25544	121.62755
4150.00000	122.56862	74.66606	122.56862
4200.00000	123.28850	64.59399	123.28850
4250.00000	123.92895	53.57013	123.92895
4300.00000	124.34543	41.49615	124.34543
4350.00000	124.44934	29.11778	124.44934
4400.00000	124.27852	17.53909	124.27852
4450.00000	123.94044	 7.04541	123.94044
4500.00000	123.52672	-2.54579	123.52672
4550.00000	123.09258	-11.46842	123.09258
4600.00000	122.61313	-19.83962	122.61313
4650.00000	122.15423	-27.63351	122.15423
4700.00000	121.62403	-36.12540	121.62403
4750.00000	121.01609	-44.61208	121.01609
4800.00000	120.17875	-52.95719	120.17875
4850.00000	119.05659	-60.78397	119.05659
4900.00000	117.74241	-66.01220	117.74241
4950.00000	116.35750	-69.00416	116.35750
5000.00000	115.16586	-69.62957	115.16586
5050.00000	114.05700	-68.96533	114.05700
5100.00000	112.92422	-65.43547	112.92422
5150.00000	112.83462	-60.08507	112.83462
5200.00000	112.11641	-56.03527	112.11641
5250.00000	113.38741	-43.48453	113.38741
5300.00000	115.80141	-51.25249	115.80141
5350.00000	116.00292	-63.67928	116.00292
5400.00000	115.49463	-71.35165	115.49463
5450.00000	114.95799	-75.78369	114.95799
5500.00000	114.57568	-79.45218	114.57568
5550.00000	114.29713	-81.60356	114.29713
5600.00000	114.01926	-84.26197	114.01926
5650.00000	113.81361	-86.42592	113.81361
5700.00000	113.61518	-89.16189	113.61518
5750.00000	113.46407	-91.47446	113.46407
5800.00000	113.30488	-93.96059	113.30488
5850.00000	113.11605	-95.96929	113.11605
5900.00000	112.98944	-98.70394	112.98944
5950.00000	112.96653	-100.57690	112.96653
6000.00000	112.72387	-102.99866	112.72387
6050.00000	112.82672	-105.24191	112.82672
6100.00000	112.64483	-107.25795	112.64483
6150.00000	112.67584	-109.79631	112.67584
6200.00000	112.56713	-112.66872	112.56713
6250.00000	112.61467	-114.58905	112.61467
6300.00000	112.47326	-117.83577	112.47326
6350.00000	112.50123	-120.73560	112.50123
6400.00000	112.35213	-123.09736	112.35213
6450.00000	112.34085	-126.39749	112.34085
6500.00000	112.22346	-129.16918	112.22346
6550.00000	112.18941	-131.53077	112.18941
6600.00000	112.11321	-134.32259	112.11321
6650.00000	112.03564	-136.77848	112.03564
6700.00000	111.96401	-139.56199	111.96401
6750.00000	111.96886	-142.08576	111.96886
6800.00000	111.86929	-144.73939	111.86929
6850.00000	111.84064	-147.40433	111.84064
6900.00000	111.79374	-150.39262	111.79374
6950.00000	111.80505	-153.26539	111.80505
7000.00000	111.72125	-155.19555	111.72125
7050.00000	111.78385	-158.46066	111.78385
7100.00000	111.73066	-161.58466	111.73066
7150.00000	111.69128	-164.54388	111.69128
7200.00000	111.69170	-167.46777	111.69170
7250.00000	111.62017	-170.74002	111.62017
7300.00000	111.59760	-174.05535	111.59760
7350.00000	111.57871	-177.10348	111.57871
7400.00000	111.52534	-181.15117	111.52534
7450.00000	111.49253	-184.14109	111.49253
7500.00000	111.38295	-187.83424	111.38295
7550.00000	111.32924	-191.21627	111.32924
7600.00000	111.23903	-194.84665	111.23903
7650.00000	111.08816	-198.03106	111.08816
7700.00000	111.04227	-202.04112	111.04227
7750.00000	110.88177	-205.30296	110.88177
7800.00000	110.74626	-208.91283	110.74626
7850.00000	110.58180	-212.34057	110.58180
7900.00000	110.44566	-215.57993	110.44566
7950.00000	110.23359	-219.27658	110.23359
8000.00000	110.10634	-222.89678	110.10634
8050.00000	109.83049	-226.31954	109.83049
8100.00000	109.72437	-229.82793	109.72437
8150.00000	109.46048	-232.52970	109.46048
8200.00000	109.21434	-235.69254	109.21434
8250.00000	108.91599	-239.58239	108.91599
8300.00000	108.77020	-242.29805	108.77020
8350.00000	108.31953	-245.58621	108.31953
8400.00000	108.19929	-248.34813	108.19929
8450.00000	107.61554	-252.02102	107.61554
8500.00000	107.53321	-254.65163	107.53321
8550.00000	107.00890	-257.55732	107.00890
8600.00000	106.86970	-260.75349	106.86970
8650.00000	106.37912	-263.16118	106.37912
8700.00000	106.16358	-266.53000	106.16358
8750.00000	105.89593	-268.15545	105.89593
8800.00000	105.45096	-269.77315	105.45096
8850.00000	105.26737	-273.20499	105.26737
8900.00000	104.90164	-274.02953	104.90164
8950.00000	104.73737	-275.63955	104.73737
9000.00000	104.05221	-278.44168	104.05221
9050.00000	104.06967	-279.11441	104.06967
9100.00000	103.28874	-283.39877	103.28874
9150.00000	103.40357	-283.67052	103.40357
9200.00000	102.84756	-287.03612	102.84756
9250.00000	102.81362	-288.51321	102.81362
9300.00000	102.53146	-291.22419	102.53146
9350.00000	102.40248	-292.41028	102.40248
9400.00000	102.27125	-293.60836	102.27125
9450.00000	101.92749	-293.77404	101.92749
9500.00000	101.95894	-294.33144	101.95894
9550.00000	101.80635	-293.61270	101.80635
9600.00000	101.88410	-295.86111	101.88410
9650.00000	101.66420	-297.27773	101.66420
9700.00000	101.36915	-298.32220	101.36915
9750.00000	101.28464	-300.39803	101.28464
9800.00000	101.03701	-301.95004	101.03701
9850.00000	100.94897	-303.62126	100.94897
9900.00000	100.69919	-305.79271	100.69919
9950.00000	100.68581	-306.42938	100.68581
10000.00000	100.62770	-309.45086	100.62770
10050.00000	100.52345	-309.85428	100.52345
10100.00000	100.49390	-311.92827	100.49390
10150.00000	100.19200	-313.13129	100.19200
10200.00000	100.13743	-314.54127	100.13743
10250.00000	99.77143	-316.73654	99.77143
10300.00000	99.79873	-318.55602	99.79873
10350.00000	99.57060	-321.28076	99.57060
10400.00000	99.30453	-322.48712	99.30453
10450.00000	99.33060	-326.89827	99.33060
10500.00000	99.34244	-327.86680	99.34244
10550.00000	99.29246	-331.00512	99.29246
10600.00000	99.23200	-332.12972	99.23200
10650.00000	99.15007	-334.06577	99.15007
10700.00000	99.12154	-336.60413	99.12154
10750.00000	98.94440	-337.99521	98.94440
10800.00000	98.79959	-340.78008	98.79959
10850.00000	98.60216	-342.97343	98.60216
10900.00000	98.44751	-345.70765	98.44751
10950.00000	98.25918	-347.33127	98.25918
11000.00000	98.10401	-350.24271	98.10401
11050.00000	97.90095	-352.05148	97.90095
11100.00000	97.57499	-355.39128	97.57499
11150.00000	97.41286	-356.44883	97.41286
11200.00000	97.07238	-358.88314	97.07238
11250.00000	96.87918	-360.22450	96.87918
11300.00000	96.42163	-362.75574	96.42163
11350.00000	96.20288	-364.15335	96.20288
11400.00000	95.79765	-366.31250	95.79765
11450.00000	95.50816	-368.40747	95.50816
11500.00000	95.37958	-369.70188	95.37958
11550.00000	94.99104	-370.15438	94.99104
11600.00000	94.87134	-372.20102	94.87134
11650.00000	94.58009	-373.24573	94.58009
11700.00000	94.43473	-372.41127	94.43473
11750.00000	94.33386	-375.09224	94.33386
11800.00000	93.94624	-375.36132	93.94624
11850.00000	94.30504	-376.25119	94.30504
11900.00000	93.26403	-376.23523	93.26403
11950.00000	93.74427	-378.40511	93.74427
12000.00000	93.20015	-378.10992	93.20015
12050.00000	93.07940	-377.83679	93.07940
12100.00000	92.92583	-381.68480	92.92583
12150.00000	92.73880	-381.52540	92.73880
12200.00000	92.84677	-384.07831	92.84677
12250.00000	92.66998	-382.79854	92.66998
12300.00000	93.63586	-387.80295	93.63586
12350.00000	92.64617	-385.02246	92.64617
12400.00000	92.17486	-388.43397	92.17486
12450.00000	92.30162	-385.90669	92.30162
12500.00000	92.06845	-388.64765	92.06845
12550.00000	91.81187	-392.43100	91.81187
12600.00000	91.77366	-390.81059	91.77366
12650.00000	91.63989	-397.73514	91.63989
12700.00000	91.40400	-394.39788	91.40400
12750.00000	91.43897	-398.65345	91.43897
12800.00000	91.02779	-398.05755	91.02779
12850.00000	90.67343	-399.68624	90.67343
12900.00000	90.14314	-400.92390	90.14314
12950.00000	90.38973	-404.32562	90.38973
13000.00000	89.81247	-401.99668	89.81247
13050.00000	89.90556	-406.32896	89.90556
13100.00000	88.99483	-405.81952	88.99483
13150.00000	89.53622	-409.40569	89.53622
13200.00000	88.83902	-408.00809	88.83902
13250.00000	88.67219	-405.21865	88.67219
13300.00000	88.40245	-407.28289	88.40245
13350.00000	87.80900	-404.65232	87.80900
13400.00000	88.17902	-407.03793	88.17902
13450.00000	87.54118	-405.72448	87.54118
13500.00000	87.42016	-403.86247	87.42016
13550.00000	87.40100	-403.96340	87.40100
13600.00000	87.06116	-406.93619	87.06116
13650.00000	87.03245	-401.10386	87.03245
13700.00000	86.82442	-401.93583	86.82442
13750.00000	86.53045	-403.89933	86.53045
13800.00000	86.10801	-401.48657	86.10801
13850.00000	86.48873	-405.13578	86.48873
13900.00000	85.92564	-400.75657	85.92564
13950.00000	86.10244	-403.05252	86.10244
14000.00000	86.34513	-399.76678	86.34513
14050.00000	86.32482	-397.72197	86.32482
14100.00000	86.18217	-396.61270	86.18217
14150.00000	86.10275	-396.19379	86.10275
14200.00000	86.39455	-398.31399	86.39455
14250.00000	86.50062	-394.86151	86.50062
14300.00000	86.80045	-395.44458	86.80045
14350.00000	86.60929	-391.02724	86.60929
14400.00000	86.47937	-392.16534	86.47937
14450.00000	86.09278	-388.30316	86.09278
14500.00000	86.91097	-391.44103	86.91097
14550.00000	86.31681	-387.53015	86.31681
14600.00000	86.83271	-389.26324	86.83271
14650.00000	87.12844	-388.00751	87.12844
14700.00000	87.27508	-388.38279	87.27508
14750.00000	87.39057	-388.10654	87.39057
14800.00000	87.59266	-386.03531	87.59266
14850.00000	87.87688	-384.22598	87.87688
14900.00000	88.73657	-384.56110	88.73657
14950.00000	88.21946	-384.51823	88.21946
15000.00000	89.06047	-383.62434	89.06047
15050.00000	89.12880	-382.45049	89.12880
15100.00000	89.43325	-379.87165	89.43325
15150.00000	89.87932	-381.53235	89.87932
15200.00000	89.93772	-379.94932	89.93772
15250.00000	90.22090	-381.49012	90.22090
15300.00000	91.01361	-381.40931	91.01361
15350.00000	91.43497	-381.48980	91.43497
15400.00000	91.59183	-380.12137	91.59183
15450.00000	91.93291	-379.96528	91.93291
15500.00000	92.47298	-382.57167	92.47298
15550.00000	92.91667	-382.76374	92.91667
15600.00000	93.41087	-384.40006	93.41087
15650.00000	93.83840	-384.02796	93.83840
15700.00000	94.20136	-385.42178	94.20136
15750.00000	94.79119	-387.18461	94.79119
15800.00000	95.25113	-386.95955	95.25113
15850.00000	95.70920	-388.62749	95.70920
15900.00000	95.89059	-390.48600	95.89059
15950.00000	96.52400	-392.17021	96.52400
16000.00000	96.95586	-394.87863	96.95586
16050.00000	97.45114	-395.70826	97.45114
16100.00000	97.81520	-398.24404	97.81520
16150.00000	98.11291	-400.18252	98.11291
16200.00000	98.52778	-403.27787	98.52778
16250.00000	99.04160	-405.23881	99.04160
16300.00000	99.49869	-408.71114	99.49869
16350.00000	99.92297	-410.67892	99.92297
16400.00000	100.27425	-413.11638	100.27425
16450.00000	100.62543	-415.55898	100.62543
16500.00000	100.87714	-418.90948	100.87714
16550.00000	101.31653	-421.97020	101.31653
16600.00000	101.72881	-425.37988	101.72881
16650.00000	101.92705	-428.34635	101.92705
16700.00000	102.28239	-431.01534	102.28239
16750.00000	102.48741	-434.97427	102.48741
16800.00000	102.73775	-438.30529	102.73775
16850.00000	103.14257	-441.54304	103.14257
16900.00000	103.36646	-445.31900	103.36646
16950.00000	103.57431	-448.61247	103.57431
17000.00000	103.68192	-452.19247	103.68192
17050.00000	103.94288	-454.66915	103.94288
17100.00000	104.02553	-457.52275	104.02553
17150.00000	104.29684	-461.44715	104.29684
17200.00000	104.48001	-464.68513	104.48001
17250.00000	104.61332	-468.27333	104.61332
17300.00000	104.79002	-471.75335	104.79002
17350.00000	104.82079	-474.42173	104.82079
17400.00000	105.07853	-477.94874	105.07853
17450.00000	105.11418	-481.71119	105.11418
17500.00000	105.30178	-484.80227	105.30178
17550.00000	105.45456	-488.11701	105.45456
17600.00000	105.68414	-491.10380	105.68414
17650.00000	105.74455	-495.29394	105.74455
17700.00000	105.82282	-498.68532	105.82282
17750.00000	106.03647	-501.53182	106.03647
17800.00000	106.02450	-505.80973	106.02450
17850.00000	106.13292	-508.76961	106.13292
17900.00000	106.17407	-512.18206	106.17407
17950.00000	106.33293	-516.08164	106.33293
18000.00000	106.37162	-520.09005	106.37162
18050.00000	106.54723	-523.10231	106.54723
18100.00000	106.50659	-527.11704	106.50659
18150.00000	106.53997	-530.23620	106.53997
18200.00000	106.48739	-534.20425	106.48739
18250.00000	106.58166	-537.02762	106.58166
18300.00000	106.61035	-540.63120	106.61035
18350.00000	106.59347	-543.87680	106.59347
18400.00000	106.53265	-547.68219	106.53265
18450.00000	106.46835	-552.06176	106.46835
18500.00000	106.45743	-555.27307	106.45743
18550.00000	106.40824	-558.17112	106.40824
18600.00000	106.43548	-561.88338	106.43548
18650.00000	106.24452	-564.68812	106.24452
18700.00000	106.18887	-568.25675	106.18887
18750.00000	106.18585	-571.42689	106.18585
18800.00000	106.22237	-573.86453	106.22237
18850.00000	106.00934	-577.12233	106.00934
18900.00000	105.93146	-579.86391	105.93146
18950.00000	105.89144	-583.27081	105.89144
19000.00000	105.66607	-585.63242	105.66607
19050.00000	105.74023	-588.51689	105.74023
19100.00000	105.62498	-591.14792	105.62498
19150.00000	105.70682	-593.81858	105.70682
19200.00000	105.61644	-595.99937	105.61644
19250.00000	105.55623	-599.85287	105.55623
19300.00000	105.42718	-601.79241	105.42718
19350.00000	105.41089	-604.59396	105.41089
19400.00000	105.34065	-607.11287	105.34065
19450.00000	105.37091	-609.35626	105.37091
19500.00000	105.25097	-612.65102	105.25097
19550.00000	105.22650	-615.28571	105.22650
19600.00000	105.25613	-618.46053	105.25613
19650.00000	105.14143	-620.67894	105.14143
19700.00000	105.00280	-623.45275	105.00280
19750.00000	104.93130	-625.64285	104.93130
19800.00000	104.96855	-629.19987	104.96855
19850.00000	104.93357	-631.61967	104.93357
19900.00000	104.82340	-634.97455	104.82340
19950.00000	104.72492	-637.61242	104.72492
20000.00000	104.66814	-640.43389	104.66814
20050.00000	104.57174	-643.03220	104.57174
20100.00000	104.40494	-645.70862	104.40494
20150.00000	104.37454	-647.49744	104.37454
20200.00000	104.24737	-651.04081	104.24737
20250.00000	104.08405	-653.34054	104.08405
20300.00000	103.88164	-655.97757	103.88164
20350.00000	103.83168	-658.61692	103.83168
20400.00000	103.62777	-660.16419	103.62777
20450.00000	103.41141	-662.62100	103.41141
20500.00000	103.32114	-665.05091	103.32114
20550.00000	102.93930	-666.36912	102.93930
20600.00000	102.87610	-668.16416	102.87610
20650.00000	102.72035	-669.77338	102.72035
20700.00000	102.50020	-671.39751	102.50020
20750.00000	102.42186	-672.58029	102.42186
20800.00000	102.24197	-673.66321	102.24197
20850.00000	102.17638	-674.82303	102.17638
20900.00000	102.01060	-675.75859	102.01060
20950.00000	101.91643	-676.12345	101.91643
21000.00000	101.88574	-676.75483	101.88574
21050.00000	102.02236	-677.16012	102.02236
21100.00000	102.01817	-677.59087	102.01817
21150.00000	102.15389	-678.51968	102.15389
21200.00000	102.32493	-679.07585	102.32493
21250.00000	102.45791	-681.32545	102.45791
21300.00000	102.67255	-682.20194	102.67255
21350.00000	102.82207	-683.55513	102.82207
21400.00000	102.97665	-685.88679	102.97665
21450.00000	103.13432	-687.93948	103.13432
21500.00000	103.27992	-690.65849	103.27992
21550.00000	103.30888	-692.79690	103.30888
21600.00000	103.49409	-695.42896	103.49409
21650.00000	103.52016	-698.30891	103.52016
21700.00000	103.54532	-700.70601	103.54532
21750.00000	103.59584	-703.16850	103.59584
21800.00000	103.61430	-705.96171	103.61430
21850.00000	103.55854	-708.34661	103.55854
21900.00000	103.55232	-710.98865	103.55232
21950.00000	103.49248	-713.14503	103.49248
22000.00000	103.52189	-715.33645	103.52189
22050.00000	103.48669	-717.24288	103.48669
22100.00000	103.43004	-719.59091	103.43004
22150.00000	103.37534	-721.56532	103.37534
22200.00000	103.40869	-723.65004	103.40869
22250.00000	103.33192	-725.19908	103.33192
22300.00000	103.19228	-727.48664	103.19228
22350.00000	103.30006	-729.44781	103.30006
22400.00000	103.30731	-731.69577	103.30731
22450.00000	103.24823	-733.52975	103.24823
22500.00000	103.09796	-734.37788	103.09796
22550.00000	103.12954	-736.69196	103.12954
22600.00000	103.11753	-739.57020	103.11753
22650.00000	103.12390	-741.44879	103.12390
22700.00000	103.06313	-743.06242	103.06313
22750.00000	103.03592	-743.26442	103.03592
22800.00000	103.07015	-747.13776	103.07015
22850.00000	103.13204	-749.37261	103.13204
22900.00000	103.13061	-750.04820	103.13061
22950.00000	103.10307	-751.91094	103.10307
23000.00000	103.09863	-753.13312	103.09863
23050.00000	103.01092	-756.04985	103.01092
23100.00000	103.19223	-757.14749	103.19223
23150.00000	103.03463	-758.29289	103.03463
23200.00000	103.14758	-761.54331	103.14758
23250.00000	102.96206	-764.15897	102.96206
23300.00000	103.19162	-766.27351	103.19162
23350.00000	102.96301	-768.30683	102.96301
23400.00000	103.01471	-769.46503	103.01471
23450.00000	103.05850	-772.07101	103.05850
23500.00000	102.91956	-773.41964	102.91956
23550.00000	102.92587	-773.70972	102.92587
23600.00000	102.84795	-777.50279	102.84795
23650.00000	102.98042	-778.80671	102.98042
23700.00000	103.11223	-782.96416	103.11223
23750.00000	103.01453	-784.11871	103.01453
23800.00000	102.77615	-784.32161	102.77615
23850.00000	102.91233	-786.15610	102.91233
23900.00000	103.29589	-788.49359	103.29589
23950.00000	102.99443	-791.25048	102.99443
24000.00000	102.94858	-794.13511	102.94858
24050.00000	103.11133	-794.52395	103.11133
24100.00000	103.32117	-798.07875	103.32117
24150.00000	103.31151	-799.68764	103.31151
24200.00000	103.36514	-803.25107	103.36514
24250.00000	102.92858	-803.56628	102.92858
24300.00000	103.21315	-806.75287	103.21315
24350.00000	103.26691	-808.90640	103.26691
24400.00000	103.27959	-812.54017	103.27959
24450.00000	102.99815	-814.46859	102.99815
24500.00000	103.44536	-815.25380	103.44536
24550.00000	103.28009	-820.00487	103.28009
24600.00000	103.69696	-461.68139	103.69696
24650.00000	103.45340	-105.68150	103.45340
24700.00000	103.28441	253.84320	103.28441
24750.00000	103.27891	609.20289	103.27891
24800.00000	103.28770	966.90537	103.28770
24850.00000	102.95960	1326.14724	102.95960
24900.00000	102.96585	1683.96219	102.96585
24950.00000	103.18838	2039.77509	103.18838
25000.00000	103.19397	2031.90274	103.19397
25050.00000	103.15733	2033.48839	103.15733
25100.00000	102.57895	2030.49709	102.57895
25150.00000	103.00970	2029.68104	103.00970
25200.00000	102.67974	2025.37178	102.67974
25250.00000	102.75982	2024.69735	102.75982
25300.00000	102.73539	2023.03217	102.73539
25350.00000	102.66475	2017.01992	102.66475
25400.00000	102.65203	2013.93256	102.65203
25450.00000	102.64173	2012.66436	102.64173
25500.00000	102.47546	2010.67702	102.47546
25550.00000	102.47194	2007.09650	102.47194
25600.00000	102.41321	2005.19699	102.41321
25650.00000	102.28971	2004.49515	102.28971
25700.00000	102.30829	2001.12652	102.30829
25750.00000	102.08158	1998.78304	102.08158
25800.00000	102.00807	1995.89676	102.00807
25850.00000	102.00212	1993.20207	102.00212
25900.00000	101.93051	1989.83443	101.93051
25950.00000	101.64687	1991.37226	101.64687
26000.00000	101.65171	1986.24574	101.65171
26050.00000	101.73320	1984.71840	101.73320
26100.00000	101.57109	1982.59811	101.57109
26150.00000	101.54860	1979.79250	101.54860
26200.00000	101.67952	1977.79577	101.67952
26250.00000	101.38475	1975.29033	101.38475
26300.00000	101.49960	1972.50634	101.49960
26350.00000	101.12133	1971.86700	101.12133
26400.00000	101.07164	1970.12998	101.07164
26450.00000	101.44091	1966.66725	101.44091
26500.00000	101.14765	1963.75896	101.14765
26550.00000	101.11839	1958.90285	101.11839
26600.00000	100.88181	1956.92689	100.88181
26650.00000	101.01222	1957.87396	101.01222
26700.00000	100.95194	1954.72161	100.95194
26750.00000	100.74830	1951.93343	100.74830
26800.00000	100.64238	1947.88976	100.64238
26850.00000	100.90733	1946.90841	100.90733
26900.00000	100.79165	1945.62871	100.79165
26950.00000	100.92514	1941.80693	100.92514
27000.00000	100.40446	1940.50017	100.40446
27050.00000	100.48420	1937.47828	100.48420
27100.00000	100.23471	1936.91917	100.23471
27150.00000	100.28720	1932.72852	100.28720
27200.00000	100.20427	1931.57522	100.20427
27250.00000	99.75529	1930.06545	99.75529
27300.00000	99.49394	1927.10706	99.49394
27350.00000	99.67357	1926.67055	99.67357
27400.00000	99.23017	1923.84888	99.23017
27450.00000	99.10486	1923.49130	99.10486
27500.00000	99.16777	1921.97794	99.16777
27550.00000	99.06234	1918.64317	99.06234
27600.00000	99.28710	1917.03959	99.28710
27650.00000	98.59708	1916.63246	98.59708
27700.00000	98.66945	1912.54876	98.66945
27750.00000	98.65863	1910.45335	98.65863
27800.00000	98.68756	1907.72311	98.68756
27850.00000	98.86349	1909.75845	98.86349
27900.00000	98.41673	1909.00728	98.41673
27950.00000	97.66710	1905.80884	97.66710
28000.00000	97.80719	1906.60904	97.80719
28050.00000	98.30680	1903.64397	98.30680
28100.00000	97.73725	1902.65599	97.73725
28150.00000	97.68870	1902.82614	97.68870
28200.00000	97.97115	1898.83715	97.97115
28250.00000	97.66580	1896.43645	97.66580
28300.00000	97.25755	1897.45383	97.25755
28350.00000	97.50582	1896.51517	97.50582
28400.00000	97.45684	1897.27097	97.45684
28450.00000	98.04801	1894.48195	98.04801
28500.00000	97.60715	1894.07792	97.60715
28550.00000	97.46493	1896.56388	97.46493
28600.00000	97.67588	1894.32320	97.67588
28650.00000	97.82803	1889.15997	97.82803
28700.00000	97.67080	1891.57871	97.67080
28750.00000	98.25228	1892.31672	98.25228
28800.00000	98.21202	1890.53131	98.21202
28850.00000	97.62460	1886.46168	97.62460
28900.00000	97.91271	1886.05909	97.91271
28950.00000	97.85312	1886.46684	97.85312
29000.00000	98.17256	1884.28828	98.17256
29050.00000	97.83242	1884.64624	97.83242
29100.00000	97.93656	1884.70696	97.93656
29150.00000	97.90446	1882.85453	97.90446
29200.00000	97.81622	1880.27620	97.81622
29250.00000	98.28850	1879.58933	98.28850
29300.00000	98.12596	1877.55341	98.12596
29350.00000	98.58821	1875.72380	98.58821
29400.00000	98.53553	1874.10618	98.53553
29450.00000	98.45250	1873.64615	98.45250
29500.00000	98.78849	1872.88611	98.78849
29550.00000	98.61611	1868.47801	98.61611
29600.00000	98.61097	1869.04781	98.61097
29650.00000	98.70514	1866.41450	98.70514
29700.00000	98.61843	1867.65587	98.61843
29750.00000	98.67846	1866.34223	98.67846
29800.00000	98.50649	1864.25938	98.50649
29850.00000	98.60152	1862.34059	98.60152
29900.00000	98.87967	1862.44660	98.87967
29950.00000	98.00664	1861.81320	98.00664
30000.00000	98.55642	1861.94436	98.55642
30050.00000	98.68835	1859.64119	98.68835
30100.00000	98.42660	1860.67036	98.42660
30150.00000	98.57704	1857.45614	98.57704
30200.00000	98.63313	1856.38131	98.63313
30250.00000	98.32000	1856.22150	98.32000
30300.00000	98.15349	1857.33545	98.15349
30350.00000	98.38963	1858.30909	98.38963
30400.00000	98.44586	1856.42940	98.44586
30450.00000	98.11139	1856.90336	98.11139
30500.00000	98.24062	1856.35582	98.24062
30550.00000	98.30386	1858.27333	98.30386
30600.00000	98.40081	1859.01363	98.40081
30650.00000	98.51550	1859.25413	98.51550
30700.00000	98.70020	1859.15627	98.70020
30750.00000	98.61665	1861.57843	98.61665
30800.00000	98.85798	1861.87841	98.85798
30850.00000	99.27394	1864.09573	99.27394
30900.00000	99.29045	1866.10937	99.29045
30950.00000	99.87047	1865.48422	99.87047
31000.00000	100.27566	1865.70683	100.27566
31050.00000	100.78847	1867.15210	100.78847
31100.00000	101.38138	1868.05279	101.38138
31150.00000	101.65015	1867.65784	101.65015
31200.00000	102.55464	1867.31165	102.55464
31250.00000	103.00930	1866.70566	103.00930
31300.00000	103.66311	1865.74631	103.66311
31350.00000	104.40073	1864.41219	104.40073
31400.00000	104.80116	1861.82818	104.80116
31450.00000	105.50733	1860.00939	105.50733
31500.00000	106.06048	1856.73569	106.06048
31550.00000	106.67220	1854.72236	106.67220
31600.00000	107.35994	1850.33748	107.35994
31650.00000	107.84612	1846.81684	107.84612
31700.00000	108.36680	1843.76808	108.36680
31750.00000	108.94611	1840.82717	108.94611
31800.00000	109.33187	1836.06840	109.33187
31850.00000	109.80767	1831.37609	109.80767
31900.00000	110.02006	1827.70599	110.02006
31950.00000	110.48650	1823.37399	110.48650
32000.00000	110.82777	1818.41266	110.82777
32050.00000	111.16625	1814.49977	111.16625
32100.00000	111.37885	1809.31016	111.37885
32150.00000	111.68213	1805.93459	111.68213
32200.00000	111.97220	1800.53730	111.97220
32250.00000	112.15793	1795.41928	112.15793
32300.00000	112.32608	1791.54190	112.32608
32350.00000	112.51629	1787.39523	112.51629
32400.00000	112.74149	1782.95752	112.74149
32450.00000	112.77291	1778.00895	112.77291
32500.00000	113.02325	1774.15771	113.02325
32550.00000	113.23232	1768.77424	113.23232
32600.00000	113.28183	1764.64122	113.28183
32650.00000	113.42857	1759.69314	113.42857
32700.00000	113.37707	1754.96989	113.37707
32750.00000	113.42744	1749.93637	113.42744
32800.00000	113.67207	1745.97182	113.67207
32850.00000	113.71948	1740.70762	113.71948
32900.00000	113.61670	1735.41705	113.61670
32950.00000	113.52361	1729.99733	113.52361
33000.00000	113.47066	1727.05758	113.47066
33050.00000	113.41514	1721.30756	113.41514
33100.00000	113.41102	1716.96731	113.41102
33150.00000	113.27808	1712.61976	113.27808
33200.00000	113.31698	1709.44752	113.31698
33250.00000	113.04256	1704.98386	113.04256
33300.00000	112.88180	1699.50570	112.88180
33350.00000	112.65780	1695.65142	112.65780
33400.00000	112.46297	1692.12659	112.46297
33450.00000	112.32238	1687.79677	112.32238
33500.00000	112.30059	1685.51145	112.30059
33550.00000	111.72823	1679.95324	111.72823
33600.00000	111.85971	1676.94216	111.85971
33650.00000	111.53425	1673.04806	111.53425
33700.00000	111.23937	1670.08661	111.23937
33750.00000	110.93300	1666.95837	110.93300
33800.00000	110.76786	1663.92848	110.76786
33850.00000	110.24228	1660.99504	110.24228
33900.00000	110.20825	1658.37635	110.20825
33950.00000	109.97208	1655.83248	109.97208
34000.00000	109.73373	1652.69171	109.73373
34050.00000	109.41911	1650.53556	109.41911
34100.00000	109.08069	1649.32257	109.08069
34150.00000	108.86037	1645.63171	108.86037
34200.00000	108.63704	1645.93833	108.63704
34250.00000	108.39168	1642.95901	108.39168
34300.00000	108.23608	1640.90545	108.23608
34350.00000	107.99253	1639.61234	107.99253
34400.00000	107.67289	1639.64746	107.67289
34450.00000	107.65655	1634.40732	107.65655
34500.00000	107.37835	1635.11667	107.37835
34550.00000	107.20389	1634.08538	107.20389
34600.00000	106.85576	1632.07419	106.85576
34650.00000	107.00766	1632.94141	107.00766
34700.00000	106.40962	1633.60100	106.40962
34750.00000	106.59540	1628.85852	106.59540
34800.00000	106.52373	1631.10199	106.52373
34850.00000	106.59627	1631.57316	106.59627
34900.00000	106.88749	1629.51587	106.88749
34950.00000	106.67461	1629.78007	106.67461
35000.00000	106.44758	1627.83321	106.44758
35050.00000	106.85322	1627.49006	106.85322
35100.00000	106.86198	1627.00589	106.86198
35150.00000	106.75760	1627.05570	106.75760
35200.00000	106.87484	1623.95888	106.87484
35250.00000	106.84018	1622.86029	106.84018
35300.00000	107.12609	1622.56483	107.12609
35350.00000	107.50363	1619.50296	107.50363
35400.00000	107.27729	1618.60648	107.27729
35450.00000	107.39907	1618.31583	107.39907
35500.00000	107.22882	1617.00010	107.22882
35550.00000	107.62462	1616.43673	107.62462
35600.00000	107.62571	1613.49525	107.62571
35650.00000	107.84923	1613.13828	107.84923
35700.00000	108.10058	1611.62736	108.10058
35750.00000	107.92116	1609.42228	107.92116
35800.00000	107.99165	1609.17998	107.99165
35850.00000	108.33831	1606.00596	108.33831
35900.00000	108.43163	1604.88404	108.43163
35950.00000	108.76489	1602.66362	108.76489
36000.00000	108.71433	1600.98179	108.71433
36050.00000	109.35303	1599.05591	109.35303
36100.00000	109.36455	1596.63478	109.36455
36150.00000	109.21722	1593.91750	109.21722
36200.00000	109.35301	1591.67496	109.35301
36250.00000	109.31913	1590.37602	109.31913
36300.00000	109.36716	1588.18257	109.36716
36350.00000	109.57728	1586.27207	109.57728
36400.00000	109.77785	1584.19836	109.77785
36450.00000	109.69491	1581.75072	109.69491
36500.00000	110.19133	1581.09569	110.19133
36550.00000	110.07344	1576.30426	110.07344
36600.00000	109.98633	1574.67937	109.98633
36650.00000	110.25196	1573.61083	110.25196
36700.00000	110.52342	1569.13479	110.52342
36750.00000	110.54992	1567.01376	110.54992
36800.00000	110.49215	1566.16047	110.49215
36850.00000	110.56432	1563.12751	110.56432
36900.00000	110.80825	1560.08867	110.80825
36950.00000	110.74546	1558.38318	110.74546
37000.00000	110.49883	1556.49075	110.49883
37050.00000	110.61801	1554.20250	110.61801
37100.00000	110.92168	1551.09229	110.92168
37150.00000	111.08331	1548.69781	111.08331
37200.00000	111.34809	1547.47056	111.34809
37250.00000	111.06303	1544.65426	111.06303
37300.00000	111.17946	1541.80394	111.17946
37350.00000	111.48197	1540.85197	111.48197
37400.00000	111.40056	1538.93862	111.40056
37450.00000	111.54164	1537.21520	111.54164
37500.00000	112.12739	1533.64213	112.12739
37550.00000	111.97697	1532.12318	111.97697
37600.00000	112.15786	1529.74024	112.15786
37650.00000	112.32943	1527.53640	112.32943
37700.00000	112.55065	1523.80615	112.55065
37750.00000	112.69405	1521.98189	112.69405
37800.00000	112.72437	1519.27637	112.72437
37850.00000	113.33502	1515.67357	113.33502
37900.00000	113.25479	1513.86872	113.25479
37950.00000	113.46548	1511.88078	113.46548
38000.00000	113.64792	1509.01879	113.64792
38050.00000	113.94046	1505.79891	113.94046
38100.00000	114.26484	1502.89586	114.26484
38150.00000	114.46844	1500.17803	114.46844
38200.00000	114.81093	1495.71801	114.81093
38250.00000	115.04192	1493.02247	115.04192
38300.00000	115.36619	1488.47669	115.36619
38350.00000	115.52145	1485.71473	115.52145
38400.00000	115.79997	1481.74551	115.79997
38450.00000	116.05110	1477.70288	116.05110
38500.00000	116.42263	1473.15646	116.42263
38550.00000	116.70554	1469.48770	116.70554
38600.00000	116.92983	1465.16097	116.92983
38650.00000	117.13112	1460.23957	117.13112
38700.00000	117.36128	1455.60796	117.36128
38750.00000	117.61311	1451.15673	117.61311
38800.00000	117.82680	1446.37203	117.82680
38850.00000	117.99594	1441.19255	117.99594
38900.00000	118.15799	1436.65152	118.15799
38950.00000	118.23067	1430.96232	118.23067
39000.00000	118.38179	1425.61288	118.38179
39050.00000	118.53014	1420.57289	118.53014
39100.00000	118.44050	1415.09681	118.44050
39150.00000	118.43560	1409.75349	118.43560
39200.00000	118.43825	1404.46809	118.43825
39250.00000	118.40928	1398.91355	118.40928
39300.00000	118.34285	1393.43740	118.34285
39350.00000	118.25302	1388.96976	118.25302
39400.00000	118.09130	1383.59556	118.09130
39450.00000	117.89464	1378.78970	117.89464
39500.00000	117.74367	1373.59915	117.74367
39550.00000	117.43397	1368.54300	117.43397
39600.00000	117.16851	1363.93563	117.16851
39650.00000	116.96430	1360.09366	116.96430
39700.00000	116.63604	1355.45812	116.63604
39750.00000	116.39044	1351.38844	116.39044
39800.00000	116.08525	1347.49395	116.08525
39850.00000	115.69242	1343.79875	115.69242
39900.00000	115.39227	1340.32713	115.39227
39950.00000	115.10530	1336.73269	115.10530
40000.00000	114.61663	1335.31358	114.61663
40050.00000	114.43453	1330.43778	114.43453
40100.00000	114.18093	1327.77777	114.18093
40150.00000	113.79207	1324.86790	113.79207
40200.00000	113.48398	1321.49690	113.48398
40250.00000	113.14481	1319.48081	113.14481
40300.00000	112.91363	1317.49780	112.91363
40350.00000	112.42332	1315.22982	112.42332
40400.00000	112.07646	1312.68735	112.07646
40450.00000	111.80277	1311.16480	111.80277
40500.00000	111.63616	1309.83920	111.63616
40550.00000	111.22203	1307.44131	111.22203
40600.00000	111.01520	1306.23237	111.01520
40650.00000	110.71921	1305.21456	110.71921
40700.00000	110.34228	1304.59282	110.34228
40750.00000	110.23844	1302.77402	110.23844
40800.00000	110.01953	1301.39889	110.01953
40850.00000	109.80173	1301.93597	109.80173
40900.00000	109.62081	1300.26787	109.62081
40950.00000	109.26611	1300.82661	109.26611
41000.00000	108.92085	1300.02952	108.92085
41050.00000	109.03029	1299.03869	109.03029
41100.00000	109.01077	1298.35676	109.01077
41150.00000	108.96139	1299.94029	108.96139
41200.00000	108.88985	1298.48505	108.88985
41250.00000	108.76761	1296.33316	108.76761
41300.00000	108.52326	1297.24406	108.52326
41350.00000	108.73770	1297.21917	108.73770
41400.00000	108.63134	1292.01465	108.63134
41450.00000	108.83001	1294.55890	108.83001
41500.00000	108.53211	1294.32956	108.53211
41550.00000	108.50380	1296.60960	108.50380
41600.00000	108.34774	1294.18316	108.34774
41650.00000	108.84503	1291.56957	108.84503
41700.00000	109.05605	1291.54749	109.05605
41750.00000	108.85409	1295.06296	108.85409
41800.00000	107.99466	1288.80225	107.99466
41850.00000	108.10039	1289.45136	108.10039
41900.00000	107.75533	1288.67390	107.75533
41950.00000	109.31336	1292.79497	109.31336
42000.00000	108.36579	1284.55771	108.36579
42050.00000	107.11200	1282.91269	107.11200
42100.00000	108.03199	1283.01491	108.03199
42150.00000	107.53171	1276.91747	107.53171
42200.00000	107.44917	1281.44641	107.44917
42250.00000	107.41923	1281.47440	107.41923
42300.00000	106.42769	1275.45083	106.42769
42350.00000	107.14713	1276.82341	107.14713
42400.00000	106.70189	1275.71258	106.70189
42450.00000	107.48422	1269.24305	107.48422
42500.00000	106.88370	1270.19065	106.88370
42550.00000	107.11658	1278.65132	107.11658
42600.00000	107.00123	1267.80679	107.00123
42650.00000	106.72056	1269.52555	106.72056
42700.00000	106.11811	1264.45809	106.11811
42750.00000	107.33610	1264.01906	107.33610
42800.00000	106.67744	1257.54147	106.67744
42850.00000	106.50984	1254.61147	106.50984
42900.00000	107.47292	1259.36302	107.47292
42950.00000	107.04446	1251.65478	107.04446
43000.00000	107.41933	1243.73007	107.41933
43050.00000	107.17808	1241.81442	107.17808
43100.00000	107.57445	1245.12102	107.57445
43150.00000	106.34361	1238.19548	106.34361
43200.00000	107.61143	1235.05739	107.61143
43250.00000	107.52424	1231.84614	107.52424
43300.00000	107.67320	1230.74218	107.67320
43350.00000	108.36766	1224.83105	108.36766
43400.00000	108.11126	1221.65231	108.11126
43450.00000	108.62042	1221.35197	108.62042
43500.00000	107.76584	1213.12680	107.76584
43550.00000	108.61663	1211.83795	108.61663
43600.00000	108.29657	1206.93432	108.29657
43650.00000	108.75862	1197.79150	108.75862
43700.00000	108.66830	1199.45116	108.66830
43750.00000	108.47069	1198.30562	108.47069
43800.00000	108.75454	1189.15399	108.75454
43850.00000	109.51119	1185.79392	109.51119
43900.00000	109.74532	1183.30051	109.74532
43950.00000	109.84277	1176.89351	109.84277
44000.00000	109.15645	1174.31106	109.15645
44050.00000	109.78890	1168.34781	109.78890
44100.00000	109.83116	1157.25926	109.83116
44150.00000	109.79930	1160.27449	109.79930
44200.00000	109.54077	1157.82784	109.54077
44250.00000	110.05413	1151.05556	110.05413
44300.00000	110.07249	1142.59572	110.07249
44350.00000	109.21200	1138.83844	109.21200
44400.00000	110.01470	1136.22873	110.01470
44450.00000	110.29909	1133.43903	110.29909
44500.00000	109.65446	1129.43015	109.65446
44550.00000	110.94703	1118.20291	110.94703
44600.00000	109.88234	1120.72207	109.88234
44650.00000	109.31795	1110.98424	109.31795
44700.00000	109.17580	1106.23201	109.17580
44750.00000	109.19971	1106.80663	109.19971
44800.00000	109.86099	1099.23830	109.86099
44850.00000	108.92407	1093.66489	108.92407
44900.00000	108.84162	1093.41289	108.84162
44950.00000	108.84810	1086.71404	108.84810
45000.00000	108.71069	1078.00142	108.71069
45050.00000	107.14379	1084.09342	107.14379
45100.00000	107.59285	1076.92806	107.59285
45150.00000	107.50699	1065.65243	107.50699
45200.00000	106.81122	1068.06222	106.81122
45250.00000	106.87279	1063.97320	106.87279
45300.00000	106.31949	1059.55151	106.31949
45350.00000	105.55322	1050.25659	105.55322
45400.00000	105.98564	1053.17250	105.98564
45450.00000	105.25690	1045.02543	105.25690
45500.00000	103.80664	1042.32301	103.80664
45550.00000	103.97812	1045.15105	103.97812
45600.00000	104.60150	1037.25814	104.60150
45650.00000	102.63592	1035.90506	102.63592
45700.00000	102.90338	1034.14485	102.90338
45750.00000	103.27775	1036.64236	103.27775
45800.00000	102.30826	1026.98190	102.30826
45850.00000	101.87197	1027.53863	101.87197
45900.00000	101.57971	1026.81801	101.57971
45950.00000	100.65567	1031.49153	100.65567
46000.00000	99.38684	1016.74264	99.38684
46050.00000	100.05049	1015.29309	100.05049
46100.00000	98.50195	1020.24358	98.50195
46150.00000	99.05036	1020.84118	99.05036
46200.00000	96.67834	1013.25756	96.67834
46250.00000	97.90555	1013.46356	97.90555
46300.00000	96.67554	1013.75776	96.67554
46350.00000	98.48583	1007.45406	98.48583
46400.00000	96.17425	1005.43461	96.17425
46450.00000	94.79653	1007.31566	94.79653
46500.00000	95.50225	1013.10336	95.50225
46550.00000	95.32228	1011.50865	95.32228
46600.00000	95.65290	1018.83500	95.65290
46650.00000	92.81656	1012.36774	92.81656
46700.00000	92.60394	1023.25675	92.60394
46750.00000	94.45767	1030.95651	94.45767
46800.00000	92.04432	1018.06552	92.04432
46850.00000	93.73346	675.45680	93.73346
46900.00000	93.55374	668.20297	93.55374
46950.00000	94.24842	669.80199	94.24842
47000.00000	93.94117	673.32505	93.94117
47050.00000	95.61701	664.16285	95.61701
47100.00000	94.28434	661.17638	94.28434
47150.00000	95.40862	663.42980	95.40862
47200.00000	94.22595	662.58056	94.22595
47250.00000	95.95910	659.03449	95.95910
47300.00000	95.42657	649.21145	95.42657
47350.00000	94.88037	300.79413	94.88037
47400.00000	94.01454	299.99208	94.01454
47450.00000	95.40283	302.42641	95.40283
47500.00000	93.85998	285.20112	93.85998
47550.00000	93.12509	-63.88469	93.12509
47600.00000	93.71446	-67.28136	93.71446
47650.00000	95.29316	-70.69684	95.29316
47700.00000	94.07637	-70.24157	94.07637
47750.00000	92.10529	-71.05626	92.10529
47800.00000	93.12087	-84.90619	93.12087
47850.00000	93.81370	-436.23501	93.81370
47900.00000	93.59104	-787.03396	93.59104
47950.00000	92.88951	-788.28635	92.88951
48000.00000	93.13323	-784.30476	93.13323
48050.00000	94.22256	-795.11371	94.22256
48100.00000	92.15643	-797.03992	92.15643
48150.00000	93.87412	-1147.84348	93.87412
48200.00000	93.57495	-1148.97426	93.57495
48250.00000	93.45249	-1153.32228	93.45249
48300.00000	93.65235	-1153.30669	93.65235
48350.00000	94.21192	-1158.38769	94.21192
48400.00000	93.95579	-1506.83779	93.95579
48450.00000	94.76500	-1515.70373	94.76500
48500.00000	94.26915	-1517.47806	94.26915
48550.00000	93.28087	-1524.40026	93.28087
48600.00000	94.00344	-1877.07210	94.00344
48650.00000	95.09106	-1878.84379	95.09106
48700.00000	95.74704	-1886.85301	95.74704
48750.00000	93.95322	-2235.21328	93.95322
48800.00000	94.48510	-2250.97662	94.48510
48850.00000	94.24064	-2243.50492	94.24064
48900.00000	93.48096	-2604.60432	93.48096
48950.00000	93.72590	-2614.27634	93.72590
49000.00000	94.55181	-2622.71275	94.55181
49050.00000	93.56009	-2619.80078	93.56009
49100.00000	92.80704	-2975.65306	92.80704
49150.00000	94.47351	-3333.05052	94.47351
49200.00000	94.21029	-3347.13778	94.21029
49250.00000	92.75695	-3698.28954	92.75695
49300.00000	93.57269	-3345.78168	93.57269
49350.00000	92.18052	-3329.68151	92.18052
49400.00000	92.57091	-2986.34070	92.57091
49450.00000	91.01966	-2633.06726	91.01966
49500.00000	92.68711	-2270.97036	92.68711
49550.00000	92.73283	-1926.72626	92.73283
49600.00000	90.58179	-1909.18915	90.58179
49650.00000	93.13917	-1902.41672	93.13917
49700.00000	91.87099	-1566.72067	91.87099
49750.00000	93.26461	-1556.18655	93.26461
49800.00000	91.89518	-1549.82243	91.89518
49850.00000	90.84457	-1539.15588	90.84457
49900.00000	90.87190	-1190.86235	90.87190
49950.00000	91.64913	-845.71074	91.64913
