---ACOUSTIC CALIBRATION---
Filename: C:\Data\AZH DATA\AZH61\RightSecondary.calib
Date: 8/27/2019 3:35:12 PM
Format: 4
Probe Tube Correction File: C:\Data\Probe Tube Calibrations\50_ProbeTube.calib
Experiment VIs: 850
EPL_CFTS.exe V12.0.1 (2012)
DAQmx V9.6

Attenuation (dB): 40.000000
Min Freq (Hz): 50.000000
Max Freq (Hz): 49950.000000
Freq Step (Hz): 50.000000
Sample Rate (Hz): 100000.000000
[Smoothing]
Method=None
MA.Iterations=0
MA.Length=0
Loess.Length=0
Loess.Type=Linear
Loess.Robust=FALSE


Freq(Hz)	Mag(dB)	Phase(deg)	Unsmoothed(dB)

50.00000	92.59199	449.38992	92.59199
100.00000	75.22910	491.77464	75.22910
150.00000	77.43506	480.82807	77.43506
200.00000	77.77813	404.37394	77.77813
250.00000	86.66420	413.54096	86.66420
300.00000	83.50321	322.65258	83.50321
350.00000	83.97936	332.14884	83.97936
400.00000	86.10764	317.20751	86.10764
450.00000	85.72228	305.72017	85.72228
500.00000	87.57025	316.91553	87.57025
550.00000	89.56276	320.24364	89.56276
600.00000	92.13564	313.82956	92.13564
650.00000	93.88933	313.62042	93.88933
700.00000	95.94792	305.85207	95.94792
750.00000	97.74304	304.28455	97.74304
800.00000	100.43390	294.16848	100.43390
850.00000	102.59211	283.97944	102.59211
900.00000	104.28888	266.29638	104.28888
950.00000	105.34624	249.26615	105.34624
1000.00000	105.13694	231.68993	105.13694
1050.00000	104.66835	222.82214	104.66835
1100.00000	104.86094	210.26810	104.86094
1150.00000	103.90765	199.72328	103.90765
1200.00000	103.52145	197.27195	103.52145
1250.00000	103.53519	186.96379	103.53519
1300.00000	102.58875	181.13304	102.58875
1350.00000	101.77414	176.55893	101.77414
1400.00000	101.01631	176.88273	101.01631
1450.00000	101.30236	176.80126	101.30236
1500.00000	100.67123	175.84987	100.67123
1550.00000	101.32956	173.27806	101.32956
1600.00000	101.99316	169.79781	101.99316
1650.00000	102.86757	160.95882	102.86757
1700.00000	101.42957	156.63815	101.42957
1750.00000	101.29615	155.05246	101.29615
1800.00000	100.91768	152.53722	100.91768
1850.00000	100.77062	156.01905	100.77062
1900.00000	101.88937	156.04809	101.88937
1950.00000	102.64013	147.35311	102.64013
2000.00000	102.35584	138.75643	102.35584
2050.00000	101.37813	134.94011	101.37813
2100.00000	101.56897	133.23089	101.56897
2150.00000	101.04289	128.69132	101.04289
2200.00000	100.50392	125.86655	100.50392
2250.00000	99.59693	123.70219	99.59693
2300.00000	99.55003	125.09476	99.55003
2350.00000	99.17125	124.92947	99.17125
2400.00000	99.08517	125.88994	99.08517
2450.00000	98.94023	123.40992	98.94023
2500.00000	98.44976	124.98067	98.44976
2550.00000	98.07213	127.05203	98.07213
2600.00000	97.88525	134.06557	97.88525
2650.00000	98.92755	141.61282	98.92755
2700.00000	100.73808	143.29875	100.73808
2750.00000	102.37931	135.89678	102.37931
2800.00000	102.99846	125.80172	102.99846
2850.00000	102.93194	117.41857	102.93194
2900.00000	102.58365	110.75491	102.58365
2950.00000	102.20479	106.92265	102.20479
3000.00000	101.79499	103.12064	101.79499
3050.00000	101.36705	99.98293	101.36705
3100.00000	101.13064	98.33024	101.13064
3150.00000	100.75703	94.12576	100.75703
3200.00000	100.16710	91.65651	100.16710
3250.00000	99.48661	89.87364	99.48661
3300.00000	98.59016	88.82117	98.59016
3350.00000	97.45259	90.37489	97.45259
3400.00000	96.60754	97.94492	96.60754
3450.00000	96.37501	105.97533	96.37501
3500.00000	96.82277	112.21211	96.82277
3550.00000	97.19673	115.42688	97.19673
3600.00000	97.43339	118.09365	97.43339
3650.00000	97.16747	121.34420	97.16747
3700.00000	97.00774	130.35946	97.00774
3750.00000	97.79533	142.51014	97.79533
3800.00000	99.52933	150.91051	99.52933
3850.00000	101.55527	154.55370	101.55527
3900.00000	103.40823	154.01800	103.40823
3950.00000	105.10221	151.41656	105.10221
4000.00000	106.48300	147.00304	106.48300
4050.00000	107.47656	142.69687	107.47656
4100.00000	108.36324	138.84723	108.36324
4150.00000	109.32651	135.55967	109.32651
4200.00000	110.03734	132.31638	110.03734
4250.00000	110.85978	129.70707	110.85978
4300.00000	111.75724	127.48503	111.75724
4350.00000	112.75164	125.16385	112.75164
4400.00000	113.88918	122.71756	113.88918
4450.00000	115.15981	119.41132	115.15981
4500.00000	116.52562	114.87050	116.52562
4550.00000	117.91562	108.86336	117.91562
4600.00000	119.27452	101.60488	119.27452
4650.00000	120.65395	92.99699	120.65395
4700.00000	121.94255	82.37784	121.94255
4750.00000	123.05073	69.85554	123.05073
4800.00000	123.86627	55.50102	123.86627
4850.00000	124.24728	40.19848	124.24728
4900.00000	124.15506	24.79641	124.15506
4950.00000	123.59102	10.47296	123.59102
5000.00000	122.57188	-1.45612	122.57188
5050.00000	121.51685	-9.70774	121.51685
5100.00000	120.31754	-19.16532	120.31754
5150.00000	117.84480	-21.71140	117.84480
5200.00000	116.73417	-3.43607	116.73417
5250.00000	119.80993	 2.28439	119.80993
5300.00000	121.55214	-10.89526	121.55214
5350.00000	121.87149	-24.42333	121.87149
5400.00000	121.62770	-35.45261	121.62770
5450.00000	121.20007	-44.24464	121.20007
5500.00000	120.72568	-51.75531	120.72568
5550.00000	120.25971	-58.23621	120.25971
5600.00000	119.79836	-64.15119	119.79836
5650.00000	119.35678	-69.50639	119.35678
5700.00000	118.91213	-74.66001	118.91213
5750.00000	118.50300	-79.27092	118.50300
5800.00000	118.09284	-83.77786	118.09284
5850.00000	117.71221	-88.10899	117.71221
5900.00000	117.34330	-92.24666	117.34330
5950.00000	116.98272	-96.21110	116.98272
6000.00000	116.63537	-99.95635	116.63537
6050.00000	116.27902	-103.70784	116.27902
6100.00000	115.94628	-107.31543	115.94628
6150.00000	115.61670	-110.87904	115.61670
6200.00000	115.28070	-114.32814	115.28070
6250.00000	114.97357	-117.65723	114.97357
6300.00000	114.67073	-120.96079	114.67073
6350.00000	114.35742	-124.23891	114.35742
6400.00000	114.05137	-127.35419	114.05137
6450.00000	113.76954	-130.48522	113.76954
6500.00000	113.45004	-133.54144	113.45004
6550.00000	113.14007	-136.38146	113.14007
6600.00000	112.84026	-139.19504	112.84026
6650.00000	112.54021	-141.84951	112.54021
6700.00000	112.24484	-144.56326	112.24484
6750.00000	111.95385	-146.99111	111.95385
6800.00000	111.67659	-149.33898	111.67659
6850.00000	111.40091	-151.60324	111.40091
6900.00000	111.15480	-153.72409	111.15480
6950.00000	110.91413	-155.75185	110.91413
7000.00000	110.71048	-157.79836	110.71048
7050.00000	110.50289	-159.94215	110.50289
7100.00000	110.32579	-162.07579	110.32579
7150.00000	110.14370	-164.02905	110.14370
7200.00000	109.96565	-165.97879	109.96565
7250.00000	109.78207	-167.81639	109.78207
7300.00000	109.67334	-169.59693	109.67334
7350.00000	109.55018	-171.23878	109.55018
7400.00000	109.47262	-173.09437	109.47262
7450.00000	109.42352	-174.94466	109.42352
7500.00000	109.40512	-176.89178	109.40512
7550.00000	109.40791	-178.94491	109.40791
7600.00000	109.40945	-181.31717	109.40945
7650.00000	109.42126	-183.79436	109.42126
7700.00000	109.49177	-186.40931	109.49177
7750.00000	109.49744	-189.47015	109.49744
7800.00000	109.51603	-192.67779	109.51603
7850.00000	109.50234	-196.09726	109.50234
7900.00000	109.46517	-199.68186	109.46517
7950.00000	109.38734	-203.43654	109.38734
8000.00000	109.27213	-207.30740	109.27213
8050.00000	109.11777	-211.36697	109.11777
8100.00000	108.95820	-214.71632	108.95820
8150.00000	108.68449	-218.39866	108.68449
8200.00000	108.44391	-221.64180	108.44391
8250.00000	108.15758	-225.10616	108.15758
8300.00000	107.90127	-228.33987	107.90127
8350.00000	107.59864	-231.26028	107.59864
8400.00000	107.28829	-234.56354	107.28829
8450.00000	106.89526	-237.25228	106.89526
8500.00000	106.52924	-239.85333	106.52924
8550.00000	106.22621	-241.91308	106.22621
8600.00000	105.89880	-244.35485	105.89880
8650.00000	105.52799	-246.30377	105.52799
8700.00000	105.23953	-248.86705	105.23953
8750.00000	104.86477	-249.97007	104.86477
8800.00000	104.57763	-252.18705	104.57763
8850.00000	104.26698	-254.07220	104.26698
8900.00000	104.02035	-255.64263	104.02035
8950.00000	103.79307	-257.59935	103.79307
9000.00000	103.51795	-259.11472	103.51795
9050.00000	103.38182	-260.85700	103.38182
9100.00000	103.24442	-262.35788	103.24442
9150.00000	103.11912	-263.89833	103.11912
9200.00000	103.02865	-265.27697	103.02865
9250.00000	102.87658	-266.76572	102.87658
9300.00000	102.76353	-268.03709	102.76353
9350.00000	102.69049	-269.43276	102.69049
9400.00000	102.49300	-270.47829	102.49300
9450.00000	102.42096	-271.98961	102.42096
9500.00000	102.35661	-273.46286	102.35661
9550.00000	102.26290	-275.29842	102.26290
9600.00000	102.25801	-277.43164	102.25801
9650.00000	102.22128	-279.84867	102.22128
9700.00000	102.21010	-281.38995	102.21010
9750.00000	102.27918	-283.99300	102.27918
9800.00000	102.22016	-285.50850	102.22016
9850.00000	102.18345	-286.72912	102.18345
9900.00000	101.97894	-288.53620	101.97894
9950.00000	101.85123	-289.73905	101.85123
10000.00000	101.67297	-291.81329	101.67297
10050.00000	101.44121	-293.72675	101.44121
10100.00000	101.21630	-295.91761	101.21630
10150.00000	100.94840	-299.04081	100.94840
10200.00000	100.79740	-301.75895	100.79740
10250.00000	100.65744	-304.70438	100.65744
10300.00000	100.71186	-307.35578	100.71186
10350.00000	100.64941	-309.48449	100.64941
10400.00000	100.53940	-311.58068	100.53940
10450.00000	100.55835	-313.55728	100.55835
10500.00000	100.51723	-315.21915	100.51723
10550.00000	100.38254	-317.08182	100.38254
10600.00000	100.19452	-318.91944	100.19452
10650.00000	99.99795	-320.83724	99.99795
10700.00000	99.84316	-324.17587	99.84316
10750.00000	99.77012	-327.04695	99.77012
10800.00000	99.64238	-329.62248	99.64238
10850.00000	99.56471	-333.09476	99.56471
10900.00000	99.50821	-335.34898	99.50821
10950.00000	99.41332	-337.15619	99.41332
11000.00000	99.26776	-339.09185	99.26776
11050.00000	98.91642	-341.02237	98.91642
11100.00000	98.62673	-343.59726	98.62673
11150.00000	98.24350	-345.79196	98.24350
11200.00000	98.01144	-348.27113	98.01144
11250.00000	97.69200	-351.19067	97.69200
11300.00000	97.40663	-353.79651	97.40663
11350.00000	97.19639	-355.46906	97.19639
11400.00000	96.90425	-357.07014	96.90425
11450.00000	96.69718	-358.88925	96.69718
11500.00000	96.54547	-359.43244	96.54547
11550.00000	96.16641	-360.35694	96.16641
11600.00000	95.97103	-362.46569	95.97103
11650.00000	95.67458	-363.11406	95.67458
11700.00000	95.49889	-364.75676	95.49889
11750.00000	95.41856	-366.55579	95.41856
11800.00000	95.34078	-368.54706	95.34078
11850.00000	95.33780	-368.98535	95.33780
11900.00000	95.07621	-370.75592	95.07621
11950.00000	95.00569	-371.71623	95.00569
12000.00000	94.78046	-372.91414	94.78046
12050.00000	94.49584	-374.36420	94.49584
12100.00000	94.31718	-377.46636	94.31718
12150.00000	94.12230	-379.95294	94.12230
12200.00000	94.04449	-382.79843	94.04449
12250.00000	93.90264	-384.65003	93.90264
12300.00000	94.86394	-386.92989	94.86394
12350.00000	93.52383	-388.62995	93.52383
12400.00000	93.21310	-389.32570	93.21310
12450.00000	92.82403	-390.68591	92.82403
12500.00000	92.38675	-392.84631	92.38675
12550.00000	92.02423	-394.53637	92.02423
12600.00000	91.58385	-396.57674	91.58385
12650.00000	91.45759	-398.10924	91.45759
12700.00000	91.07517	-399.33592	91.07517
12750.00000	90.72023	-400.51393	90.72023
12800.00000	90.37759	-400.44692	90.37759
12850.00000	89.66311	-400.20711	89.66311
12900.00000	89.37997	-401.46355	89.37997
12950.00000	89.13365	-402.42692	89.13365
13000.00000	88.83228	-404.11326	88.83228
13050.00000	88.69972	-403.36488	88.69972
13100.00000	88.50846	-403.41841	88.50846
13150.00000	88.37735	-403.09345	88.37735
13200.00000	88.05568	-401.03601	88.05568
13250.00000	87.70624	-400.85488	87.70624
13300.00000	87.23167	-398.42236	87.23167
13350.00000	86.91998	-399.80107	86.91998
13400.00000	86.89873	-401.13233	86.89873
13450.00000	86.63961	-399.97352	86.63961
13500.00000	86.73469	-398.61943	86.73469
13550.00000	86.49470	-398.28710	86.49470
13600.00000	86.36218	-396.20525	86.36218
13650.00000	86.15062	-395.04476	86.15062
13700.00000	85.69833	-394.82551	85.69833
13750.00000	85.44194	-393.57054	85.44194
13800.00000	85.37428	-393.98165	85.37428
13850.00000	85.27517	-394.52780	85.27517
13900.00000	85.17641	-393.77829	85.17641
13950.00000	85.30527	-392.80446	85.30527
14000.00000	85.56032	-390.96935	85.56032
14050.00000	85.60198	-390.70328	85.60198
14100.00000	85.41146	-388.54065	85.41146
14150.00000	85.49942	-387.24202	85.49942
14200.00000	85.59073	-385.22430	85.59073
14250.00000	85.97880	-382.53526	85.97880
14300.00000	86.10189	-381.21130	86.10189
14350.00000	86.07835	-379.22123	86.07835
14400.00000	85.72646	-379.13323	85.72646
14450.00000	85.84332	-377.58066	85.84332
14500.00000	86.16589	-379.09527	86.16589
14550.00000	86.57674	-378.23284	86.57674
14600.00000	86.82265	-378.28106	86.82265
14650.00000	87.41594	-374.71634	87.41594
14700.00000	87.60330	-377.44624	87.60330
14750.00000	87.92678	-376.24484	87.92678
14800.00000	87.99537	-374.41694	87.99537
14850.00000	88.35716	-374.53065	88.35716
14900.00000	88.76509	-375.24033	88.76509
14950.00000	89.14532	-375.81888	89.14532
15000.00000	89.42932	-377.05980	89.42932
15050.00000	89.58569	-376.58241	89.58569
15100.00000	90.06154	-376.75658	90.06154
15150.00000	90.49144	-377.67429	90.49144
15200.00000	90.73867	-376.86847	90.73867
15250.00000	90.89507	-377.29791	90.89507
15300.00000	91.38637	-377.86721	91.38637
15350.00000	91.62835	-380.08167	91.62835
15400.00000	91.92279	-378.91488	91.92279
15450.00000	92.20052	-379.83154	92.20052
15500.00000	92.59856	-381.12516	92.59856
15550.00000	92.97767	-383.19896	92.97767
15600.00000	93.33257	-384.94878	93.33257
15650.00000	94.01250	-384.46976	94.01250
15700.00000	94.29020	-386.71192	94.29020
15750.00000	94.77090	-387.15712	94.77090
15800.00000	95.16742	-387.81181	95.16742
15850.00000	95.39681	-389.79717	95.39681
15900.00000	95.72689	-392.28805	95.72689
15950.00000	96.13460	-394.59357	96.13460
16000.00000	96.56121	-396.52966	96.56121
16050.00000	96.97311	-398.24614	96.97311
16100.00000	97.13128	-401.08656	97.13128
16150.00000	97.37815	-403.94257	97.37815
16200.00000	97.79044	-407.58469	97.79044
16250.00000	98.12689	-409.38634	98.12689
16300.00000	98.52767	-411.31904	98.52767
16350.00000	98.70995	-413.77559	98.70995
16400.00000	98.89064	-416.10878	98.89064
16450.00000	99.08685	-418.91720	99.08685
16500.00000	99.24125	-421.81323	99.24125
16550.00000	99.54778	-424.56151	99.54778
16600.00000	99.78483	-427.28292	99.78483
16650.00000	99.89193	-429.66179	99.89193
16700.00000	100.18782	-431.49532	100.18782
16750.00000	100.24066	-434.48698	100.24066
16800.00000	100.40876	-436.80484	100.40876
16850.00000	100.66805	-439.16078	100.66805
16900.00000	100.90832	-441.52051	100.90832
16950.00000	101.08074	-443.87547	101.08074
17000.00000	101.15136	-446.17608	101.15136
17050.00000	101.36359	-447.99202	101.36359
17100.00000	101.49619	-449.81514	101.49619
17150.00000	101.82058	-452.71337	101.82058
17200.00000	102.06231	-455.05993	102.06231
17250.00000	102.22211	-457.93182	102.22211
17300.00000	102.48098	-460.21287	102.48098
17350.00000	102.55788	-462.43252	102.55788
17400.00000	102.83005	-465.10461	102.83005
17450.00000	102.97031	-468.21686	102.97031
17500.00000	103.20202	-470.81340	103.20202
17550.00000	103.39440	-473.72960	103.39440
17600.00000	103.65782	-476.03228	103.65782
17650.00000	103.82073	-479.64771	103.82073
17700.00000	103.94902	-482.86002	103.94902
17750.00000	104.21365	-485.01762	104.21365
17800.00000	104.29302	-488.56010	104.29302
17850.00000	104.44053	-491.11701	104.44053
17900.00000	104.55694	-494.29930	104.55694
17950.00000	104.75821	-497.55471	104.75821
18000.00000	104.85558	-501.18767	104.85558
18050.00000	105.10802	-503.77438	105.10802
18100.00000	105.13169	-507.26531	105.13169
18150.00000	105.23023	-509.80512	105.23023
18200.00000	105.25490	-513.68589	105.25490
18250.00000	105.42851	-516.07327	105.42851
18300.00000	105.55147	-519.02642	105.55147
18350.00000	105.64297	-521.91529	105.64297
18400.00000	105.65850	-525.40361	105.65850
18450.00000	105.69365	-529.74851	105.69365
18500.00000	105.80382	-532.46070	105.80382
18550.00000	105.82196	-535.08640	105.82196
18600.00000	105.99411	-538.81385	105.99411
18650.00000	105.91167	-541.34752	105.91167
18700.00000	105.95781	-545.12959	105.95781
18750.00000	106.08358	-548.11807	106.08358
18800.00000	106.22515	-550.60537	106.22515
18850.00000	106.15917	-553.98427	106.15917
18900.00000	106.17855	-557.20703	106.17855
18950.00000	106.23992	-560.81927	106.23992
19000.00000	106.15825	-563.62932	106.15825
19050.00000	106.30178	-566.92360	106.30178
19100.00000	106.27414	-570.02448	106.27414
19150.00000	106.43087	-573.17059	106.43087
19200.00000	106.38441	-576.07341	106.38441
19250.00000	106.36931	-580.35223	106.36931
19300.00000	106.30530	-582.97640	106.30530
19350.00000	106.31915	-586.38669	106.31915
19400.00000	106.25133	-589.48360	106.25133
19450.00000	106.32486	-592.25044	106.32486
19500.00000	106.18848	-596.26138	106.18848
19550.00000	106.17492	-599.46956	106.17492
19600.00000	106.19573	-603.12377	106.19573
19650.00000	106.06172	-605.83253	106.06172
19700.00000	105.91474	-609.17926	105.91474
19750.00000	105.82698	-611.80783	105.82698
19800.00000	105.83356	-615.76565	105.83356
19850.00000	105.75896	-618.68349	105.75896
19900.00000	105.60568	-622.52902	105.60568
19950.00000	105.45285	-625.32941	105.45285
20000.00000	105.34888	-628.53457	105.34888
20050.00000	105.22964	-631.45740	105.22964
20100.00000	105.01687	-634.61298	105.01687
20150.00000	104.93652	-636.51568	104.93652
20200.00000	104.73687	-640.07415	104.73687
20250.00000	104.52159	-642.78891	104.52159
20300.00000	104.26179	-645.38898	104.26179
20350.00000	104.16342	-648.24462	104.16342
20400.00000	103.91888	-649.77089	103.91888
20450.00000	103.63665	-652.23142	103.63665
20500.00000	103.47805	-654.71203	103.47805
20550.00000	103.05466	-656.05166	103.05466
20600.00000	102.95340	-657.63970	102.95340
20650.00000	102.74311	-659.19363	102.74311
20700.00000	102.47625	-660.55310	102.47625
20750.00000	102.35279	-661.64819	102.35279
20800.00000	102.15073	-662.33190	102.15073
20850.00000	102.05911	-663.24360	102.05911
20900.00000	101.88838	-663.88507	101.88838
20950.00000	101.77724	-663.90929	101.77724
21000.00000	101.72443	-664.22076	101.72443
21050.00000	101.87858	-664.26468	101.87858
21100.00000	101.89177	-664.34070	101.89177
21150.00000	102.06093	-665.03485	102.06093
21200.00000	102.24288	-665.39924	102.24288
21250.00000	102.41427	-667.34340	102.41427
21300.00000	102.67210	-667.99732	102.67210
21350.00000	102.88589	-669.21226	102.88589
21400.00000	103.05618	-671.23562	103.05618
21450.00000	103.28682	-673.23633	103.28682
21500.00000	103.49713	-675.91748	103.49713
21550.00000	103.59250	-677.90976	103.59250
21600.00000	103.79490	-680.61029	103.79490
21650.00000	103.90064	-683.37850	103.90064
21700.00000	103.97230	-685.73405	103.97230
21750.00000	104.09845	-688.38440	104.09845
21800.00000	104.17479	-691.10341	104.17479
21850.00000	104.15575	-693.57113	104.15575
21900.00000	104.22643	-696.30030	104.22643
21950.00000	104.22804	-698.65675	104.22804
22000.00000	104.32933	-701.14838	104.32933
22050.00000	104.29807	-703.35935	104.29807
22100.00000	104.29481	-705.90980	104.29481
22150.00000	104.26810	-708.14862	104.26810
22200.00000	104.32173	-710.59853	104.32173
22250.00000	104.26661	-712.44126	104.26661
22300.00000	104.15397	-714.77327	104.15397
22350.00000	104.25628	-717.21962	104.25628
22400.00000	104.28245	-719.37398	104.28245
22450.00000	104.17579	-721.49583	104.17579
22500.00000	104.10685	-722.35250	104.10685
22550.00000	104.10326	-724.48948	104.10326
22600.00000	104.05768	-727.52761	104.05768
22650.00000	104.07731	-729.22045	104.07731
22700.00000	104.05896	-730.59476	104.05896
22750.00000	104.04605	-730.67850	104.04605
22800.00000	104.03941	-734.67642	104.03941
22850.00000	104.09447	-736.89475	104.09447
22900.00000	104.11204	-737.43681	104.11204
22950.00000	104.16241	-739.02325	104.16241
23000.00000	104.18600	-740.28079	104.18600
23050.00000	104.12434	-742.81795	104.12434
23100.00000	104.30542	-743.37589	104.30542
23150.00000	104.18342	-744.57749	104.18342
23200.00000	104.39916	-747.42389	104.39916
23250.00000	104.25884	-749.74045	104.25884
23300.00000	104.58190	-751.78308	104.58190
23350.00000	104.35950	-753.58527	104.35950
23400.00000	104.43406	-755.58053	104.43406
23450.00000	104.62053	-757.45978	104.62053
23500.00000	104.50240	-758.61292	104.50240
23550.00000	104.55391	-758.86305	104.55391
23600.00000	104.58574	-762.74687	104.58574
23650.00000	104.75666	-764.35820	104.75666
23700.00000	104.90930	-768.31119	104.90930
23750.00000	104.92333	-769.09057	104.92333
23800.00000	104.71180	-769.88883	104.71180
23850.00000	104.94617	-771.26365	104.94617
23900.00000	105.32324	-773.63245	105.32324
23950.00000	105.10797	-776.90362	105.10797
24000.00000	104.97418	-780.21884	104.97418
24050.00000	105.25334	-780.15444	105.25334
24100.00000	105.54317	-784.46603	105.54317
24150.00000	105.55884	-786.40178	105.55884
24200.00000	105.64287	-790.44687	105.64287
24250.00000	105.30111	-790.79129	105.30111
24300.00000	105.60971	-794.40433	105.60971
24350.00000	105.60551	-796.94230	105.60551
24400.00000	105.55367	-800.20418	105.55367
24450.00000	105.33934	-802.37950	105.33934
24500.00000	105.80211	-804.32797	105.80211
24550.00000	105.62080	-809.31747	105.62080
24600.00000	106.12209	-450.80570	106.12209
24650.00000	105.75613	-95.31297	105.75613
24700.00000	105.67404	264.08114	105.67404
24750.00000	105.73966	618.68156	105.73966
24800.00000	105.66384	976.30892	105.66384
24850.00000	105.31129	1334.82656	105.31129
24900.00000	105.38785	1692.79341	105.38785
24950.00000	105.48825	2047.97535	105.48825
25000.00000	105.50523	2040.23278	105.50523
25050.00000	105.75190	2039.43677	105.75190
25100.00000	104.85473	2037.05614	104.85473
25150.00000	105.09347	2035.51668	105.09347
25200.00000	104.86838	2030.87713	104.86838
25250.00000	104.95741	2029.37802	104.95741
25300.00000	104.69669	2027.60553	104.69669
25350.00000	104.76608	2021.05601	104.76608
25400.00000	104.50822	2017.34661	104.50822
25450.00000	104.52086	2015.65169	104.52086
25500.00000	104.24046	2013.53839	104.24046
25550.00000	104.15734	2009.33853	104.15734
25600.00000	104.04107	2006.95411	104.04107
25650.00000	103.93533	2005.36719	103.93533
25700.00000	103.83808	2001.40949	103.83808
25750.00000	103.46879	1998.29793	103.46879
25800.00000	103.36839	1994.66229	103.36839
25850.00000	103.19796	1991.67710	103.19796
25900.00000	103.04763	1987.71952	103.04763
25950.00000	102.64237	1988.70228	102.64237
26000.00000	102.63583	1983.59461	102.63583
26050.00000	102.39783	1981.16036	102.39783
26100.00000	102.24870	1978.75354	102.24870
26150.00000	102.01822	1975.98488	102.01822
26200.00000	102.00556	1973.03344	102.00556
26250.00000	101.74601	1970.65516	101.74601
26300.00000	101.62835	1966.56729	101.62835
26350.00000	101.13509	1965.60276	101.13509
26400.00000	100.82739	1963.04224	100.82739
26450.00000	100.99543	1959.71649	100.99543
26500.00000	100.60330	1956.64317	100.60330
26550.00000	100.32396	1952.03529	100.32396
26600.00000	100.02082	1949.45725	100.02082
26650.00000	100.01934	1950.11014	100.01934
26700.00000	99.75431	1947.58673	99.75431
26750.00000	99.35955	1944.59317	99.35955
26800.00000	99.11351	1939.57371	99.11351
26850.00000	99.27183	1939.46294	99.27183
26900.00000	98.91487	1938.32221	98.91487
26950.00000	98.88231	1934.43733	98.88231
27000.00000	98.29721	1934.13912	98.29721
27050.00000	98.40989	1932.00353	98.40989
27100.00000	97.90468	1930.89949	97.90468
27150.00000	97.83924	1927.40268	97.83924
27200.00000	97.71597	1926.99223	97.71597
27250.00000	97.24119	1926.80510	97.24119
27300.00000	96.86807	1923.47200	96.86807
27350.00000	96.86025	1924.08098	96.86025
27400.00000	96.35329	1921.68090	96.35329
27450.00000	96.27292	1921.62584	96.27292
27500.00000	96.19096	1920.16003	96.19096
27550.00000	96.13518	1918.78047	96.13518
27600.00000	96.49978	1917.56875	96.49978
27650.00000	95.80160	1917.38639	95.80160
27700.00000	95.89437	1914.46147	95.89437
27750.00000	95.85798	1912.72274	95.85798
27800.00000	96.03147	1910.24210	96.03147
27850.00000	96.16839	1913.72521	96.16839
27900.00000	95.78011	1911.84378	95.78011
27950.00000	95.19469	1909.59435	95.19469
28000.00000	95.42261	1910.42502	95.42261
28050.00000	96.20057	1908.00798	96.20057
28100.00000	95.47674	1907.50880	95.47674
28150.00000	95.58344	1906.97771	95.58344
28200.00000	95.79995	1903.69076	95.79995
28250.00000	95.57988	1900.99304	95.57988
28300.00000	95.44739	1902.08625	95.44739
28350.00000	95.74727	1901.79971	95.74727
28400.00000	95.71957	1901.99641	95.71957
28450.00000	96.46360	1898.14743	96.46360
28500.00000	96.08146	1899.01890	96.08146
28550.00000	96.09266	1900.04464	96.09266
28600.00000	96.19324	1897.38665	96.19324
28650.00000	96.59082	1893.06843	96.59082
28700.00000	96.47859	1893.77891	96.47859
28750.00000	97.27287	1893.35914	97.27287
28800.00000	97.18245	1892.01990	97.18245
28850.00000	96.80427	1886.58796	96.80427
28900.00000	97.06422	1886.58996	97.06422
28950.00000	97.22570	1885.97879	97.22570
29000.00000	97.55563	1883.29740	97.55563
29050.00000	97.42207	1884.61729	97.42207
29100.00000	97.54491	1882.46258	97.54491
29150.00000	97.57605	1881.68906	97.57605
29200.00000	97.59162	1877.51328	97.59162
29250.00000	98.00060	1877.86326	98.00060
29300.00000	97.81550	1874.73900	97.81550
29350.00000	98.29319	1872.93282	98.29319
29400.00000	98.26986	1871.97450	98.26986
29450.00000	98.28283	1869.60056	98.28283
29500.00000	98.81672	1868.76539	98.81672
29550.00000	98.55779	1863.35298	98.55779
29600.00000	98.47984	1863.11860	98.47984
29650.00000	98.82796	1859.95336	98.82796
29700.00000	98.56078	1861.02027	98.56078
29750.00000	98.67931	1860.10587	98.67931
29800.00000	98.56478	1857.47686	98.56478
29850.00000	98.73631	1854.79210	98.73631
29900.00000	98.96156	1855.27657	98.96156
29950.00000	98.30401	1853.35242	98.30401
30000.00000	98.67197	1853.03642	98.67197
30050.00000	98.72258	1851.13706	98.72258
30100.00000	98.48946	1851.84886	98.48946
30150.00000	98.59657	1847.78777	98.59657
30200.00000	98.59383	1846.44370	98.59383
30250.00000	98.34323	1846.94828	98.34323
30300.00000	98.12652	1847.59136	98.12652
30350.00000	98.20524	1848.89351	98.20524
30400.00000	98.25624	1846.51249	98.25624
30450.00000	97.90352	1846.80892	97.90352
30500.00000	97.97819	1846.34243	97.97819
30550.00000	97.91662	1847.93074	97.91662
30600.00000	97.93765	1848.88978	97.93765
30650.00000	97.95465	1850.23729	97.95465
30700.00000	97.97270	1850.23840	97.97270
30750.00000	97.90523	1852.55434	97.90523
30800.00000	98.07585	1853.21047	98.07585
30850.00000	98.41159	1855.75272	98.41159
30900.00000	98.30473	1858.25696	98.30473
30950.00000	98.79231	1858.17961	98.79231
31000.00000	99.15901	1858.35216	99.15901
31050.00000	99.48935	1860.51203	99.48935
31100.00000	99.97304	1862.09804	99.97304
31150.00000	100.15467	1862.15217	100.15467
31200.00000	100.97700	1862.38297	100.97700
31250.00000	101.35723	1862.62373	101.35723
31300.00000	101.85417	1862.13726	101.85417
31350.00000	102.48932	1861.18652	102.48932
31400.00000	102.81127	1859.61831	102.81127
31450.00000	103.49697	1858.87990	103.49697
31500.00000	103.89363	1856.24207	103.89363
31550.00000	104.40082	1854.55259	104.40082
31600.00000	105.03109	1850.64895	105.03109
31650.00000	105.42234	1847.92245	105.42234
31700.00000	105.80728	1845.39077	105.80728
31750.00000	106.26769	1843.71218	106.26769
31800.00000	106.59677	1839.13543	106.59677
31850.00000	106.94678	1835.05918	106.94678
31900.00000	107.07316	1832.61218	107.07316
31950.00000	107.47788	1828.35933	107.47788
32000.00000	107.70114	1824.34018	107.70114
32050.00000	107.90713	1820.55967	107.90713
32100.00000	108.01433	1815.97100	108.01433
32150.00000	108.30017	1812.71624	108.30017
32200.00000	108.39500	1808.34866	108.39500
32250.00000	108.51256	1804.20753	108.51256
32300.00000	108.57016	1800.17547	108.57016
32350.00000	108.52012	1796.75967	108.52012
32400.00000	108.78784	1793.04088	108.78784
32450.00000	108.65337	1788.78093	108.65337
32500.00000	108.79248	1785.49552	108.79248
32550.00000	108.85207	1780.59215	108.85207
32600.00000	108.75303	1777.32301	108.75303
32650.00000	108.79884	1773.28562	108.79884
32700.00000	108.65651	1769.61145	108.65651
32750.00000	108.64433	1765.98465	108.64433
32800.00000	108.74464	1762.60940	108.74464
32850.00000	108.67369	1758.70219	108.67369
32900.00000	108.64004	1754.59069	108.64004
32950.00000	108.50669	1750.52574	108.50669
33000.00000	108.32809	1748.60849	108.32809
33050.00000	108.26618	1743.92068	108.26618
33100.00000	108.32119	1740.70792	108.32119
33150.00000	108.30115	1737.90562	108.30115
33200.00000	108.25847	1734.81201	108.25847
33250.00000	108.09753	1732.01354	108.09753
33300.00000	108.04574	1727.89692	108.04574
33350.00000	107.94628	1725.01589	107.94628
33400.00000	107.90926	1722.10711	107.90926
33450.00000	107.81370	1718.09370	107.81370
33500.00000	107.96187	1716.48647	107.96187
33550.00000	107.66008	1711.96788	107.66008
33600.00000	107.85874	1709.41158	107.85874
33650.00000	107.78239	1707.03920	107.78239
33700.00000	107.80086	1703.29015	107.80086
33750.00000	107.67416	1700.14201	107.67416
33800.00000	107.68489	1696.45454	107.68489
33850.00000	107.45718	1694.68308	107.45718
33900.00000	107.68702	1689.76525	107.68702
33950.00000	107.63430	1686.26326	107.63430
34000.00000	107.68770	1684.05759	107.68770
34050.00000	107.61904	1679.89163	107.61904
34100.00000	107.41402	1677.54260	107.41402
34150.00000	107.39698	1673.36407	107.39698
34200.00000	107.25767	1671.30149	107.25767
34250.00000	107.23481	1667.41747	107.23481
34300.00000	107.13060	1664.16216	107.13060
34350.00000	107.16440	1661.35638	107.16440
34400.00000	106.83069	1658.55866	106.83069
34450.00000	106.85536	1653.05299	106.85536
34500.00000	106.58454	1651.11921	106.58454
34550.00000	106.66328	1650.06415	106.66328
34600.00000	106.31690	1644.94656	106.31690
34650.00000	106.53673	1645.16934	106.53673
34700.00000	106.08454	1642.46082	106.08454
34750.00000	106.04992	1637.26528	106.04992
34800.00000	106.24038	1638.63102	106.24038
34850.00000	106.13942	1638.15216	106.13942
34900.00000	106.17518	1632.36956	106.17518
34950.00000	105.83962	1632.01528	105.83962
35000.00000	105.86499	1630.45937	105.86499
35050.00000	105.97325	1629.53494	105.97325
35100.00000	106.08281	1627.08475	106.08281
35150.00000	105.80228	1625.72421	105.80228
35200.00000	105.91612	1623.15546	105.91612
35250.00000	105.91494	1621.83238	105.91494
35300.00000	106.06443	1618.78048	106.06443
35350.00000	106.28693	1616.74351	106.28693
35400.00000	106.20172	1614.64529	106.20172
35450.00000	106.35976	1614.08737	106.35976
35500.00000	106.03535	1612.35785	106.03535
35550.00000	106.57692	1612.36821	106.57692
35600.00000	106.44587	1609.63553	106.44587
35650.00000	106.67193	1608.36577	106.67193
35700.00000	106.82550	1605.87355	106.82550
35750.00000	106.71328	1605.15784	106.71328
35800.00000	107.05454	1604.29637	107.05454
35850.00000	107.25403	1599.30242	107.25403
35900.00000	107.28450	1599.55664	107.28450
35950.00000	107.36812	1595.69427	107.36812
36000.00000	107.66793	1594.52864	107.66793
36050.00000	107.89429	1592.48267	107.89429
36100.00000	107.87366	1590.46908	107.87366
36150.00000	108.01621	1589.36798	108.01621
36200.00000	108.16546	1586.65765	108.16546
36250.00000	107.92444	1584.62810	107.92444
36300.00000	108.03973	1583.47089	108.03973
36350.00000	108.29539	1583.79698	108.29539
36400.00000	108.57962	1582.67941	108.57962
36450.00000	108.59302	1579.40374	108.59302
36500.00000	108.92279	1578.63704	108.92279
36550.00000	108.83674	1575.85614	108.83674
36600.00000	108.91264	1573.89206	108.91264
36650.00000	109.07071	1573.30610	109.07071
36700.00000	109.43841	1570.71461	109.43841
36750.00000	109.57569	1569.69853	109.57569
36800.00000	109.61230	1567.37387	109.61230
36850.00000	109.47380	1565.90902	109.47380
36900.00000	109.93936	1564.24374	109.93936
36950.00000	109.84818	1562.17207	109.84818
37000.00000	109.74704	1561.52697	109.74704
37050.00000	109.69438	1561.47236	109.69438
37100.00000	110.05860	1558.15107	110.05860
37150.00000	110.23949	1557.87243	110.23949
37200.00000	110.57193	1557.65334	110.57193
37250.00000	110.29320	1555.99913	110.29320
37300.00000	110.51804	1554.21313	110.51804
37350.00000	111.04522	1552.73740	111.04522
37400.00000	110.89872	1552.23940	110.89872
37450.00000	111.01515	1551.09799	111.01515
37500.00000	111.53681	1548.19965	111.53681
37550.00000	111.31286	1547.36170	111.31286
37600.00000	111.55144	1548.02566	111.55144
37650.00000	111.69027	1546.50691	111.69027
37700.00000	112.02838	1543.93899	112.02838
37750.00000	112.28356	1543.60302	112.28356
37800.00000	112.39980	1541.28450	112.39980
37850.00000	112.76113	1537.46151	112.76113
37900.00000	113.04850	1536.68211	113.04850
37950.00000	113.26713	1535.18872	113.26713
38000.00000	113.36895	1533.36468	113.36895
38050.00000	113.73028	1529.85992	113.73028
38100.00000	114.01640	1527.18465	114.01640
38150.00000	114.12350	1524.21709	114.12350
38200.00000	114.43873	1520.51463	114.43873
38250.00000	114.66870	1517.80237	114.66870
38300.00000	114.88557	1513.93669	114.88557
38350.00000	114.91622	1511.06500	114.91622
38400.00000	115.13901	1507.34988	115.13901
38450.00000	115.23817	1503.68643	115.23817
38500.00000	115.47238	1499.68954	115.47238
38550.00000	115.68371	1496.32419	115.68371
38600.00000	115.84408	1492.29413	115.84408
38650.00000	115.96684	1487.80778	115.96684
38700.00000	115.98804	1483.45635	115.98804
38750.00000	116.16644	1479.24283	116.16644
38800.00000	116.30757	1474.92200	116.30757
38850.00000	116.33484	1470.01296	116.33484
38900.00000	116.45920	1465.40727	116.45920
38950.00000	116.36871	1460.47661	116.36871
39000.00000	116.40389	1455.60650	116.40389
39050.00000	116.42757	1450.59336	116.42757
39100.00000	116.25651	1446.24989	116.25651
39150.00000	116.15559	1441.42547	116.15559
39200.00000	116.12690	1436.83431	116.12690
39250.00000	116.00435	1431.95955	116.00435
39300.00000	115.88081	1427.59023	115.88081
39350.00000	115.78404	1423.33671	115.78404
39400.00000	115.69055	1418.55585	115.69055
39450.00000	115.49311	1414.51994	115.49311
39500.00000	115.38917	1409.83664	115.38917
39550.00000	115.11989	1404.86042	115.11989
39600.00000	114.90446	1400.59804	114.90446
39650.00000	114.77764	1397.02988	114.77764
39700.00000	114.52174	1392.51298	114.52174
39750.00000	114.35010	1388.16666	114.35010
39800.00000	114.05205	1384.01647	114.05205
39850.00000	113.77038	1379.98243	113.77038
39900.00000	113.58446	1376.33080	113.58446
39950.00000	113.35334	1373.02593	113.35334
40000.00000	112.90584	1370.89324	112.90584
40050.00000	112.81736	1366.24949	112.81736
40100.00000	112.54241	1363.08611	112.54241
40150.00000	112.19971	1360.30860	112.19971
40200.00000	112.09574	1357.01104	112.09574
40250.00000	111.86097	1354.12549	111.86097
40300.00000	111.65191	1351.40886	111.65191
40350.00000	111.25271	1349.06625	111.25271
40400.00000	110.97399	1346.25876	110.97399
40450.00000	110.84071	1344.17728	110.84071
40500.00000	110.69812	1342.19154	110.69812
40550.00000	110.44561	1339.92402	110.44561
40600.00000	110.23161	1338.20494	110.23161
40650.00000	109.99322	1337.09751	109.99322
40700.00000	109.80540	1336.13096	109.80540
40750.00000	109.86932	1333.72293	109.86932
40800.00000	109.69555	1332.35380	109.69555
40850.00000	109.46899	1331.50047	109.46899
40900.00000	109.44028	1329.74644	109.44028
40950.00000	109.31295	1329.99375	109.31295
41000.00000	109.20609	1328.89095	109.20609
41050.00000	109.24822	1328.67450	109.24822
41100.00000	109.37395	1327.11508	109.37395
41150.00000	109.49285	1327.85133	109.49285
41200.00000	109.68169	1326.55606	109.68169
41250.00000	109.62097	1323.85985	109.62097
41300.00000	109.52933	1324.77883	109.52933
41350.00000	109.79881	1325.43684	109.79881
41400.00000	109.87256	1319.96350	109.87256
41450.00000	110.30272	1322.98149	110.30272
41500.00000	110.29104	1321.21764	110.29104
41550.00000	110.33904	1324.48651	110.33904
41600.00000	110.16496	1321.14816	110.16496
41650.00000	110.93563	1318.99916	110.93563
41700.00000	111.10960	1319.03374	111.10960
41750.00000	111.08962	1322.01768	111.08962
41800.00000	110.58183	1315.36412	110.58183
41850.00000	110.82733	1316.88217	110.82733
41900.00000	110.86073	1316.61250	110.86073
41950.00000	112.13630	1319.92647	112.13630
42000.00000	111.28176	1312.31441	111.28176
42050.00000	110.62059	1311.11278	110.62059
42100.00000	111.11863	1311.07906	111.11863
42150.00000	110.86278	1305.54996	110.86278
42200.00000	110.85556	1311.57786	110.85556
42250.00000	111.06819	1309.57037	111.06819
42300.00000	110.10911	1305.71306	110.10911
42350.00000	110.91472	1306.72759	110.91472
42400.00000	110.63515	1307.35887	110.63515
42450.00000	111.14179	1301.15540	111.14179
42500.00000	110.56452	1299.55352	110.56452
42550.00000	110.91739	1311.42523	110.91739
42600.00000	110.28725	1301.41703	110.28725
42650.00000	110.12121	1303.39050	110.12121
42700.00000	109.75374	1300.10483	109.75374
42750.00000	110.57660	1297.68041	110.57660
42800.00000	109.89023	1291.38356	109.89023
42850.00000	109.39366	1290.69950	109.39366
42900.00000	110.33348	1294.60044	110.33348
42950.00000	109.44399	1291.08094	109.44399
43000.00000	109.97508	1281.16167	109.97508
43050.00000	109.13027	1281.94553	109.13027
43100.00000	109.03844	1285.34014	109.03844
43150.00000	108.08492	1280.34311	108.08492
43200.00000	108.24460	1276.86443	108.24460
43250.00000	108.46979	1276.43983	108.46979
43300.00000	108.50063	1273.22631	108.50063
43350.00000	109.19250	1268.91258	109.19250
43400.00000	108.48747	1266.80689	108.48747
43450.00000	109.19707	1268.75367	109.19707
43500.00000	107.88974	1260.08077	107.88974
43550.00000	108.15275	1257.91474	108.15275
43600.00000	107.76288	1253.21738	107.76288
43650.00000	108.04931	1245.58472	108.04931
43700.00000	107.67123	1244.26683	107.67123
43750.00000	107.04352	1243.58155	107.04352
43800.00000	107.05930	1234.38211	107.05930
43850.00000	107.19391	1230.31757	107.19391
43900.00000	107.09100	1227.69529	107.09100
43950.00000	106.96345	1222.73500	106.96345
44000.00000	106.41749	1217.23514	106.41749
44050.00000	106.38338	1213.26936	106.38338
44100.00000	106.25861	1203.96600	106.25861
44150.00000	105.78892	1206.50102	105.78892
44200.00000	105.01034	1203.61459	105.01034
44250.00000	105.34878	1198.74709	105.34878
44300.00000	105.23023	1192.01582	105.23023
44350.00000	104.26800	1187.59760	104.26800
44400.00000	104.36211	1184.04434	104.36211
44450.00000	104.32891	1180.72937	104.32891
44500.00000	104.05162	1179.90877	104.05162
44550.00000	105.41259	1168.89800	105.41259
44600.00000	103.90097	1168.40206	103.90097
44650.00000	103.35771	1160.29572	103.35771
44700.00000	103.22036	1155.68380	103.22036
44750.00000	103.21600	1157.16282	103.21600
44800.00000	103.46970	1151.06548	103.46970
44850.00000	102.99038	1143.40121	102.99038
44900.00000	102.68283	1144.55426	102.68283
44950.00000	102.60941	1138.14570	102.60941
45000.00000	102.97584	1127.04492	102.97584
45050.00000	101.69995	1132.78902	101.69995
45100.00000	101.33822	1126.65481	101.33822
45150.00000	102.30767	1115.78734	102.30767
45200.00000	101.24705	1119.43219	101.24705
45250.00000	101.36680	1111.46456	101.36680
45300.00000	99.90989	1105.13221	99.90989
45350.00000	100.34102	1095.91332	100.34102
45400.00000	100.23880	1088.89774	100.23880
45450.00000	100.84173	1081.24448	100.84173
45500.00000	98.79930	1080.76273	98.79930
45550.00000	98.13601	1084.66096	98.13601
45600.00000	99.91522	1070.38726	99.91522
45650.00000	98.37005	1060.09506	98.37005
45700.00000	97.25696	1058.95107	97.25696
45750.00000	98.73864	1064.45603	98.73864
45800.00000	97.42917	1048.63084	97.42917
45850.00000	97.54427	1047.68270	97.54427
45900.00000	97.09096	1042.51205	97.09096
45950.00000	96.83875	1041.61345	96.83875
46000.00000	94.42859	1018.67184	94.42859
46050.00000	95.51859	1021.43291	95.51859
46100.00000	93.21670	1023.59275	93.21670
46150.00000	93.44360	1015.72084	93.44360
46200.00000	91.73096	1006.43954	91.73096
46250.00000	92.07942	1003.39010	92.07942
46300.00000	90.80579	997.07748	90.80579
46350.00000	91.84328	1003.37632	91.84328
46400.00000	90.09476	995.18878	90.09476
46450.00000	88.46366	992.42641	88.46366
46500.00000	89.95227	989.97307	89.95227
46550.00000	88.48699	996.69618	88.48699
46600.00000	88.57794	985.69598	88.57794
46650.00000	87.92824	980.80450	87.92824
46700.00000	86.27698	996.15780	86.27698
46750.00000	86.77125	1004.00372	86.77125
46800.00000	82.44702	989.29738	82.44702
46850.00000	85.54764	637.04146	85.54764
46900.00000	83.99128	629.99731	83.99128
46950.00000	84.48709	626.96699	84.48709
47000.00000	84.50326	640.64827	84.50326
47050.00000	85.71625	632.49824	85.71625
47100.00000	85.61852	618.13223	85.61852
47150.00000	83.65022	625.08934	83.65022
47200.00000	83.50717	612.06856	83.50717
47250.00000	86.74831	617.73118	86.74831
47300.00000	84.14193	610.68027	84.14193
47350.00000	83.94817	257.25881	83.94817
47400.00000	83.67532	257.00337	83.67532
47450.00000	83.19616	264.36432	83.19616
47500.00000	81.50582	235.33362	81.50582
47550.00000	82.62600	-96.84324	82.62600
47600.00000	81.42678	-117.24155	81.42678
47650.00000	83.82029	-107.98227	83.82029
47700.00000	81.45007	-109.69968	81.45007
47750.00000	81.30940	-113.22345	81.30940
47800.00000	82.99864	-122.98435	82.99864
47850.00000	81.23403	-468.39488	81.23403
47900.00000	84.24152	-829.96739	84.24152
47950.00000	81.89549	-837.96455	81.89549
48000.00000	82.06676	-845.03932	82.06676
48050.00000	84.83298	-842.54432	84.83298
48100.00000	83.08407	-870.10550	83.08407
48150.00000	83.73507	-1209.22451	83.73507
48200.00000	83.69819	-1204.36218	83.69819
48250.00000	82.31572	-1228.07510	82.31572
48300.00000	81.79165	-1220.39165	81.79165
48350.00000	83.83566	-1243.41823	83.83566
48400.00000	83.42787	-1581.20389	83.42787
48450.00000	83.84870	-1588.11549	83.84870
48500.00000	84.12547	-1601.62319	84.12547
48550.00000	81.13120	-1597.59709	81.13120
48600.00000	83.66141	-1954.15059	83.66141
48650.00000	83.19131	-1953.44789	83.19131
48700.00000	83.20026	-1958.99718	83.20026
48750.00000	82.35183	-2323.33225	82.35183
48800.00000	81.86634	-2331.87689	81.86634
48850.00000	82.65503	-2323.34283	82.65503
48900.00000	79.83272	-2681.40308	79.83272
48950.00000	82.72292	-2699.63836	82.72292
49000.00000	83.22370	-2705.96682	83.22370
49050.00000	81.24873	-2695.33141	81.24873
49100.00000	82.28502	-3077.36510	82.28502
49150.00000	81.92558	-3444.42291	81.92558
49200.00000	82.28210	-3439.80354	82.28210
49250.00000	86.79488	-3782.27693	86.79488
49300.00000	83.56337	-3491.89398	83.56337
49350.00000	78.03101	-3446.25392	78.03101
49400.00000	81.01167	-3091.43551	81.01167
49450.00000	77.53533	-2741.08272	77.53533
49500.00000	82.77827	-2349.42828	82.77827
49550.00000	83.68619	-2061.94269	83.68619
49600.00000	84.10334	-2054.84186	84.10334
49650.00000	83.68497	-2002.35722	83.68497
49700.00000	83.94852	-1703.68053	83.94852
49750.00000	83.27849	-1696.62543	83.27849
49800.00000	83.42843	-1685.05311	83.42843
49850.00000	81.29750	-1682.57939	81.29750
49900.00000	77.02528	-1344.81378	77.02528
49950.00000	77.17846	-1021.67071	77.17846
