---ACOUSTIC CALIBRATION---
Filename: C:\Data\AZH DATA\AZH61\RightPrimary.calib
Date: 8/27/2019 3:34:29 PM
Format: 4
Probe Tube Correction File: C:\Data\Probe Tube Calibrations\50_ProbeTube.calib
Experiment VIs: 850
EPL_CFTS.exe V12.0.1 (2012)
DAQmx V9.6

Attenuation (dB): 40.000000
Min Freq (Hz): 50.000000
Max Freq (Hz): 49950.000000
Freq Step (Hz): 50.000000
Sample Rate (Hz): 100000.000000
[Smoothing]
Method=None
MA.Iterations=0
MA.Length=0
Loess.Length=0
Loess.Type=Linear
Loess.Robust=FALSE


Freq(Hz)	Mag(dB)	Phase(deg)	Unsmoothed(dB)

50.00000	84.53739	431.35717	84.53739
100.00000	75.19481	573.65401	75.19481
150.00000	78.40309	488.69847	78.40309
200.00000	82.61247	453.02349	82.61247
250.00000	90.30484	454.36720	90.30484
300.00000	86.36565	387.46498	86.36565
350.00000	85.27715	387.42755	85.27715
400.00000	87.14643	387.08079	87.14643
450.00000	87.84131	369.52122	87.84131
500.00000	89.31244	378.84869	89.31244
550.00000	92.93670	374.08322	92.93670
600.00000	96.21531	362.45259	96.21531
650.00000	98.25037	352.49539	98.25037
700.00000	100.26206	337.32241	100.26206
750.00000	102.12121	318.25746	102.12121
800.00000	102.97975	293.38322	102.97975
850.00000	102.29877	277.76958	102.29877
900.00000	100.65727	262.28886	100.65727
950.00000	98.78097	259.00333	98.78097
1000.00000	97.46022	259.00045	97.46022
1050.00000	95.14898	274.36820	95.14898
1100.00000	97.14409	297.66520	97.14409
1150.00000	100.00674	301.27691	100.00674
1200.00000	102.69920	298.71644	102.69920
1250.00000	104.31911	290.90614	104.31911
1300.00000	106.10542	286.35313	106.10542
1350.00000	107.33491	276.28586	107.33491
1400.00000	108.19460	269.66248	108.19460
1450.00000	109.22439	262.74131	109.22439
1500.00000	110.36936	255.91071	110.36936
1550.00000	111.22963	246.55648	111.22963
1600.00000	112.60213	236.24567	112.60213
1650.00000	113.55759	220.43538	113.55759
1700.00000	112.34783	210.44654	112.34783
1750.00000	112.13844	204.79493	112.13844
1800.00000	111.91538	199.55073	111.91538
1850.00000	112.07913	198.80162	112.07913
1900.00000	113.28691	194.28365	113.28691
1950.00000	113.92370	180.81484	113.92370
2000.00000	112.99940	168.64342	112.99940
2050.00000	111.62833	172.77012	111.62833
2100.00000	113.44837	173.12247	113.44837
2150.00000	114.08472	161.20529	114.08472
2200.00000	113.96953	150.99232	113.96953
2250.00000	113.37785	144.05080	113.37785
2300.00000	113.47650	138.76546	113.47650
2350.00000	113.22609	131.94530	113.22609
2400.00000	112.92387	126.30542	112.92387
2450.00000	112.63323	119.95916	112.63323
2500.00000	112.22219	115.00157	112.22219
2550.00000	111.80947	109.47692	111.80947
2600.00000	111.27324	105.00580	111.27324
2650.00000	110.73368	101.52775	110.73368
2700.00000	110.19542	97.57427	110.19542
2750.00000	109.62595	94.40020	109.62595
2800.00000	108.99523	92.07061	108.99523
2850.00000	108.32371	90.37944	108.32371
2900.00000	107.75998	88.34421	107.75998
2950.00000	107.03034	87.14784	107.03034
3000.00000	106.27533	86.61675	106.27533
3050.00000	105.34751	86.78143	105.34751
3100.00000	104.44790	89.39990	104.44790
3150.00000	103.38648	93.05717	103.38648
3200.00000	102.45990	102.76734	102.45990
3250.00000	102.27044	114.61490	102.27044
3300.00000	102.59208	126.73783	102.59208
3350.00000	103.71270	139.36467	103.71270
3400.00000	105.70157	149.67349	105.70157
3450.00000	108.02283	153.47993	108.02283
3500.00000	110.33432	152.50294	110.33432
3550.00000	112.13743	148.12733	112.13743
3600.00000	113.75436	143.49553	113.75436
3650.00000	115.11591	137.45480	115.11591
3700.00000	116.38326	131.70734	116.38326
3750.00000	117.57496	125.03395	117.57496
3800.00000	118.60685	117.31612	118.60685
3850.00000	119.43073	109.85043	119.43073
3900.00000	120.18723	102.89031	120.18723
3950.00000	120.94946	95.81059	120.94946
4000.00000	121.64613	88.37688	121.64613
4050.00000	122.33317	80.99888	122.33317
4100.00000	123.04139	73.45781	123.04139
4150.00000	123.91405	64.99482	123.91405
4200.00000	124.48648	54.89135	124.48648
4250.00000	124.99854	44.14098	124.99854
4300.00000	125.27747	32.70129	125.27747
4350.00000	125.27820	21.18985	125.27820
4400.00000	125.07678	10.61358	125.07678
4450.00000	124.74245	 0.86541	124.74245
4500.00000	124.35641	-8.04038	124.35641
4550.00000	123.94844	-16.49618	123.94844
4600.00000	123.49370	-24.33048	123.49370
4650.00000	123.09253	-31.91255	123.09253
4700.00000	122.64408	-39.85927	122.64408
4750.00000	122.08295	-48.12615	122.08295
4800.00000	121.34011	-56.55755	121.34011
4850.00000	120.31658	-64.16428	120.31658
4900.00000	119.08009	-70.07914	119.08009
4950.00000	117.76150	-73.54416	117.76150
5000.00000	116.51949	-74.51207	116.51949
5050.00000	115.47381	-74.62649	115.47381
5100.00000	114.30335	-71.50230	114.30335
5150.00000	114.18209	-65.72540	114.18209
5200.00000	113.67211	-61.56415	113.67211
5250.00000	115.11968	-52.27890	115.11968
5300.00000	116.92470	-61.50617	116.92470
5350.00000	116.84292	-72.54391	116.84292
5400.00000	116.27752	-78.73464	116.27752
5450.00000	115.79061	-82.33724	115.79061
5500.00000	115.42027	-85.10878	115.42027
5550.00000	115.13340	-87.45855	115.13340
5600.00000	114.89747	-89.73399	114.89747
5650.00000	114.70997	-91.87454	114.70997
5700.00000	114.53444	-94.18266	114.53444
5750.00000	114.40306	-96.36230	114.40306
5800.00000	114.25974	-98.65120	114.25974
5850.00000	114.14555	-100.94885	114.14555
5900.00000	114.04702	-103.15045	114.04702
5950.00000	113.96192	-105.27552	113.96192
6000.00000	113.91125	-107.28722	113.91125
6050.00000	113.87764	-109.53216	113.87764
6100.00000	113.88330	-111.97021	113.88330
6150.00000	113.88978	-114.60878	113.88978
6200.00000	113.83993	-117.45258	113.83993
6250.00000	113.80883	-120.27006	113.80883
6300.00000	113.76615	-123.09619	113.76615
6350.00000	113.70286	-126.11127	113.70286
6400.00000	113.63002	-128.74810	113.63002
6450.00000	113.58934	-131.60729	113.58934
6500.00000	113.50896	-134.37713	113.50896
6550.00000	113.44079	-137.08611	113.44079
6600.00000	113.39979	-139.77066	113.39979
6650.00000	113.35745	-142.47850	113.35745
6700.00000	113.32189	-145.30067	113.32189
6750.00000	113.30649	-148.07686	113.30649
6800.00000	113.29210	-150.87793	113.29210
6850.00000	113.26708	-153.70924	113.26708
6900.00000	113.25643	-156.59135	113.25643
6950.00000	113.23936	-159.41727	113.23936
7000.00000	113.24480	-162.38722	113.24480
7050.00000	113.24180	-165.46601	113.24180
7100.00000	113.25667	-168.75070	113.25667
7150.00000	113.26599	-171.93140	113.26599
7200.00000	113.25552	-175.35382	113.25552
7250.00000	113.24096	-178.88643	113.24096
7300.00000	113.25539	-182.53297	113.25539
7350.00000	113.21749	-186.21989	113.21749
7400.00000	113.19884	-190.18252	113.19884
7450.00000	113.14091	-194.17037	113.14091
7500.00000	113.06634	-198.26095	113.06634
7550.00000	112.99889	-202.37688	112.99889
7600.00000	112.87245	-206.65246	112.87245
7650.00000	112.72060	-210.82789	112.72060
7700.00000	112.58286	-214.96766	112.58286
7750.00000	112.36375	-219.14390	112.36375
7800.00000	112.15201	-223.28261	112.15201
7850.00000	111.91312	-227.28518	111.91312
7900.00000	111.66453	-231.08616	111.66453
7950.00000	111.38251	-235.02108	111.38251
8000.00000	111.09077	-238.81576	111.09077
8050.00000	110.78115	-242.80195	110.78115
8100.00000	110.45524	-245.82145	110.45524
8150.00000	110.05648	-249.13071	110.05648
8200.00000	109.69442	-252.01711	109.69442
8250.00000	109.29945	-255.09361	109.29945
8300.00000	108.93214	-257.96532	108.93214
8350.00000	108.53117	-260.62981	108.53117
8400.00000	108.12443	-263.72866	108.12443
8450.00000	107.67320	-266.35016	107.67320
8500.00000	107.26590	-269.10863	107.26590
8550.00000	106.92965	-271.30621	106.92965
8600.00000	106.57117	-273.93612	106.57117
8650.00000	106.22719	-276.08067	106.22719
8700.00000	105.95262	-278.74222	105.95262
8750.00000	105.59519	-279.61729	105.59519
8800.00000	105.32693	-281.51343	105.32693
8850.00000	104.99661	-282.81719	104.99661
8900.00000	104.70703	-283.84940	104.70703
8950.00000	104.37888	-285.38736	104.37888
9000.00000	103.96225	-286.65164	103.96225
9050.00000	103.62809	-288.47586	103.62809
9100.00000	103.27492	-290.14979	103.27492
9150.00000	102.94415	-292.18280	102.94415
9200.00000	102.69813	-294.32571	102.69813
9250.00000	102.44452	-296.47290	102.44452
9300.00000	102.30293	-298.50464	102.30293
9350.00000	102.21441	-300.24147	102.21441
9400.00000	102.03726	-301.13573	102.03726
9450.00000	101.97193	-301.82562	101.97193
9500.00000	101.88752	-301.67203	101.88752
9550.00000	101.86081	-301.39237	101.86081
9600.00000	101.84932	-302.42281	101.84932
9650.00000	101.64038	-303.76453	101.64038
9700.00000	101.40868	-304.40960	101.40868
9750.00000	101.23834	-306.63715	101.23834
9800.00000	101.02905	-308.20178	101.02905
9850.00000	100.91335	-309.74194	100.91335
9900.00000	100.70162	-311.99851	100.70162
9950.00000	100.66116	-313.48770	100.66116
10000.00000	100.61484	-315.46380	100.61484
10050.00000	100.56518	-316.74863	100.56518
10100.00000	100.47561	-317.77368	100.47561
10150.00000	100.29156	-319.42016	100.29156
10200.00000	100.13868	-320.65455	100.13868
10250.00000	99.93209	-322.41630	99.93209
10300.00000	99.83623	-324.28105	99.83623
10350.00000	99.61692	-326.34779	99.61692
10400.00000	99.40914	-328.92080	99.40914
10450.00000	99.41108	-331.69573	99.41108
10500.00000	99.40939	-333.99601	99.40939
10550.00000	99.39724	-336.35176	99.39724
10600.00000	99.36170	-338.07862	99.36170
10650.00000	99.29186	-339.46095	99.29186
10700.00000	99.22551	-341.82012	99.22551
10750.00000	99.14146	-343.68947	99.14146
10800.00000	98.94832	-345.47007	98.94832
10850.00000	98.77300	-348.45886	98.77300
10900.00000	98.62378	-350.62599	98.62378
10950.00000	98.47212	-352.76196	98.47212
11000.00000	98.34042	-355.06100	98.34042
11050.00000	98.06798	-357.24575	98.06798
11100.00000	97.88959	-359.66064	97.88959
11150.00000	97.61064	-361.28979	97.61064
11200.00000	97.44589	-363.02541	97.44589
11250.00000	97.13178	-365.12061	97.13178
11300.00000	96.79981	-367.20913	96.79981
11350.00000	96.54784	-368.72114	96.54784
11400.00000	96.19083	-370.45159	96.19083
11450.00000	95.99863	-372.67632	95.99863
11500.00000	95.89550	-373.66823	95.89550
11550.00000	95.60791	-374.88428	95.60791
11600.00000	95.51075	-376.84419	95.51075
11650.00000	95.26450	-377.10934	95.26450
11700.00000	95.11823	-378.08639	95.11823
11750.00000	94.97892	-379.24258	94.97892
11800.00000	94.84233	-380.83437	94.84233
11850.00000	94.78591	-381.12847	94.78591
11900.00000	94.49956	-382.76707	94.49956
11950.00000	94.43826	-383.70361	94.43826
12000.00000	94.26785	-384.56934	94.26785
12050.00000	94.02297	-385.71488	94.02297
12100.00000	93.93645	-388.12635	93.93645
12150.00000	93.79087	-389.98297	93.79087
12200.00000	93.76826	-392.07397	93.76826
12250.00000	93.69316	-393.37332	93.69316
12300.00000	94.73129	-395.20287	94.73129
12350.00000	93.45939	-396.59266	93.45939
12400.00000	93.29785	-397.35144	93.29785
12450.00000	93.05569	-398.65303	93.05569
12500.00000	92.82838	-401.02290	92.82838
12550.00000	92.60587	-402.88750	92.60587
12600.00000	92.36173	-405.45268	92.36173
12650.00000	92.33758	-407.31561	92.33758
12700.00000	92.06113	-409.11504	92.06113
12750.00000	91.79160	-410.83656	91.79160
12800.00000	91.49819	-411.68792	91.49819
12850.00000	90.91556	-412.78899	90.91556
12900.00000	90.69084	-414.88117	90.69084
12950.00000	90.48359	-416.62269	90.48359
13000.00000	90.14261	-418.64851	90.14261
13050.00000	89.86494	-418.36985	89.86494
13100.00000	89.45092	-419.22427	89.45092
13150.00000	89.15503	-420.38162	89.15503
13200.00000	88.80017	-419.67585	88.80017
13250.00000	88.42136	-420.15452	88.42136
13300.00000	88.05932	-418.33913	88.05932
13350.00000	87.84068	-418.56872	87.84068
13400.00000	87.73166	-418.38242	87.73166
13450.00000	87.28795	-417.18660	87.28795
13500.00000	87.15390	-416.09578	87.15390
13550.00000	86.74706	-415.31699	86.74706
13600.00000	86.56177	-414.18853	86.56177
13650.00000	86.50940	-412.98526	86.50940
13700.00000	86.09645	-412.96126	86.09645
13750.00000	85.87669	-411.89943	85.87669
13800.00000	85.69551	-412.99116	85.69551
13850.00000	85.61922	-412.95066	85.61922
13900.00000	85.49248	-411.80458	85.49248
13950.00000	85.53057	-409.45356	85.53057
14000.00000	85.65198	-407.15364	85.65198
14050.00000	85.63569	-406.12257	85.63569
14100.00000	85.30062	-404.78908	85.30062
14150.00000	85.39426	-404.03242	85.39426
14200.00000	85.68613	-402.89888	85.68613
14250.00000	86.05409	-399.17098	86.05409
14300.00000	86.18113	-398.82579	86.18113
14350.00000	86.26455	-395.43137	86.26455
14400.00000	86.00213	-394.99082	86.00213
14450.00000	86.12724	-392.08972	86.12724
14500.00000	86.20475	-393.20668	86.20475
14550.00000	86.55412	-392.17346	86.55412
14600.00000	86.50987	-393.04887	86.50987
14650.00000	87.14672	-390.17880	87.14672
14700.00000	87.41605	-392.62947	87.41605
14750.00000	87.74212	-390.35679	87.74212
14800.00000	87.84991	-388.85266	87.84991
14850.00000	88.26007	-388.71643	88.26007
14900.00000	88.56002	-388.79041	88.56002
14950.00000	88.99348	-389.53937	88.99348
15000.00000	89.57361	-389.49004	89.57361
15050.00000	89.70955	-387.96208	89.70955
15100.00000	90.03228	-386.35553	90.03228
15150.00000	90.40159	-387.25407	90.40159
15200.00000	90.49938	-386.94990	90.49938
15250.00000	90.75894	-389.22244	90.75894
15300.00000	91.41400	-389.69252	91.41400
15350.00000	91.85815	-390.66564	91.85815
15400.00000	92.15137	-389.69484	92.15137
15450.00000	92.49952	-390.42763	92.49952
15500.00000	92.93889	-391.33004	92.93889
15550.00000	93.37884	-393.20263	93.37884
15600.00000	93.72448	-394.87484	93.72448
15650.00000	94.31586	-394.45593	94.31586
15700.00000	94.60219	-396.85755	94.60219
15750.00000	95.19315	-397.26900	95.19315
15800.00000	95.62196	-398.04488	95.62196
15850.00000	95.91073	-399.75197	95.91073
15900.00000	96.25460	-402.15020	96.25460
15950.00000	96.78330	-404.47670	96.78330
16000.00000	97.23300	-406.57636	97.23300
16050.00000	97.73076	-408.96251	97.73076
16100.00000	97.97197	-411.92801	97.97197
16150.00000	98.33044	-413.97709	98.33044
16200.00000	98.59937	-417.33908	98.59937
16250.00000	98.91964	-419.94378	98.91964
16300.00000	99.43972	-423.08910	99.43972
16350.00000	99.77628	-426.19669	99.77628
16400.00000	100.04216	-428.45395	100.04216
16450.00000	100.32065	-431.43878	100.32065
16500.00000	100.50715	-434.44212	100.50715
16550.00000	100.76976	-438.13764	100.76976
16600.00000	101.03067	-440.98827	101.03067
16650.00000	101.15363	-444.07255	101.15363
16700.00000	101.41917	-446.71912	101.41917
16750.00000	101.52523	-450.05419	101.52523
16800.00000	101.72021	-453.30444	101.72021
16850.00000	101.97252	-456.28352	101.97252
16900.00000	102.11280	-459.40778	102.11280
16950.00000	102.30004	-462.19570	102.30004
17000.00000	102.30675	-465.19641	102.30675
17050.00000	102.54381	-467.41966	102.54381
17100.00000	102.60251	-469.21342	102.60251
17150.00000	102.88208	-472.97919	102.88208
17200.00000	103.01185	-475.76192	103.01185
17250.00000	103.12029	-479.16252	103.12029
17300.00000	103.37549	-481.76957	103.37549
17350.00000	103.35822	-484.21942	103.35822
17400.00000	103.55924	-487.11189	103.55924
17450.00000	103.60842	-490.77631	103.60842
17500.00000	103.80658	-493.58787	103.80658
17550.00000	103.94233	-496.65615	103.94233
17600.00000	104.17319	-499.26053	104.17319
17650.00000	104.26280	-503.03587	104.26280
17700.00000	104.34334	-506.28808	104.34334
17750.00000	104.56987	-508.94726	104.56987
17800.00000	104.55122	-512.65031	104.55122
17850.00000	104.68334	-515.41586	104.68334
17900.00000	104.73606	-518.76308	104.73606
17950.00000	104.89322	-522.29929	104.89322
18000.00000	104.93349	-525.94084	104.93349
18050.00000	105.10748	-528.73640	105.10748
18100.00000	105.11155	-532.58677	105.11155
18150.00000	105.14292	-535.32547	105.14292
18200.00000	105.09602	-539.14359	105.09602
18250.00000	105.21134	-541.84653	105.21134
18300.00000	105.28525	-545.13959	105.28525
18350.00000	105.27923	-548.20793	105.27923
18400.00000	105.26153	-551.72038	105.26153
18450.00000	105.23259	-556.07583	105.23259
18500.00000	105.21148	-559.06674	105.21148
18550.00000	105.19605	-561.62706	105.19605
18600.00000	105.28854	-565.21985	105.28854
18650.00000	105.12187	-568.14573	105.12187
18700.00000	105.08587	-571.67435	105.08587
18750.00000	105.08461	-574.56788	105.08461
18800.00000	105.15336	-577.05593	105.15336
18850.00000	104.98366	-580.30605	104.98366
18900.00000	104.91687	-583.15679	104.91687
18950.00000	104.89097	-586.44614	104.89097
19000.00000	104.70258	-588.86756	104.70258
19050.00000	104.78563	-591.83622	104.78563
19100.00000	104.67795	-594.29613	104.67795
19150.00000	104.77624	-596.89264	104.77624
19200.00000	104.70915	-599.17619	104.70915
19250.00000	104.62006	-602.98862	104.62006
19300.00000	104.53048	-605.07301	104.53048
19350.00000	104.49312	-607.65058	104.49312
19400.00000	104.43340	-610.17577	104.43340
19450.00000	104.47696	-612.35148	104.47696
19500.00000	104.34798	-615.78867	104.34798
19550.00000	104.33171	-618.18830	104.33171
19600.00000	104.36413	-621.36947	104.36413
19650.00000	104.27875	-623.54968	104.27875
19700.00000	104.14473	-626.29387	104.14473
19750.00000	104.07782	-628.38169	104.07782
19800.00000	104.13564	-631.86874	104.13564
19850.00000	104.10791	-634.14515	104.10791
19900.00000	103.99382	-637.61693	103.99382
19950.00000	103.90568	-640.16004	103.90568
20000.00000	103.85985	-642.63725	103.85985
20050.00000	103.80238	-645.30354	103.80238
20100.00000	103.65213	-647.96101	103.65213
20150.00000	103.62124	-649.73560	103.62124
20200.00000	103.48713	-652.99403	103.48713
20250.00000	103.34524	-655.47173	103.34524
20300.00000	103.16670	-657.86460	103.16670
20350.00000	103.10827	-660.59313	103.10827
20400.00000	102.92723	-662.11933	102.92723
20450.00000	102.70491	-664.43750	102.70491
20500.00000	102.62516	-666.91029	102.62516
20550.00000	102.26445	-668.02635	102.26445
20600.00000	102.19877	-669.70270	102.19877
20650.00000	102.07419	-671.39829	102.07419
20700.00000	101.85316	-672.73232	101.85316
20750.00000	101.78945	-673.98215	101.78945
20800.00000	101.61672	-674.84103	101.61672
20850.00000	101.56486	-675.92464	101.56486
20900.00000	101.43298	-676.75846	101.43298
20950.00000	101.36419	-676.93480	101.36419
21000.00000	101.35390	-677.44645	101.35390
21050.00000	101.50433	-677.73278	101.50433
21100.00000	101.54479	-678.00472	101.54479
21150.00000	101.74134	-678.92016	101.74134
21200.00000	101.92823	-679.49626	101.92823
21250.00000	102.11343	-681.59067	102.11343
21300.00000	102.38691	-682.52654	102.38691
21350.00000	102.57318	-684.05641	102.57318
21400.00000	102.77112	-686.46407	102.77112
21450.00000	103.00333	-688.77252	103.00333
21500.00000	103.19534	-691.55251	103.19534
21550.00000	103.25058	-693.92899	103.25058
21600.00000	103.45685	-696.90006	103.45685
21650.00000	103.51570	-699.98896	103.51570
21700.00000	103.58390	-702.52411	103.58390
21750.00000	103.63872	-705.57496	103.63872
21800.00000	103.68051	-708.52160	103.68051
21850.00000	103.61537	-711.22124	103.61537
21900.00000	103.66048	-714.05512	103.66048
21950.00000	103.57309	-716.43236	103.57309
22000.00000	103.61928	-719.08218	103.61928
22050.00000	103.55200	-721.14064	103.55200
22100.00000	103.49369	-723.75124	103.49369
22150.00000	103.41370	-726.07498	103.41370
22200.00000	103.45634	-728.36959	103.45634
22250.00000	103.38063	-730.20060	103.38063
22300.00000	103.23489	-732.51886	103.23489
22350.00000	103.31885	-734.73372	103.31885
22400.00000	103.29690	-737.11526	103.29690
22450.00000	103.22134	-738.78947	103.22134
22500.00000	103.11327	-740.26220	103.11327
22550.00000	103.11337	-742.44247	103.11337
22600.00000	103.06423	-745.13376	103.06423
22650.00000	103.06194	-747.60484	103.06194
22700.00000	103.03271	-749.25095	103.03271
22750.00000	102.98075	-749.58437	102.98075
22800.00000	102.99853	-753.43627	102.99853
22850.00000	103.00605	-756.22822	103.00605
22900.00000	103.04841	-756.99910	103.04841
22950.00000	102.99687	-758.99822	102.99687
23000.00000	102.95704	-760.05022	102.95704
23050.00000	102.91498	-763.09096	102.91498
23100.00000	103.04308	-764.02818	103.04308
23150.00000	102.82167	-765.63010	102.82167
23200.00000	102.98367	-768.88590	102.98367
23250.00000	102.84828	-771.56177	102.84828
23300.00000	103.05047	-773.92953	103.05047
23350.00000	102.80430	-775.87875	102.80430
23400.00000	102.77330	-778.04285	102.77330
23450.00000	102.89188	-780.40236	102.89188
23500.00000	102.76322	-782.03887	102.76322
23550.00000	102.69304	-782.51730	102.69304
23600.00000	102.64179	-786.45980	102.64179
23650.00000	102.70892	-787.88733	102.70892
23700.00000	102.78171	-792.29608	102.78171
23750.00000	102.71038	-793.02138	102.71038
23800.00000	102.50715	-794.21858	102.50715
23850.00000	102.65402	-795.52675	102.65402
23900.00000	103.00585	-798.28493	103.00585
23950.00000	102.69030	-800.85179	102.69030
24000.00000	102.49207	-804.28402	102.49207
24050.00000	102.57965	-804.14559	102.57965
24100.00000	102.82650	-808.71760	102.82650
24150.00000	102.81385	-810.67423	102.81385
24200.00000	102.77131	-814.39569	102.77131
24250.00000	102.46680	-815.04078	102.46680
24300.00000	102.84993	-818.01254	102.84993
24350.00000	102.64617	-820.46733	102.64617
24400.00000	102.62269	-823.92280	102.62269
24450.00000	102.21831	-825.35195	102.21831
24500.00000	102.61859	-827.17385	102.61859
24550.00000	102.46533	-832.37014	102.46533
24600.00000	102.84929	-833.00204	102.84929
24650.00000	102.43057	-476.89968	102.43057
24700.00000	102.33703	-117.41686	102.33703
24750.00000	102.34586	238.10000	102.34586
24800.00000	102.24024	595.85635	102.24024
24850.00000	101.88370	954.47992	101.88370
24900.00000	101.75088	1315.22662	101.75088
24950.00000	101.89080	1668.79261	101.89080
25000.00000	101.92846	1661.26930	101.92846
25050.00000	102.05640	1661.44707	102.05640
25100.00000	101.33753	1658.98548	101.33753
25150.00000	101.54117	1659.55820	101.54117
25200.00000	101.25313	1655.76479	101.25313
25250.00000	101.42981	1655.21333	101.42981
25300.00000	101.34874	1653.14897	101.34874
25350.00000	101.31337	1647.81272	101.31337
25400.00000	101.19027	1643.37564	101.19027
25450.00000	101.25125	1644.37900	101.25125
25500.00000	101.00356	1642.55009	101.00356
25550.00000	100.89330	1638.84037	100.89330
25600.00000	100.99813	1637.07210	100.99813
25650.00000	100.82769	1637.25015	100.82769
25700.00000	100.86015	1633.33516	100.86015
25750.00000	100.67106	1631.28593	100.67106
25800.00000	100.56450	1628.16519	100.56450
25850.00000	100.37470	1626.48599	100.37470
25900.00000	100.38007	1622.37539	100.38007
25950.00000	100.15819	1623.99970	100.15819
26000.00000	100.14560	1619.81502	100.14560
26050.00000	100.21031	1618.38619	100.21031
26100.00000	100.05863	1616.58674	100.05863
26150.00000	100.09036	1614.22776	100.09036
26200.00000	100.12166	1612.48481	100.12166
26250.00000	99.91250	1609.47140	99.91250
26300.00000	100.02530	1606.80019	100.02530
26350.00000	99.60133	1606.08874	99.60133
26400.00000	99.57382	1604.28947	99.57382
26450.00000	99.91397	1600.27812	99.91397
26500.00000	99.58024	1598.72746	99.58024
26550.00000	99.51187	1593.37414	99.51187
26600.00000	99.30252	1592.50278	99.30252
26650.00000	99.49523	1592.87301	99.49523
26700.00000	99.40540	1590.14783	99.40540
26750.00000	99.14864	1586.97480	99.14864
26800.00000	98.98559	1582.89160	98.98559
26850.00000	99.34489	1582.61016	99.34489
26900.00000	99.19364	1581.53883	99.19364
26950.00000	99.20964	1577.79039	99.20964
27000.00000	98.68840	1576.95127	98.68840
27050.00000	99.04645	1574.48411	99.04645
27100.00000	98.57617	1572.85211	98.57617
27150.00000	98.54960	1569.52844	98.54960
27200.00000	98.42005	1568.13807	98.42005
27250.00000	98.05053	1567.81815	98.05053
27300.00000	97.76314	1564.41885	97.76314
27350.00000	97.83815	1564.73409	97.83815
27400.00000	97.57147	1562.64723	97.57147
27450.00000	97.38511	1561.37809	97.38511
27500.00000	97.32218	1560.45725	97.32218
27550.00000	97.21148	1558.80862	97.21148
27600.00000	97.42627	1555.94919	97.42627
27650.00000	96.81354	1556.93885	96.81354
27700.00000	96.93097	1553.51294	96.93097
27750.00000	96.86577	1552.71399	96.86577
27800.00000	96.85965	1549.35170	96.85965
27850.00000	97.09625	1551.42711	97.09625
27900.00000	96.50724	1549.77913	96.50724
27950.00000	96.00065	1548.52479	96.00065
28000.00000	96.04361	1549.33193	96.04361
28050.00000	96.57918	1545.60611	96.57918
28100.00000	96.01877	1545.33531	96.01877
28150.00000	96.02255	1546.25445	96.02255
28200.00000	96.24551	1541.24908	96.24551
28250.00000	95.89772	1539.67066	95.89772
28300.00000	95.61355	1541.43642	95.61355
28350.00000	95.99338	1540.34709	95.99338
28400.00000	95.97430	1541.50145	95.97430
28450.00000	96.37576	1538.60765	96.37576
28500.00000	95.94367	1539.25676	95.94367
28550.00000	96.04656	1541.05039	96.04656
28600.00000	96.05010	1540.11940	96.05010
28650.00000	96.42631	1536.47692	96.42631
28700.00000	96.25863	1537.50396	96.25863
28750.00000	96.96093	1538.21860	96.96093
28800.00000	96.73634	1536.13770	96.73634
28850.00000	96.30705	1532.76858	96.30705
28900.00000	96.60305	1531.99980	96.60305
28950.00000	96.62237	1532.22043	96.62237
29000.00000	96.92445	1531.22021	96.92445
29050.00000	96.65676	1531.38970	96.65676
29100.00000	96.94850	1531.63699	96.94850
29150.00000	96.85366	1530.09106	96.85366
29200.00000	96.82574	1527.58910	96.82574
29250.00000	97.31808	1527.90566	97.31808
29300.00000	97.04790	1525.68301	97.04790
29350.00000	97.76330	1524.07295	97.76330
29400.00000	97.56842	1522.28293	97.56842
29450.00000	97.54805	1520.78854	97.54805
29500.00000	97.96877	1520.73192	97.96877
29550.00000	97.89604	1516.50720	97.89604
29600.00000	97.72631	1517.13311	97.72631
29650.00000	98.00809	1514.05994	98.00809
29700.00000	97.86168	1514.38109	97.86168
29750.00000	98.00371	1514.55915	98.00371
29800.00000	97.82114	1511.11834	97.82114
29850.00000	97.99294	1509.22945	97.99294
29900.00000	98.35569	1509.51958	98.35569
29950.00000	97.62559	1508.60661	97.62559
30000.00000	98.09498	1508.42860	98.09498
30050.00000	98.14230	1506.68717	98.14230
30100.00000	97.89038	1506.54637	97.89038
30150.00000	98.18415	1502.98005	98.18415
30200.00000	98.13951	1501.41814	98.13951
30250.00000	97.90578	1501.26308	97.90578
30300.00000	97.70449	1502.08098	97.70449
30350.00000	97.85655	1503.12102	97.85655
30400.00000	97.94057	1501.41257	97.94057
30450.00000	97.65425	1501.26627	97.65425
30500.00000	97.76227	1500.71205	97.76227
30550.00000	97.78798	1502.08758	97.78798
30600.00000	97.82447	1502.98892	97.82447
30650.00000	97.96004	1503.28362	97.96004
30700.00000	98.16669	1502.41439	98.16669
30750.00000	98.02072	1504.89399	98.02072
30800.00000	98.25180	1505.39491	98.25180
30850.00000	98.67558	1507.28602	98.67558
30900.00000	98.63320	1509.04730	98.63320
30950.00000	99.21835	1508.59202	99.21835
31000.00000	99.58481	1508.20177	99.58481
31050.00000	100.04290	1509.99686	100.04290
31100.00000	100.66340	1510.33552	100.66340
31150.00000	100.86570	1510.58227	100.86570
31200.00000	101.80414	1510.02512	101.80414
31250.00000	102.29224	1509.22960	102.29224
31300.00000	102.84212	1508.45759	102.84212
31350.00000	103.57473	1507.24335	103.57473
31400.00000	103.96989	1504.22682	103.96989
31450.00000	104.68849	1502.59477	104.68849
31500.00000	105.22742	1499.14201	105.22742
31550.00000	105.84250	1497.00169	105.84250
31600.00000	106.52488	1492.83030	106.52488
31650.00000	106.98080	1489.23284	106.98080
31700.00000	107.50747	1486.25944	107.50747
31750.00000	108.04502	1483.72339	108.04502
31800.00000	108.42953	1478.68822	108.42953
31850.00000	108.92257	1473.74750	108.92257
31900.00000	109.16601	1470.18475	109.16601
31950.00000	109.59407	1465.79304	109.59407
32000.00000	109.95259	1461.23571	109.95259
32050.00000	110.36254	1457.08637	110.36254
32100.00000	110.54040	1451.78691	110.54040
32150.00000	110.79756	1448.26965	110.79756
32200.00000	111.18616	1442.94109	111.18616
32250.00000	111.27720	1437.90157	111.27720
32300.00000	111.50262	1433.59317	111.50262
32350.00000	111.64773	1429.64870	111.64773
32400.00000	111.84042	1425.32838	111.84042
32450.00000	111.90684	1420.44016	111.90684
32500.00000	112.14635	1416.59344	112.14635
32550.00000	112.32398	1411.13548	112.32398
32600.00000	112.39682	1407.31244	112.39682
32650.00000	112.55641	1402.26046	112.55641
32700.00000	112.48026	1397.61943	112.48026
32750.00000	112.57415	1392.93479	112.57415
32800.00000	112.81196	1389.13865	112.81196
32850.00000	112.80117	1384.38160	112.80117
32900.00000	112.73452	1379.15002	112.73452
32950.00000	112.70376	1373.93926	112.70376
33000.00000	112.72093	1371.00913	112.72093
33050.00000	112.58911	1365.57589	112.58911
33100.00000	112.66028	1361.40003	112.66028
33150.00000	112.59154	1357.33385	112.59154
33200.00000	112.59814	1354.01217	112.59814
33250.00000	112.38510	1349.80790	112.38510
33300.00000	112.29047	1344.48777	112.29047
33350.00000	112.10326	1340.32813	112.10326
33400.00000	111.97042	1337.00400	111.97042
33450.00000	111.80890	1332.19612	111.80890
33500.00000	111.80780	1329.80848	111.80780
33550.00000	111.32819	1324.72906	111.32819
33600.00000	111.43390	1321.71827	111.43390
33650.00000	111.10673	1318.26202	111.10673
33700.00000	110.90740	1315.17405	110.90740
33750.00000	110.65115	1311.45244	110.65115
33800.00000	110.48944	1308.19388	110.48944
33850.00000	110.08455	1306.16746	110.08455
33900.00000	110.09478	1302.04132	110.09478
33950.00000	109.83545	1299.56979	109.83545
34000.00000	109.63654	1296.63156	109.63654
34050.00000	109.34016	1294.07476	109.34016
34100.00000	108.97503	1292.15551	108.97503
34150.00000	108.82299	1289.22238	108.82299
34200.00000	108.61044	1288.65214	108.61044
34250.00000	108.29364	1285.38327	108.29364
34300.00000	108.19057	1283.98925	108.19057
34350.00000	108.00242	1281.95507	108.00242
34400.00000	107.55345	1281.71372	107.55345
34450.00000	107.39913	1277.32991	107.39913
34500.00000	107.14227	1277.16914	107.14227
34550.00000	107.03099	1275.75987	107.03099
34600.00000	106.60052	1273.64916	106.60052
34650.00000	106.89865	1275.18980	106.89865
34700.00000	106.23171	1275.41762	106.23171
34750.00000	106.34307	1269.40950	106.34307
34800.00000	106.36682	1272.57106	106.36682
34850.00000	106.46360	1272.49579	106.46360
34900.00000	106.47722	1269.44103	106.47722
34950.00000	105.99497	1270.94320	105.99497
35000.00000	106.19045	1270.13557	106.19045
35050.00000	106.35570	1269.66307	106.35570
35100.00000	106.39319	1267.58047	106.39319
35150.00000	106.25782	1268.17793	106.25782
35200.00000	106.44858	1264.99098	106.44858
35250.00000	106.37656	1264.59341	106.37656
35300.00000	106.45101	1264.02366	106.45101
35350.00000	106.69531	1262.62181	106.69531
35400.00000	106.67945	1261.30824	106.67945
35450.00000	106.92871	1260.19598	106.92871
35500.00000	106.46873	1259.26946	106.46873
35550.00000	107.04202	1259.54595	107.04202
35600.00000	107.07614	1256.26672	107.07614
35650.00000	107.20612	1256.14931	107.20612
35700.00000	107.25500	1254.34408	107.25500
35750.00000	107.20724	1254.22087	107.20724
35800.00000	107.42693	1252.49826	107.42693
35850.00000	107.69110	1250.27426	107.69110
35900.00000	107.75280	1248.36278	107.75280
35950.00000	108.09307	1246.29954	108.09307
36000.00000	107.98613	1245.39985	107.98613
36050.00000	108.10209	1243.56060	108.10209
36100.00000	108.25371	1240.74951	108.25371
36150.00000	108.14774	1239.63510	108.14774
36200.00000	108.17614	1237.94420	108.17614
36250.00000	108.18661	1235.62671	108.18661
36300.00000	108.22599	1235.55497	108.22599
36350.00000	108.51299	1233.89509	108.51299
36400.00000	108.73898	1233.56645	108.73898
36450.00000	108.89387	1229.95362	108.89387
36500.00000	109.05768	1227.61337	109.05768
36550.00000	108.87069	1225.69901	108.87069
36600.00000	108.97049	1225.17925	108.97049
36650.00000	109.10787	1223.42198	109.10787
36700.00000	109.36792	1220.54159	109.36792
36750.00000	109.42913	1217.37748	109.42913
36800.00000	109.39881	1216.43859	109.39881
36850.00000	109.32956	1213.54247	109.32956
36900.00000	109.59457	1212.19357	109.59457
36950.00000	109.69244	1209.58191	109.69244
37000.00000	109.38317	1207.36705	109.38317
37050.00000	109.47229	1206.67483	109.47229
37100.00000	109.76888	1204.69359	109.76888
37150.00000	109.80704	1202.18095	109.80704
37200.00000	110.41373	1202.45149	110.41373
37250.00000	110.03888	1199.13229	110.03888
37300.00000	110.27753	1197.20623	110.27753
37350.00000	110.69709	1193.88532	110.69709
37400.00000	110.52860	1192.29456	110.52860
37450.00000	110.63203	1191.02306	110.63203
37500.00000	111.20191	1187.55388	111.20191
37550.00000	110.91082	1185.44743	110.91082
37600.00000	111.08041	1185.37851	111.08041
37650.00000	111.33377	1182.75668	111.33377
37700.00000	111.69500	1179.37368	111.69500
37750.00000	111.99812	1178.99845	111.99812
37800.00000	112.12191	1176.02045	112.12191
37850.00000	112.46977	1172.05737	112.46977
37900.00000	112.69696	1169.26495	112.69696
37950.00000	112.99226	1167.54787	112.99226
38000.00000	113.14662	1165.08282	113.14662
38050.00000	113.64877	1161.51854	113.64877
38100.00000	113.89705	1158.02779	113.89705
38150.00000	114.19240	1154.23890	114.19240
38200.00000	114.54408	1149.50571	114.54408
38250.00000	114.78840	1146.73136	114.78840
38300.00000	115.11762	1141.98750	115.11762
38350.00000	115.30707	1139.01453	115.30707
38400.00000	115.60091	1134.84646	115.60091
38450.00000	115.80812	1130.55984	115.80812
38500.00000	116.18602	1126.22746	116.18602
38550.00000	116.54941	1122.11680	116.54941
38600.00000	116.82346	1117.64241	116.82346
38650.00000	117.01343	1112.26457	117.01343
38700.00000	117.16209	1107.59473	117.16209
38750.00000	117.43599	1103.01755	117.43599
38800.00000	117.67434	1098.00923	117.67434
38850.00000	117.84558	1092.74084	117.84558
38900.00000	118.05671	1087.39374	118.05671
38950.00000	118.08861	1081.85177	118.08861
39000.00000	118.24720	1076.73174	118.24720
39050.00000	118.31501	1071.23111	118.31501
39100.00000	118.29941	1066.22125	118.29941
39150.00000	118.27065	1061.00794	118.27065
39200.00000	118.29272	1055.82929	118.29272
39250.00000	118.27063	1050.52552	118.27063
39300.00000	118.25177	1045.58392	118.25177
39350.00000	118.20294	1040.73406	118.20294
39400.00000	118.10182	1035.29277	118.10182
39450.00000	117.96732	1030.96373	117.96732
39500.00000	117.92207	1025.67070	117.92207
39550.00000	117.70662	1020.48918	117.70662
39600.00000	117.42300	1015.21740	117.42300
39650.00000	117.28628	1011.45137	117.28628
39700.00000	116.99138	1006.91418	116.99138
39750.00000	116.79724	1002.21802	116.79724
39800.00000	116.52505	997.89709	116.52505
39850.00000	116.16559	994.01607	116.16559
39900.00000	115.91188	990.33058	115.91188
39950.00000	115.62114	986.91236	115.62114
40000.00000	115.16202	984.45020	115.16202
40050.00000	114.99110	979.89021	114.99110
40100.00000	114.68700	976.87117	114.68700
40150.00000	114.33995	974.28502	114.33995
40200.00000	114.08304	971.24971	114.08304
40250.00000	113.71879	968.80631	113.71879
40300.00000	113.45567	966.25224	113.45567
40350.00000	113.03522	963.76259	113.03522
40400.00000	112.68773	961.74390	112.68773
40450.00000	112.49266	959.59275	112.49266
40500.00000	112.26188	958.50588	112.26188
40550.00000	111.95777	955.76571	111.95777
40600.00000	111.63444	955.09496	111.63444
40650.00000	111.35512	953.99787	111.35512
40700.00000	110.96244	953.33928	110.96244
40750.00000	110.95774	951.48210	110.95774
40800.00000	110.67373	949.98821	110.67373
40850.00000	110.45868	949.97633	110.45868
40900.00000	110.24774	948.43578	110.24774
40950.00000	109.91509	948.77035	109.91509
41000.00000	109.67411	948.22225	109.67411
41050.00000	109.65949	947.87634	109.65949
41100.00000	109.60641	946.74930	109.60641
41150.00000	109.56526	948.15300	109.56526
41200.00000	109.66333	947.01502	109.66333
41250.00000	109.36360	945.19026	109.36360
41300.00000	109.27689	946.24431	109.27689
41350.00000	109.35339	946.52327	109.35339
41400.00000	109.21530	941.96103	109.21530
41450.00000	109.53493	944.29025	109.53493
41500.00000	109.25160	943.79469	109.25160
41550.00000	109.26863	947.03918	109.26863
41600.00000	108.81054	943.75712	108.81054
41650.00000	109.37546	942.95029	109.37546
41700.00000	109.63599	942.81325	109.63599
41750.00000	109.33500	946.23628	109.33500
41800.00000	108.51565	940.79224	108.51565
41850.00000	108.67726	942.43959	108.67726
41900.00000	108.62834	940.73548	108.62834
41950.00000	109.71326	944.26464	109.71326
42000.00000	108.93370	938.03598	108.93370
42050.00000	108.00921	936.09395	108.00921
42100.00000	108.74662	936.87211	108.74662
42150.00000	108.05696	930.18325	108.05696
42200.00000	108.10727	939.38378	108.10727
42250.00000	108.12427	935.07914	108.12427
42300.00000	107.49747	931.08582	107.49747
42350.00000	107.60690	932.52963	107.60690
42400.00000	107.68596	930.03354	107.68596
42450.00000	108.29194	928.20351	108.29194
42500.00000	107.46924	926.41782	107.46924
42550.00000	107.66114	933.80865	107.66114
42600.00000	107.40258	924.94901	107.40258
42650.00000	107.19045	925.14392	107.19045
42700.00000	107.15403	922.43707	107.15403
42750.00000	107.75821	919.35491	107.75821
42800.00000	107.55085	912.70332	107.55085
42850.00000	107.06009	909.41933	107.06009
42900.00000	108.41035	913.74171	108.41035
42950.00000	107.21672	909.03467	107.21672
43000.00000	108.27015	896.73742	108.27015
43050.00000	107.39209	898.16325	107.39209
43100.00000	107.75291	901.11913	107.75291
43150.00000	107.07432	893.15885	107.07432
43200.00000	107.66719	889.32180	107.66719
43250.00000	108.04678	885.77196	108.04678
43300.00000	108.11462	883.40390	108.11462
43350.00000	109.02065	878.86057	109.02065
43400.00000	108.51768	875.78297	108.51768
43450.00000	109.18901	874.67338	109.18901
43500.00000	108.07032	863.85108	108.07032
43550.00000	108.71023	862.90270	108.71023
43600.00000	108.67058	858.97680	108.67058
43650.00000	109.27615	849.39520	109.27615
43700.00000	108.96491	849.38447	108.96491
43750.00000	108.78081	849.32165	108.78081
43800.00000	109.20030	839.80451	109.20030
43850.00000	109.63814	834.99631	109.63814
43900.00000	109.92557	832.94460	109.92557
43950.00000	109.94725	825.86735	109.94725
44000.00000	109.34498	822.35672	109.34498
44050.00000	109.66969	817.82096	109.66969
44100.00000	110.00923	805.88306	110.00923
44150.00000	109.86916	808.67528	109.86916
44200.00000	109.87224	807.25535	109.87224
44250.00000	110.22114	799.77771	110.22114
44300.00000	110.43127	792.78555	110.43127
44350.00000	109.31404	788.45242	109.31404
44400.00000	110.22078	784.70630	110.22078
44450.00000	110.42327	782.64439	110.42327
44500.00000	110.00164	777.41220	110.00164
44550.00000	111.15034	768.23344	111.15034
44600.00000	110.14489	769.59552	110.14489
44650.00000	109.69173	760.89588	109.69173
44700.00000	109.71918	757.17754	109.71918
44750.00000	109.56823	756.87456	109.56823
44800.00000	110.30112	748.75088	110.30112
44850.00000	109.75782	743.41517	109.75782
44900.00000	109.23352	741.16003	109.23352
44950.00000	109.59755	735.71872	109.59755
45000.00000	109.41104	727.13071	109.41104
45050.00000	107.98460	732.64271	107.98460
45100.00000	108.39464	725.97945	108.39464
45150.00000	108.68882	713.44773	108.68882
45200.00000	107.92749	717.37253	107.92749
45250.00000	107.96309	712.47921	107.96309
45300.00000	107.66184	708.26667	107.66184
45350.00000	107.39589	701.32966	107.39589
45400.00000	106.98898	697.77793	106.98898
45450.00000	106.97179	692.99845	106.97179
45500.00000	105.49029	688.02165	105.49029
45550.00000	105.47693	689.93421	105.47693
45600.00000	106.22839	679.71032	106.22839
45650.00000	104.45713	674.98206	104.45713
45700.00000	104.33006	676.82352	104.33006
45750.00000	105.24446	678.15261	105.24446
45800.00000	103.80151	667.83826	103.80151
45850.00000	103.82778	667.20743	103.82778
45900.00000	103.35152	664.76293	103.35152
45950.00000	102.25171	666.25801	102.25171
46000.00000	100.93711	648.93808	100.93711
46050.00000	101.46227	651.39888	101.46227
46100.00000	99.97565	656.27748	99.97565
46150.00000	99.91228	653.63160	99.91228
46200.00000	97.86257	645.32094	97.86257
46250.00000	98.89784	648.15587	98.89784
46300.00000	97.97773	650.17373	97.97773
46350.00000	99.03832	644.42230	99.03832
46400.00000	97.16793	645.49941	97.16793
46450.00000	95.32686	642.57192	95.32686
46500.00000	96.48305	646.02521	96.48305
46550.00000	95.60564	649.58889	95.60564
46600.00000	96.22869	651.57214	96.22869
46650.00000	92.06477	651.48694	92.06477
46700.00000	93.16948	662.14238	93.16948
46750.00000	94.12476	665.87921	94.12476
46800.00000	92.70282	655.27886	92.70282
46850.00000	93.77140	312.35980	93.77140
46900.00000	93.65140	304.46867	93.65140
46950.00000	94.55557	305.75601	94.55557
47000.00000	94.25547	307.63390	94.25547
47050.00000	96.12403	303.65098	96.12403
47100.00000	94.54759	304.37910	94.54759
47150.00000	95.11771	296.66557	95.11771
47200.00000	94.66632	299.66076	94.66632
47250.00000	96.35981	303.30067	96.35981
47300.00000	95.91333	290.33681	95.91333
47350.00000	95.39507	-62.67387	95.39507
47400.00000	94.83849	-61.16003	94.83849
47450.00000	95.81470	-62.59195	95.81470
47500.00000	94.09213	-76.16474	94.09213
47550.00000	93.39000	-425.28476	93.39000
47600.00000	94.03660	-430.16195	94.03660
47650.00000	95.82319	-436.61471	95.82319
47700.00000	94.07458	-434.69094	94.07458
47750.00000	92.38493	-429.86468	92.38493
47800.00000	93.31263	-449.70508	93.31263
47850.00000	94.38473	-796.88101	94.38473
47900.00000	94.37208	-1146.55443	94.37208
47950.00000	93.04700	-1152.30163	93.04700
48000.00000	93.88211	-1148.53442	93.88211
48050.00000	94.66148	-1153.60869	94.66148
48100.00000	93.42514	-1153.39174	93.42514
48150.00000	93.19568	-1508.98619	93.19568
48200.00000	94.10361	-1509.45478	94.10361
48250.00000	92.87897	-1517.20430	92.87897
48300.00000	93.29204	-1518.24880	93.29204
48350.00000	93.32107	-1523.38508	93.32107
48400.00000	94.82369	-1868.19103	94.82369
48450.00000	95.56667	-1875.27435	95.56667
48500.00000	94.12926	-1878.76118	94.12926
48550.00000	92.69924	-1884.88057	92.69924
48600.00000	95.34715	-2237.70945	95.34715
48650.00000	95.84763	-2235.10065	95.84763
48700.00000	95.84085	-2245.39014	95.84085
48750.00000	94.12154	-2596.64581	94.12154
48800.00000	95.01083	-2605.53245	95.01083
48850.00000	94.93504	-2611.09899	94.93504
48900.00000	94.12435	-2971.14002	94.12435
48950.00000	95.02439	-2979.98253	95.02439
49000.00000	95.30052	-2980.52577	95.30052
49050.00000	93.60518	-2983.43419	93.60518
49100.00000	93.90112	-3340.17323	93.90112
49150.00000	94.43863	-3699.47397	94.43863
49200.00000	94.18412	-3714.10198	94.18412
49250.00000	94.13957	-4057.61924	94.13957
49300.00000	93.88145	-3712.00558	93.88145
49350.00000	92.51972	-3701.76667	92.51972
49400.00000	92.13953	-3349.65342	92.13953
49450.00000	91.53095	-2999.19092	91.53095
49500.00000	92.78294	-2631.08285	92.78294
49550.00000	91.61992	-2284.72786	91.61992
49600.00000	90.32226	-2281.71901	90.32226
49650.00000	92.52962	-2270.98590	92.52962
49700.00000	91.57605	-1934.21974	91.57605
49750.00000	91.64737	-1923.51121	91.64737
49800.00000	91.34081	-1922.87220	91.34081
49850.00000	91.01316	-1917.33267	91.01316
49900.00000	91.09881	-1560.66421	91.09881
49950.00000	92.91611	-1208.13803	92.91611
