---ACOUSTIC CALIBRATION---
Filename: C:\Data\AZH DATA\AZH61\RightSecondary.calib
Date: 8/27/2019 3:31:56 PM
Format: 4
Probe Tube Correction File: C:\Data\Probe Tube Calibrations\50_ProbeTube.calib
Experiment VIs: 850
EPL_CFTS.exe V12.0.1 (2012)
DAQmx V9.6

Attenuation (dB): 40.000000
Min Freq (Hz): 50.000000
Max Freq (Hz): 49950.000000
Freq Step (Hz): 50.000000
Sample Rate (Hz): 100000.000000
[Smoothing]
Method=None
MA.Iterations=0
MA.Length=0
Loess.Length=0
Loess.Type=Linear
Loess.Robust=FALSE


Freq(Hz)	Mag(dB)	Phase(deg)	Unsmoothed(dB)

50.00000	99.21269	640.60789	99.21269
100.00000	81.28086	517.09025	81.28086
150.00000	80.68797	505.57287	80.68797
200.00000	75.51857	407.42169	75.51857
250.00000	84.97654	400.79359	84.97654
300.00000	89.10887	329.80259	89.10887
350.00000	84.15056	328.29332	84.15056
400.00000	87.74893	323.99333	87.74893
450.00000	85.80028	302.86891	85.80028
500.00000	89.01251	329.96448	89.01251
550.00000	89.40566	319.78012	89.40566
600.00000	91.78336	334.86143	91.78336
650.00000	94.24441	320.56639	94.24441
700.00000	95.80696	316.88228	95.80696
750.00000	98.27641	309.64294	98.27641
800.00000	100.16449	299.74238	100.16449
850.00000	102.91891	287.16715	102.91891
900.00000	104.38777	269.65741	104.38777
950.00000	105.67254	252.54310	105.67254
1000.00000	105.58793	234.49998	105.58793
1050.00000	105.02161	225.83110	105.02161
1100.00000	105.22846	213.98410	105.22846
1150.00000	104.27493	203.10327	104.27493
1200.00000	103.69054	200.01491	103.69054
1250.00000	103.92404	190.95361	103.92404
1300.00000	102.80900	182.19706	102.80900
1350.00000	102.13706	179.59215	102.13706
1400.00000	101.70855	177.52715	101.70855
1450.00000	101.52292	179.67002	101.52292
1500.00000	102.04284	177.70188	102.04284
1550.00000	101.60335	175.71567	101.60335
1600.00000	102.78249	174.54823	102.78249
1650.00000	103.27844	163.19016	103.27844
1700.00000	102.06668	160.99023	102.06668
1750.00000	101.87371	158.01598	101.87371
1800.00000	101.20372	156.42091	101.20372
1850.00000	101.42838	159.14933	101.42838
1900.00000	102.31698	159.62343	102.31698
1950.00000	103.21609	150.85547	103.21609
2000.00000	103.12348	142.11786	103.12348
2050.00000	101.95621	138.00353	101.95621
2100.00000	102.17263	137.65935	102.17263
2150.00000	101.59313	131.59525	101.59313
2200.00000	100.93844	129.02427	100.93844
2250.00000	100.36605	127.17748	100.36605
2300.00000	99.87486	129.09776	99.87486
2350.00000	100.00166	128.70462	100.00166
2400.00000	99.77959	127.57823	99.77959
2450.00000	99.74231	127.21410	99.74231
2500.00000	99.21973	126.33081	99.21973
2550.00000	98.80947	131.17000	98.80947
2600.00000	98.90393	136.98878	98.90393
2650.00000	99.69596	144.33250	99.69596
2700.00000	101.66294	145.79355	101.66294
2750.00000	103.08532	137.97373	103.08532
2800.00000	103.68102	128.04428	103.68102
2850.00000	103.68521	119.76471	103.68521
2900.00000	103.33819	113.19482	103.33819
2950.00000	102.98813	109.25732	102.98813
3000.00000	102.62705	105.28864	102.62705
3050.00000	102.20101	102.23857	102.20101
3100.00000	101.97053	99.99820	101.97053
3150.00000	101.58111	95.78930	101.58111
3200.00000	101.03799	93.11853	101.03799
3250.00000	100.27163	91.45771	100.27163
3300.00000	99.38766	90.05992	99.38766
3350.00000	98.16817	91.24837	98.16817
3400.00000	97.24690	98.93423	97.24690
3450.00000	97.08060	107.32532	97.08060
3500.00000	97.46632	114.03787	97.46632
3550.00000	97.83394	117.65699	97.83394
3600.00000	98.14931	120.03394	98.14931
3650.00000	98.01587	123.15475	98.01587
3700.00000	97.76022	131.43131	97.76022
3750.00000	98.55391	143.87499	98.55391
3800.00000	100.26868	153.36262	100.26868
3850.00000	102.21907	156.72750	102.21907
3900.00000	104.17731	156.84810	104.17731
3950.00000	105.83799	153.96142	105.83799
4000.00000	107.15957	149.72472	107.15957
4050.00000	108.28447	144.94014	108.28447
4100.00000	109.17759	141.10159	109.17759
4150.00000	110.19028	137.68508	110.19028
4200.00000	110.88154	134.06159	110.88154
4250.00000	111.72088	131.46225	111.72088
4300.00000	112.59923	128.99270	112.59923
4350.00000	113.57940	126.54977	113.57940
4400.00000	114.69481	124.04096	114.69481
4450.00000	115.92967	120.75127	115.92967
4500.00000	117.27040	116.33137	117.27040
4550.00000	118.66095	110.42169	118.66095
4600.00000	120.01782	103.27243	120.01782
4650.00000	121.40245	94.76285	121.40245
4700.00000	122.69741	84.24359	122.69741
4750.00000	123.81757	71.83084	123.81757
4800.00000	124.65622	57.53217	124.65622
4850.00000	125.06037	42.24277	125.06037
4900.00000	124.99090	26.78648	124.99090
4950.00000	124.44635	12.32718	124.44635
5000.00000	123.43174	 0.25633	123.43174
5050.00000	122.37985	-8.13408	122.37985
5100.00000	121.18874	-17.68655	121.18874
5150.00000	118.71338	-20.51793	118.71338
5200.00000	117.49461	-2.48368	117.49461
5250.00000	120.55087	 4.07052	120.55087
5300.00000	122.35356	-8.93956	122.35356
5350.00000	122.71220	-22.51814	122.71220
5400.00000	122.49207	-33.62833	122.49207
5450.00000	122.07659	-42.53998	122.07659
5500.00000	121.60900	-50.15075	121.60900
5550.00000	121.14161	-56.70853	121.14161
5600.00000	120.67820	-62.66576	120.67820
5650.00000	120.24044	-68.11348	120.24044
5700.00000	119.79797	-73.30596	119.79797
5750.00000	119.38961	-78.00832	119.38961
5800.00000	118.97264	-82.54149	118.97264
5850.00000	118.58585	-86.90619	118.58585
5900.00000	118.21259	-91.00953	118.21259
5950.00000	117.85406	-95.02570	117.85406
6000.00000	117.50600	-98.75001	117.50600
6050.00000	117.15044	-102.56966	117.15044
6100.00000	116.81515	-106.22645	116.81515
6150.00000	116.48292	-109.75393	116.48292
6200.00000	116.14818	-113.15481	116.14818
6250.00000	115.83908	-116.51889	115.83908
6300.00000	115.53361	-119.79898	115.53361
6350.00000	115.22999	-123.12443	115.22999
6400.00000	114.91991	-126.30156	114.91991
6450.00000	114.64458	-129.48736	114.64458
6500.00000	114.32423	-132.56045	114.32423
6550.00000	114.00878	-135.44550	114.00878
6600.00000	113.70319	-138.23889	113.70319
6650.00000	113.39910	-140.93034	113.39910
6700.00000	113.09557	-143.67673	113.09557
6750.00000	112.80369	-146.13488	112.80369
6800.00000	112.52460	-148.41686	112.52460
6850.00000	112.25331	-150.57127	112.25331
6900.00000	111.99069	-152.70768	111.99069
6950.00000	111.76760	-154.69067	111.76760
7000.00000	111.55959	-156.72729	111.55959
7050.00000	111.35225	-158.88845	111.35225
7100.00000	111.18106	-161.04755	111.18106
7150.00000	111.00227	-162.96408	111.00227
7200.00000	110.82862	-164.92217	110.82862
7250.00000	110.65439	-166.77786	110.65439
7300.00000	110.53436	-168.55609	110.53436
7350.00000	110.40560	-170.17669	110.40560
7400.00000	110.34081	-172.00137	110.34081
7450.00000	110.29549	-173.91455	110.29549
7500.00000	110.28029	-175.84423	110.28029
7550.00000	110.28736	-177.95317	110.28736
7600.00000	110.29062	-180.20061	110.29062
7650.00000	110.30040	-182.65432	110.30040
7700.00000	110.37729	-185.35255	110.37729
7750.00000	110.38698	-188.32499	110.38698
7800.00000	110.42616	-191.56162	110.42616
7850.00000	110.42536	-195.11517	110.42536
7900.00000	110.38965	-198.69039	110.38965
7950.00000	110.30903	-202.56548	110.30903
8000.00000	110.19215	-206.41072	110.19215
8050.00000	110.04327	-210.53270	110.04327
8100.00000	109.87137	-213.88632	109.87137
8150.00000	109.61394	-217.51557	109.61394
8200.00000	109.37673	-220.71561	109.37673
8250.00000	109.08836	-224.38415	109.08836
8300.00000	108.83855	-227.68908	108.83855
8350.00000	108.53655	-230.61397	108.53655
8400.00000	108.22072	-233.93710	108.22072
8450.00000	107.82215	-236.59587	107.82215
8500.00000	107.48087	-239.25096	107.48087
8550.00000	107.16301	-241.47332	107.16301
8600.00000	106.82140	-243.86067	106.82140
8650.00000	106.47130	-245.88755	106.47130
8700.00000	106.16819	-248.48007	106.16819
8750.00000	105.79644	-249.59938	105.79644
8800.00000	105.49809	-251.83209	105.49809
8850.00000	105.16170	-253.74801	105.16170
8900.00000	104.92665	-255.23417	104.92665
8950.00000	104.69787	-257.11834	104.69787
9000.00000	104.42199	-258.78675	104.42199
9050.00000	104.28579	-260.68190	104.28579
9100.00000	104.13354	-262.16621	104.13354
9150.00000	104.01358	-263.67009	104.01358
9200.00000	103.93406	-265.12522	103.93406
9250.00000	103.76076	-266.41518	103.76076
9300.00000	103.65224	-267.69667	103.65224
9350.00000	103.55668	-269.18591	103.55668
9400.00000	103.34755	-270.16562	103.34755
9450.00000	103.28842	-271.72045	103.28842
9500.00000	103.21567	-273.06776	103.21567
9550.00000	103.11128	-274.93182	103.11128
9600.00000	103.11532	-277.20728	103.11532
9650.00000	103.08993	-279.59115	103.08993
9700.00000	103.08951	-281.16776	103.08951
9750.00000	103.16085	-283.73276	103.16085
9800.00000	103.09372	-285.16619	103.09372
9850.00000	103.06818	-286.37600	103.06818
9900.00000	102.87945	-288.14958	102.87945
9950.00000	102.73230	-289.24982	102.73230
10000.00000	102.55380	-291.24323	102.55380
10050.00000	102.31632	-293.28430	102.31632
10100.00000	102.07948	-295.63879	102.07948
10150.00000	101.80165	-298.76988	101.80165
10200.00000	101.67142	-301.65280	101.67142
10250.00000	101.53476	-304.62247	101.53476
10300.00000	101.60712	-307.31009	101.60712
10350.00000	101.54150	-309.34693	101.54150
10400.00000	101.45268	-311.48941	101.45268
10450.00000	101.47146	-313.30254	101.47146
10500.00000	101.41357	-314.85748	101.41357
10550.00000	101.27883	-316.79362	101.27883
10600.00000	101.07883	-318.73037	101.07883
10650.00000	100.86508	-320.69620	100.86508
10700.00000	100.70469	-323.98565	100.70469
10750.00000	100.62192	-326.96587	100.62192
10800.00000	100.51105	-329.59989	100.51105
10850.00000	100.45748	-333.13337	100.45748
10900.00000	100.40849	-335.30845	100.40849
10950.00000	100.31124	-337.09772	100.31124
11000.00000	100.15669	-339.06087	100.15669
11050.00000	99.80025	-340.93877	99.80025
11100.00000	99.50611	-343.52354	99.50611
11150.00000	99.09672	-345.77077	99.09672
11200.00000	98.86791	-348.32078	98.86791
11250.00000	98.54965	-351.20492	98.54965
11300.00000	98.27938	-353.96774	98.27938
11350.00000	98.06771	-355.61669	98.06771
11400.00000	97.75657	-357.19818	97.75657
11450.00000	97.55247	-358.97496	97.55247
11500.00000	97.39695	-359.37321	97.39695
11550.00000	96.98873	-360.33486	96.98873
11600.00000	96.77225	-362.54206	96.77225
11650.00000	96.46753	-363.15109	96.46753
11700.00000	96.31269	-364.83967	96.31269
11750.00000	96.21368	-366.62033	96.21368
11800.00000	96.14824	-368.64841	96.14824
11850.00000	96.14777	-369.00205	96.14777
11900.00000	95.89960	-370.59559	95.89960
11950.00000	95.79298	-371.37354	95.79298
12000.00000	95.55530	-372.52129	95.55530
12050.00000	95.27144	-373.97009	95.27144
12100.00000	95.12285	-377.07785	95.12285
12150.00000	94.92033	-379.55068	94.92033
12200.00000	94.84490	-382.31384	94.84490
12250.00000	94.75296	-384.27236	94.75296
12300.00000	95.72931	-386.35326	95.72931
12350.00000	94.38631	-387.95850	94.38631
12400.00000	94.05885	-388.73784	94.05885
12450.00000	93.69470	-390.25986	93.69470
12500.00000	93.28211	-392.20102	93.28211
12550.00000	92.88151	-394.12275	92.88151
12600.00000	92.49282	-396.56150	92.49282
12650.00000	92.38922	-398.21451	92.38922
12700.00000	92.00944	-399.12987	92.00944
12750.00000	91.62722	-400.23298	91.62722
12800.00000	91.24582	-400.29808	91.24582
12850.00000	90.59576	-400.54978	90.59576
12900.00000	90.18111	-401.68070	90.18111
12950.00000	89.92680	-402.61110	89.92680
13000.00000	89.69722	-404.34021	89.69722
13050.00000	89.59307	-403.40168	89.59307
13100.00000	89.39412	-402.83573	89.39412
13150.00000	89.22003	-403.03232	89.22003
13200.00000	88.97790	-400.81009	88.97790
13250.00000	88.60794	-400.29142	88.60794
13300.00000	88.13223	-398.18723	88.13223
13350.00000	87.78230	-400.27567	87.78230
13400.00000	87.79441	-401.15783	87.79441
13450.00000	87.43221	-400.78289	87.43221
13500.00000	87.55103	-399.34933	87.55103
13550.00000	87.28687	-399.37753	87.28687
13600.00000	87.14386	-396.90331	87.14386
13650.00000	86.92625	-395.06145	86.92625
13700.00000	86.57529	-394.41953	86.57529
13750.00000	86.27082	-394.01078	86.27082
13800.00000	86.20615	-394.50478	86.20615
13850.00000	86.04477	-395.08472	86.04477
13900.00000	86.00858	-394.70272	86.00858
13950.00000	86.20829	-393.22272	86.20829
14000.00000	86.42890	-390.26916	86.42890
14050.00000	86.31807	-390.07777	86.31807
14100.00000	86.23536	-388.52583	86.23536
14150.00000	86.35325	-387.25716	86.35325
14200.00000	86.51082	-385.61492	86.51082
14250.00000	86.73471	-383.07646	86.73471
14300.00000	86.90628	-381.67507	86.90628
14350.00000	86.83770	-378.89777	86.83770
14400.00000	86.54836	-378.70406	86.54836
14450.00000	86.75480	-378.40092	86.75480
14500.00000	86.96202	-378.83609	86.96202
14550.00000	87.24448	-377.42797	87.24448
14600.00000	87.51248	-378.14167	87.51248
14650.00000	88.25844	-374.47466	88.25844
14700.00000	88.34932	-376.07543	88.34932
14750.00000	88.58457	-375.30007	88.58457
14800.00000	88.81837	-373.99833	88.81837
14850.00000	89.21697	-373.98521	89.21697
14900.00000	89.66174	-374.54823	89.66174
14950.00000	89.90316	-375.99642	89.90316
15000.00000	90.25492	-376.42186	90.25492
15050.00000	90.47526	-375.71098	90.47526
15100.00000	90.88106	-376.76683	90.88106
15150.00000	91.39999	-377.43831	91.39999
15200.00000	91.54835	-376.04332	91.54835
15250.00000	91.72875	-377.11437	91.72875
15300.00000	92.10626	-377.99029	92.10626
15350.00000	92.43875	-378.69918	92.43875
15400.00000	92.68757	-378.30610	92.68757
15450.00000	93.01246	-379.87041	93.01246
15500.00000	93.47310	-380.72490	93.47310
15550.00000	93.67203	-382.47629	93.67203
15600.00000	94.11341	-385.64384	94.11341
15650.00000	94.78252	-384.66018	94.78252
15700.00000	95.03165	-386.19028	95.03165
15750.00000	95.52141	-386.88469	95.52141
15800.00000	95.90346	-387.16764	95.90346
15850.00000	96.04768	-388.86763	96.04768
15900.00000	96.32886	-391.77897	96.32886
15950.00000	96.87320	-393.59845	96.87320
16000.00000	97.20088	-394.44046	97.20088
16050.00000	97.60543	-396.97166	97.60543
16100.00000	97.81336	-399.44151	97.81336
16150.00000	98.12687	-401.97959	98.12687
16200.00000	98.52147	-405.17553	98.52147
16250.00000	98.95706	-406.48940	98.95706
16300.00000	99.41820	-408.67549	99.41820
16350.00000	99.59364	-411.40632	99.59364
16400.00000	99.91860	-413.70788	99.91860
16450.00000	100.14397	-416.20243	100.14397
16500.00000	100.37007	-419.46642	100.37007
16550.00000	100.70137	-422.92961	100.70137
16600.00000	100.89634	-425.20517	100.89634
16650.00000	101.04311	-428.11527	101.04311
16700.00000	101.34165	-430.31808	101.34165
16750.00000	101.44185	-433.18256	101.44185
16800.00000	101.59133	-436.29825	101.59133
16850.00000	101.89896	-439.00170	101.89896
16900.00000	102.02246	-441.52729	102.02246
16950.00000	102.22556	-444.17280	102.22556
17000.00000	102.25000	-446.38512	102.25000
17050.00000	102.43780	-448.23566	102.43780
17100.00000	102.52499	-450.22949	102.52499
17150.00000	102.89020	-453.69444	102.89020
17200.00000	103.02822	-455.51872	103.02822
17250.00000	103.17000	-458.46873	103.17000
17300.00000	103.43787	-460.49695	103.43787
17350.00000	103.47897	-462.81096	103.47897
17400.00000	103.71404	-465.43352	103.71404
17450.00000	103.83913	-468.21200	103.83913
17500.00000	104.05664	-470.99044	104.05664
17550.00000	104.24800	-473.50120	104.24800
17600.00000	104.51206	-475.79355	104.51206
17650.00000	104.64675	-479.47133	104.64675
17700.00000	104.83057	-482.20592	104.83057
17750.00000	105.10126	-484.57861	105.10126
17800.00000	105.17843	-488.10700	105.17843
17850.00000	105.38112	-490.42256	105.38112
17900.00000	105.47252	-493.40937	105.47252
17950.00000	105.69251	-496.86749	105.69251
18000.00000	105.80045	-500.18714	105.80045
18050.00000	106.06309	-503.07787	106.06309
18100.00000	106.12993	-506.51592	106.12993
18150.00000	106.22068	-509.03360	106.22068
18200.00000	106.26001	-512.93632	106.26001
18250.00000	106.42657	-515.25573	106.42657
18300.00000	106.58798	-518.35147	106.58798
18350.00000	106.68846	-521.46847	106.68846
18400.00000	106.70326	-524.92387	106.70326
18450.00000	106.74913	-529.34729	106.74913
18500.00000	106.86484	-532.16910	106.86484
18550.00000	106.91254	-534.85099	106.91254
18600.00000	107.08756	-538.63967	107.08756
18650.00000	107.02324	-541.31890	107.02324
18700.00000	107.05770	-545.08837	107.05770
18750.00000	107.17811	-548.11529	107.17811
18800.00000	107.33150	-550.77683	107.33150
18850.00000	107.24618	-554.45678	107.24618
18900.00000	107.26649	-557.40611	107.26649
18950.00000	107.31603	-561.15884	107.31603
19000.00000	107.21589	-564.15677	107.21589
19050.00000	107.37916	-567.50533	107.37916
19100.00000	107.31957	-570.65589	107.31957
19150.00000	107.45929	-573.71297	107.45929
19200.00000	107.40613	-576.65245	107.40613
19250.00000	107.38339	-580.94212	107.38339
19300.00000	107.31246	-583.63736	107.31246
19350.00000	107.31097	-587.00219	107.31097
19400.00000	107.25228	-590.02555	107.25228
19450.00000	107.29529	-592.75428	107.29529
19500.00000	107.17350	-596.77659	107.17350
19550.00000	107.16426	-599.97394	107.16426
19600.00000	107.18513	-603.74731	107.18513
19650.00000	107.06519	-606.40973	107.06519
19700.00000	106.87828	-609.73672	106.87828
19750.00000	106.79872	-612.47832	106.79872
19800.00000	106.80962	-616.33867	106.80962
19850.00000	106.73021	-619.19111	106.73021
19900.00000	106.59474	-622.92799	106.59474
19950.00000	106.44778	-626.03622	106.44778
20000.00000	106.35180	-629.01242	106.35180
20050.00000	106.21532	-632.00940	106.21532
20100.00000	106.00288	-635.09502	106.00288
20150.00000	105.91804	-637.07282	105.91804
20200.00000	105.72138	-640.75188	105.72138
20250.00000	105.49567	-643.38751	105.49567
20300.00000	105.23095	-646.07011	105.23095
20350.00000	105.15220	-648.86806	105.15220
20400.00000	104.88724	-650.42216	104.88724
20450.00000	104.59566	-652.95571	104.59566
20500.00000	104.46201	-655.37393	104.46201
20550.00000	104.02627	-656.73798	104.02627
20600.00000	103.92893	-658.39059	103.92893
20650.00000	103.70907	-659.89686	103.70907
20700.00000	103.45383	-661.29255	103.45383
20750.00000	103.32643	-662.40195	103.32643
20800.00000	103.11465	-663.12382	103.11465
20850.00000	103.04009	-664.02689	103.04009
20900.00000	102.85534	-664.72128	102.85534
20950.00000	102.75213	-664.76642	102.75213
21000.00000	102.69602	-665.09914	102.69602
21050.00000	102.84121	-665.23536	102.84121
21100.00000	102.84907	-665.33576	102.84907
21150.00000	103.01478	-666.06229	103.01478
21200.00000	103.17959	-666.23091	103.17959
21250.00000	103.33373	-668.33070	103.33373
21300.00000	103.61168	-668.87604	103.61168
21350.00000	103.78867	-670.19303	103.78867
21400.00000	104.00047	-672.22022	104.00047
21450.00000	104.19389	-674.27873	104.19389
21500.00000	104.41036	-676.81038	104.41036
21550.00000	104.48022	-678.81143	104.48022
21600.00000	104.70678	-681.54068	104.70678
21650.00000	104.78049	-684.19615	104.78049
21700.00000	104.86227	-686.59670	104.86227
21750.00000	104.98973	-689.26074	104.98973
21800.00000	105.04364	-691.90503	105.04364
21850.00000	105.05000	-694.37975	105.05000
21900.00000	105.09454	-697.10549	105.09454
21950.00000	105.14073	-699.46580	105.14073
22000.00000	105.19599	-701.79502	105.19599
22050.00000	105.20910	-704.04222	105.20910
22100.00000	105.18012	-706.54280	105.18012
22150.00000	105.15021	-708.97163	105.15021
22200.00000	105.24021	-711.18243	105.24021
22250.00000	105.15787	-713.03406	105.15787
22300.00000	105.07132	-715.46021	105.07132
22350.00000	105.13860	-717.86714	105.13860
22400.00000	105.16504	-720.17475	105.16504
22450.00000	105.05228	-721.96372	105.05228
22500.00000	104.99827	-723.05669	104.99827
22550.00000	104.97773	-725.14022	104.97773
22600.00000	104.96052	-727.98627	104.96052
22650.00000	104.95720	-729.56376	104.95720
22700.00000	104.97911	-731.33396	104.97911
22750.00000	104.92777	-731.10906	104.92777
22800.00000	104.94262	-735.12430	104.94262
22850.00000	105.04883	-737.57557	105.04883
22900.00000	105.01635	-737.67238	105.01635
22950.00000	105.11233	-739.20402	105.11233
23000.00000	105.06178	-740.57600	105.06178
23050.00000	105.08551	-743.24884	105.08551
23100.00000	105.20896	-743.84035	105.20896
23150.00000	105.11897	-744.87799	105.11897
23200.00000	105.25092	-747.76459	105.25092
23250.00000	105.16990	-750.34310	105.16990
23300.00000	105.50614	-752.07212	105.50614
23350.00000	105.29089	-754.32629	105.29089
23400.00000	105.33772	-755.68018	105.33772
23450.00000	105.54075	-758.05068	105.54075
23500.00000	105.43565	-758.88850	105.43565
23550.00000	105.50834	-759.37717	105.50834
23600.00000	105.46663	-763.08823	105.46663
23650.00000	105.64202	-764.56081	105.64202
23700.00000	105.90845	-768.48254	105.90845
23750.00000	105.81852	-769.52539	105.81852
23800.00000	105.63387	-770.36128	105.63387
23850.00000	105.82365	-771.76001	105.82365
23900.00000	106.25877	-774.27427	106.25877
23950.00000	106.02000	-777.23654	106.02000
24000.00000	105.96240	-780.51830	105.96240
24050.00000	106.11223	-780.93830	106.11223
24100.00000	106.52493	-784.41458	106.52493
24150.00000	106.48020	-786.79078	106.48020
24200.00000	106.54715	-790.42825	106.54715
24250.00000	106.21690	-791.12144	106.21690
24300.00000	106.66643	-794.36052	106.66643
24350.00000	106.51888	-797.13473	106.51888
24400.00000	106.52026	-800.68361	106.52026
24450.00000	106.24431	-802.72279	106.24431
24500.00000	106.79862	-804.03027	106.79862
24550.00000	106.57136	-449.57131	106.57136
24600.00000	107.11579	-90.97392	107.11579
24650.00000	106.70501	264.65714	106.70501
24700.00000	106.70149	623.80130	106.70149
24750.00000	106.67577	978.70444	106.67577
24800.00000	106.69746	1336.10503	106.69746
24850.00000	106.27622	1694.43745	106.27622
24900.00000	106.34690	2052.47974	106.34690
24950.00000	106.46809	2407.80408	106.46809
25000.00000	106.53867	2400.02258	106.53867
25050.00000	106.52462	2399.89903	106.52462
25100.00000	105.98372	2396.21351	105.98372
25150.00000	106.16420	2394.77569	106.16420
25200.00000	105.88574	2390.95856	105.88574
25250.00000	105.87666	2389.30503	105.87666
25300.00000	105.89542	2387.34693	105.89542
25350.00000	105.73162	2380.05294	105.73162
25400.00000	105.64352	2376.82413	105.64352
25450.00000	105.59600	2374.74575	105.59600
25500.00000	105.32356	2372.60435	105.32356
25550.00000	105.19861	2368.10360	105.19861
25600.00000	105.09921	2365.62534	105.09921
25650.00000	104.85832	2363.49417	104.85832
25700.00000	104.83729	2360.55274	104.83729
25750.00000	104.49789	2356.90339	104.49789
25800.00000	104.34798	2353.73458	104.34798
25850.00000	104.20123	2350.40239	104.20123
25900.00000	104.01146	2346.38669	104.01146
25950.00000	103.65880	2347.52187	103.65880
26000.00000	103.51352	2342.47383	103.51352
26050.00000	103.46316	2340.31658	103.46316
26100.00000	103.15173	2337.30251	103.15173
26150.00000	103.09243	2334.52588	103.09243
26200.00000	102.92339	2331.94640	102.92339
26250.00000	102.67897	2329.61943	102.67897
26300.00000	102.48154	2325.58353	102.48154
26350.00000	102.00416	2324.44144	102.00416
26400.00000	101.83397	2321.80386	101.83397
26450.00000	101.99890	2318.24511	101.99890
26500.00000	101.58365	2315.41058	101.58365
26550.00000	101.24668	2311.32652	101.24668
26600.00000	101.07945	2308.87230	101.07945
26650.00000	100.91876	2309.48575	100.91876
26700.00000	100.82369	2305.85386	100.82369
26750.00000	100.25299	2303.87914	100.25299
26800.00000	100.15956	2299.06658	100.15956
26850.00000	100.08625	2298.65283	100.08625
26900.00000	100.04924	2296.79325	100.04924
26950.00000	99.81070	2293.76597	99.81070
27000.00000	99.14023	2294.23803	99.14023
27050.00000	99.24557	2290.50843	99.24557
27100.00000	98.82829	2290.30075	98.82829
27150.00000	98.86404	2286.52660	98.86404
27200.00000	98.57805	2285.99268	98.57805
27250.00000	98.30708	2284.71977	98.30708
27300.00000	97.65286	2281.76418	97.65286
27350.00000	98.01959	2283.41079	98.01959
27400.00000	97.44520	2280.84168	97.44520
27450.00000	97.35025	2280.86275	97.35025
27500.00000	97.15114	2279.23898	97.15114
27550.00000	97.31238	2277.65115	97.31238
27600.00000	97.46989	2275.94598	97.46989
27650.00000	96.92507	2277.07966	96.92507
27700.00000	96.97523	2273.16456	96.97523
27750.00000	96.79125	2272.73277	96.79125
27800.00000	97.03358	2270.35861	97.03358
27850.00000	97.09000	2271.78395	97.09000
27900.00000	96.83925	2270.96870	96.83925
27950.00000	96.17319	2268.45981	96.17319
28000.00000	96.43082	2270.08994	96.43082
28050.00000	97.14537	2266.97668	97.14537
28100.00000	96.46602	2266.09168	96.46602
28150.00000	96.84998	2264.54558	96.84998
28200.00000	96.89572	2261.81533	96.89572
28250.00000	96.77979	2259.78999	96.77979
28300.00000	96.54695	2260.85572	96.54695
28350.00000	96.90635	2260.71902	96.90635
28400.00000	96.88969	2259.58126	96.88969
28450.00000	97.35814	2257.22932	97.35814
28500.00000	97.12119	2256.64906	97.12119
28550.00000	97.01130	2257.39601	97.01130
28600.00000	97.27471	2255.56481	97.27471
28650.00000	97.60028	2251.20649	97.60028
28700.00000	97.58019	2253.03688	97.58019
28750.00000	98.43993	2251.68031	98.43993
28800.00000	98.20383	2250.55817	98.20383
28850.00000	97.86606	2246.02144	97.86606
28900.00000	97.92236	2244.56525	97.92236
28950.00000	98.20068	2244.46218	98.20068
29000.00000	98.54562	2241.92663	98.54562
29050.00000	98.30278	2241.49327	98.30278
29100.00000	98.58809	2241.07620	98.58809
29150.00000	98.48802	2240.19008	98.48802
29200.00000	98.49668	2236.62386	98.49668
29250.00000	98.90831	2234.93323	98.90831
29300.00000	98.74484	2233.35608	98.74484
29350.00000	99.36009	2230.32715	99.36009
29400.00000	99.25424	2229.36501	99.25424
29450.00000	99.35154	2227.79665	99.35154
29500.00000	99.75475	2226.16483	99.75475
29550.00000	99.44523	2221.83701	99.44523
29600.00000	99.53155	2221.04008	99.53155
29650.00000	99.69197	2218.88315	99.69197
29700.00000	99.61464	2219.95724	99.61464
29750.00000	99.59684	2217.76703	99.59684
29800.00000	99.41863	2215.52813	99.41863
29850.00000	99.70433	2212.56567	99.70433
29900.00000	99.89195	2212.67614	99.89195
29950.00000	99.16451	2211.78695	99.16451
30000.00000	99.61636	2211.44271	99.61636
30050.00000	99.58254	2209.42969	99.58254
30100.00000	99.41951	2210.17704	99.41951
30150.00000	99.49279	2206.32182	99.49279
30200.00000	99.54227	2205.12739	99.54227
30250.00000	99.29057	2204.57060	99.29057
30300.00000	99.01517	2205.61834	99.01517
30350.00000	99.13745	2207.33598	99.13745
30400.00000	99.12851	2204.65191	99.12851
30450.00000	98.75600	2205.36089	98.75600
30500.00000	98.95448	2204.55296	98.95448
30550.00000	98.68065	2206.68065	98.68065
30600.00000	98.86706	2207.74483	98.86706
30650.00000	98.95546	2208.02699	98.95546
30700.00000	98.94537	2208.32673	98.94537
30750.00000	98.87737	2210.59467	98.87737
30800.00000	98.97174	2211.30524	98.97174
30850.00000	99.31749	2214.37928	99.31749
30900.00000	99.27215	2216.35498	99.27215
30950.00000	99.66157	2216.39924	99.66157
31000.00000	100.00202	2217.24868	100.00202
31050.00000	100.43138	2218.70278	100.43138
31100.00000	100.93977	2220.07688	100.93977
31150.00000	101.05496	2220.76002	101.05496
31200.00000	101.88742	2220.48083	101.88742
31250.00000	102.20831	2220.86855	102.20831
31300.00000	102.81752	2220.33335	102.81752
31350.00000	103.36245	2219.70707	103.36245
31400.00000	103.70298	2218.12506	103.70298
31450.00000	104.38591	2216.40787	104.38591
31500.00000	104.75772	2213.94066	104.75772
31550.00000	105.33657	2212.47732	105.33657
31600.00000	105.96343	2208.84863	105.96343
31650.00000	106.23043	2206.08440	106.23043
31700.00000	106.76115	2203.92717	106.76115
31750.00000	107.18288	2201.78637	107.18288
31800.00000	107.46744	2197.48949	107.46744
31850.00000	107.89451	2193.42392	107.89451
31900.00000	107.99276	2190.07444	107.99276
31950.00000	108.32502	2186.56235	108.32502
32000.00000	108.58916	2182.54228	108.58916
32050.00000	108.84962	2178.66618	108.84962
32100.00000	108.98901	2174.51871	108.98901
32150.00000	109.21314	2170.91642	109.21314
32200.00000	109.36803	2166.40748	109.36803
32250.00000	109.37996	2161.77538	109.37996
32300.00000	109.51624	2158.26383	109.51624
32350.00000	109.49925	2154.68637	109.49925
32400.00000	109.68813	2151.55912	109.68813
32450.00000	109.62248	2146.89050	109.62248
32500.00000	109.68019	2143.42988	109.68019
32550.00000	109.73837	2138.98968	109.73837
32600.00000	109.72944	2135.72980	109.72944
32650.00000	109.73918	2131.45265	109.73918
32700.00000	109.50937	2128.04670	109.50937
32750.00000	109.59097	2123.44882	109.59097
32800.00000	109.66453	2120.47567	109.66453
32850.00000	109.68177	2116.88484	109.68177
32900.00000	109.54985	2112.41963	109.54985
32950.00000	109.35228	2108.03734	109.35228
33000.00000	109.34251	2106.71700	109.34251
33050.00000	109.19224	2101.00962	109.19224
33100.00000	109.22831	2097.87207	109.22831
33150.00000	109.10045	2095.63576	109.10045
33200.00000	109.22548	2093.16174	109.22548
33250.00000	109.03372	2089.27368	109.03372
33300.00000	108.91168	2085.51237	108.91168
33350.00000	108.91381	2082.25676	108.91381
33400.00000	108.74020	2079.72914	108.74020
33450.00000	108.67874	2076.53766	108.67874
33500.00000	108.93337	2074.90597	108.93337
33550.00000	108.50866	2069.12527	108.50866
33600.00000	108.69456	2067.68886	108.69456
33650.00000	108.59174	2064.17734	108.59174
33700.00000	108.62289	2061.03438	108.62289
33750.00000	108.43262	2057.92675	108.43262
33800.00000	108.65419	2054.96854	108.65419
33850.00000	108.33984	2051.03051	108.33984
33900.00000	108.41196	2048.00381	108.41196
33950.00000	108.49290	2045.20662	108.49290
34000.00000	108.47904	2040.58239	108.47904
34050.00000	108.27646	2037.70814	108.27646
34100.00000	108.16401	2035.56916	108.16401
34150.00000	108.27876	2031.31990	108.27876
34200.00000	108.10253	2029.74728	108.10253
34250.00000	108.07445	2025.78936	108.07445
34300.00000	108.07114	2022.28584	108.07114
34350.00000	108.06501	2017.62733	108.06501
34400.00000	107.46361	2016.89965	107.46361
34450.00000	107.57696	2011.15436	107.57696
34500.00000	107.47644	2009.40842	107.47644
34550.00000	107.35315	2006.90973	107.35315
34600.00000	107.00929	2003.97699	107.00929
34650.00000	107.31606	2003.81445	107.31606
34700.00000	106.67500	2002.71808	106.67500
34750.00000	106.94432	1997.09722	106.94432
34800.00000	107.11600	1997.03315	107.11600
34850.00000	107.03064	1995.67105	107.03064
34900.00000	107.10187	1991.98688	107.10187
34950.00000	106.78641	1991.65762	106.78641
35000.00000	106.71812	1987.77031	106.71812
35050.00000	106.76731	1986.88043	106.76731
35100.00000	106.92880	1985.04792	106.92880
35150.00000	106.79822	1984.10112	106.79822
35200.00000	106.59830	1980.72494	106.59830
35250.00000	106.72289	1979.91641	106.72289
35300.00000	107.02784	1978.47890	107.02784
35350.00000	107.08916	1975.82157	107.08916
35400.00000	107.09942	1974.02827	107.09942
35450.00000	107.23315	1973.03077	107.23315
35500.00000	107.01521	1970.85368	107.01521
35550.00000	107.39441	1970.07118	107.39441
35600.00000	107.42040	1967.26304	107.42040
35650.00000	107.48249	1966.04520	107.48249
35700.00000	107.61763	1963.34916	107.61763
35750.00000	107.51894	1963.32846	107.51894
35800.00000	107.84739	1962.08716	107.84739
35850.00000	108.06877	1958.41491	108.06877
35900.00000	108.24473	1956.39689	108.24473
35950.00000	108.32071	1955.09735	108.32071
36000.00000	108.36581	1952.76021	108.36581
36050.00000	108.64226	1950.10383	108.64226
36100.00000	108.74488	1949.30549	108.74488
36150.00000	108.82814	1947.51416	108.82814
36200.00000	108.83219	1946.49659	108.83219
36250.00000	108.79167	1944.08076	108.79167
36300.00000	109.01966	1943.27971	109.01966
36350.00000	109.41503	1941.11440	109.41503
36400.00000	109.49147	1938.74614	109.49147
36450.00000	109.45281	1935.44275	109.45281
36500.00000	109.51366	1935.56137	109.51366
36550.00000	109.61584	1933.16654	109.61584
36600.00000	109.81207	1932.46882	109.81207
36650.00000	109.88229	1931.53585	109.88229
36700.00000	110.12855	1929.91661	110.12855
36750.00000	110.39164	1927.02272	110.39164
36800.00000	110.46462	1925.81965	110.46462
36850.00000	110.38578	1923.38170	110.38578
36900.00000	110.66754	1922.71672	110.66754
36950.00000	110.70746	1919.82213	110.70746
37000.00000	110.36584	1918.97882	110.36584
37050.00000	110.46516	1919.42362	110.46516
37100.00000	110.79150	1917.60709	110.79150
37150.00000	111.12314	1914.88003	111.12314
37200.00000	111.48727	1916.08190	111.48727
37250.00000	111.15521	1912.94766	111.15521
37300.00000	111.42791	1912.74016	111.42791
37350.00000	111.85724	1911.22611	111.85724
37400.00000	111.64012	1909.67297	111.64012
37450.00000	111.62946	1909.52432	111.62946
37500.00000	112.19913	1907.86520	112.19913
37550.00000	112.22935	1906.73378	112.22935
37600.00000	112.32533	1904.90265	112.32533
37650.00000	112.48475	1904.83035	112.48475
37700.00000	112.84135	1902.92422	112.84135
37750.00000	113.16821	1902.92314	113.16821
37800.00000	113.44296	1899.07884	113.44296
37850.00000	113.64580	1895.82227	113.64580
37900.00000	113.82258	1894.88528	113.82258
37950.00000	114.11365	1893.48748	114.11365
38000.00000	114.28162	1890.83019	114.28162
38050.00000	114.55009	1887.82106	114.55009
38100.00000	114.76190	1884.95081	114.76190
38150.00000	114.87275	1881.83937	114.87275
38200.00000	115.22341	1878.77050	115.22341
38250.00000	115.39937	1876.22964	115.39937
38300.00000	115.61126	1872.23239	115.61126
38350.00000	115.71592	1870.53433	115.71592
38400.00000	115.97790	1867.43362	115.97790
38450.00000	116.29384	1862.29827	116.29384
38500.00000	116.44192	1858.15115	116.44192
38550.00000	116.63721	1854.05691	116.63721
38600.00000	116.77099	1850.40041	116.77099
38650.00000	116.81660	1845.83437	116.81660
38700.00000	116.86240	1841.23867	116.86240
38750.00000	116.98028	1837.08826	116.98028
38800.00000	117.12818	1833.27763	117.12818
38850.00000	117.18674	1828.41374	117.18674
38900.00000	117.29515	1823.79539	117.29515
38950.00000	117.28973	1818.63895	117.28973
39000.00000	117.24769	1813.68657	117.24769
39050.00000	117.29576	1809.33699	117.29576
39100.00000	117.11686	1804.59340	117.11686
39150.00000	117.06552	1800.09160	117.06552
39200.00000	117.02760	1795.51367	117.02760
39250.00000	116.94942	1790.14273	116.94942
39300.00000	116.90176	1785.58198	116.90176
39350.00000	116.75108	1781.68361	116.75108
39400.00000	116.65290	1776.11384	116.65290
39450.00000	116.43573	1771.75120	116.43573
39500.00000	116.26438	1767.34009	116.26438
39550.00000	116.04681	1762.55541	116.04681
39600.00000	115.75477	1758.49423	115.75477
39650.00000	115.65036	1754.82763	115.65036
39700.00000	115.40048	1750.45317	115.40048
39750.00000	115.23386	1745.67496	115.23386
39800.00000	114.96614	1742.10932	114.96614
39850.00000	114.75593	1738.59380	114.75593
39900.00000	114.56541	1734.54646	114.56541
39950.00000	114.23294	1730.63538	114.23294
40000.00000	113.81431	1728.20251	113.81431
40050.00000	113.67633	1723.66158	113.67633
40100.00000	113.50232	1720.61297	113.50232
40150.00000	113.17787	1717.52927	113.17787
40200.00000	113.01177	1714.04891	113.01177
40250.00000	112.67156	1711.05359	112.67156
40300.00000	112.52353	1708.92492	112.52353
40350.00000	112.14361	1706.53637	112.14361
40400.00000	111.87247	1704.55009	111.87247
40450.00000	111.70093	1702.10570	111.70093
40500.00000	111.60480	1700.19087	111.60480
40550.00000	111.36596	1697.38058	111.36596
40600.00000	111.14864	1695.35750	111.14864
40650.00000	110.89628	1694.42786	110.89628
40700.00000	110.63938	1693.36767	110.63938
40750.00000	110.77793	1691.41702	110.77793
40800.00000	110.51622	1689.52142	110.51622
40850.00000	110.38957	1688.62812	110.38957
40900.00000	110.27501	1687.07078	110.27501
40950.00000	110.16837	1687.53454	110.16837
41000.00000	109.93615	1686.36068	109.93615
41050.00000	110.11929	1686.08772	110.11929
41100.00000	110.14812	1684.18001	110.14812
41150.00000	110.28700	1684.99355	110.28700
41200.00000	110.35564	1684.11268	110.35564
41250.00000	110.40310	1681.66372	110.40310
41300.00000	110.33695	1682.47417	110.33695
41350.00000	110.63720	1683.47555	110.63720
41400.00000	110.76269	1676.68140	110.76269
41450.00000	110.96178	1679.49655	110.96178
41500.00000	111.00387	1677.90862	111.00387
41550.00000	111.06607	1681.67717	111.06607
41600.00000	110.92075	1678.49890	110.92075
41650.00000	111.63484	1676.66710	111.63484
41700.00000	111.86387	1676.18843	111.86387
41750.00000	111.96746	1679.07219	111.96746
41800.00000	111.27217	1672.91186	111.27217
41850.00000	111.49946	1673.69955	111.49946
41900.00000	111.39040	1672.96908	111.39040
41950.00000	112.78885	1677.76835	112.78885
42000.00000	112.22444	1670.49388	112.22444
42050.00000	111.49107	1668.63954	111.49107
42100.00000	112.07468	1668.22485	112.07468
42150.00000	111.57645	1663.10227	111.57645
42200.00000	111.76427	1667.60515	111.76427
42250.00000	111.83258	1666.81709	111.83258
42300.00000	110.93389	1662.41835	110.93389
42350.00000	111.62421	1664.31795	111.62421
42400.00000	111.45352	1663.77382	111.45352
42450.00000	111.83621	1657.96960	111.83621
42500.00000	111.34755	1657.67367	111.34755
42550.00000	111.34000	1666.93373	111.34000
42600.00000	110.78436	1660.94642	110.78436
42650.00000	110.61553	1661.12645	110.61553
42700.00000	110.47142	1658.08988	110.47142
42750.00000	111.14309	1656.59940	111.14309
42800.00000	110.49585	1650.13446	110.49585
42850.00000	110.11479	1647.64416	110.11479
42900.00000	111.29068	1653.30488	111.29068
42950.00000	110.01398	1648.04597	110.01398
43000.00000	110.48444	1639.26894	110.48444
43050.00000	109.99063	1640.20151	109.99063
43100.00000	109.98064	1643.49673	109.98064
43150.00000	109.18800	1639.82375	109.18800
43200.00000	109.36844	1635.07546	109.36844
43250.00000	109.34939	1632.85895	109.34939
43300.00000	109.03039	1631.36750	109.03039
43350.00000	109.92468	1629.87874	109.92468
43400.00000	109.07671	1626.00274	109.07671
43450.00000	109.85234	1626.76983	109.85234
43500.00000	108.36266	1618.44275	108.36266
43550.00000	109.25154	1614.98811	109.25154
43600.00000	108.66234	1611.34434	108.66234
43650.00000	108.67096	1600.92007	108.67096
43700.00000	108.42874	1600.64612	108.42874
43750.00000	107.73649	1599.72741	107.73649
43800.00000	107.87340	1591.06213	107.87340
43850.00000	108.10909	1587.42925	108.10909
43900.00000	108.03827	1587.33434	108.03827
43950.00000	107.77588	1579.75744	107.77588
44000.00000	106.86642	1575.51695	106.86642
44050.00000	106.82426	1568.73826	106.82426
44100.00000	106.96588	1561.06195	106.96588
44150.00000	106.33992	1564.23609	106.33992
44200.00000	106.42007	1560.79652	106.42007
44250.00000	106.34110	1556.99672	106.34110
44300.00000	106.34427	1548.09949	106.34427
44350.00000	105.07441	1544.00384	105.07441
44400.00000	105.56427	1542.59825	105.56427
44450.00000	105.85985	1538.99405	105.85985
44500.00000	105.13526	1533.46707	105.13526
44550.00000	106.38693	1526.47323	106.38693
44600.00000	104.69054	1524.60921	104.69054
44650.00000	103.97388	1519.90909	103.97388
44700.00000	103.84623	1513.20283	103.84623
44750.00000	103.41942	1516.84588	103.41942
44800.00000	104.29152	1509.98186	104.29152
44850.00000	103.73195	1504.39674	103.73195
44900.00000	103.58610	1503.54974	103.58610
44950.00000	103.68982	1495.88245	103.68982
45000.00000	103.65449	1486.52517	103.65449
45050.00000	102.47069	1492.09269	102.47069
45100.00000	102.36142	1482.96383	102.36142
45150.00000	102.74208	1469.50325	102.74208
45200.00000	101.86036	1474.00383	101.86036
45250.00000	101.60796	1467.37165	101.60796
45300.00000	101.61975	1459.11868	101.61975
45350.00000	101.38082	1454.46031	101.38082
45400.00000	101.50124	1454.85002	101.50124
45450.00000	101.25769	1445.78887	101.25769
45500.00000	100.42912	1436.79875	100.42912
45550.00000	100.04402	1438.63526	100.04402
45600.00000	101.69871	1432.67467	101.69871
45650.00000	98.90686	1421.14254	98.90686
45700.00000	99.16478	1418.53466	99.16478
45750.00000	99.45794	1418.10550	99.45794
45800.00000	98.34670	1403.25833	98.34670
45850.00000	96.95856	1406.46485	96.95856
45900.00000	97.01549	1404.25739	97.01549
45950.00000	97.18655	1406.28171	97.18655
46000.00000	95.34473	1386.16610	95.34473
46050.00000	95.85340	1383.32040	95.85340
46100.00000	94.63262	1381.45574	94.63262
46150.00000	94.01460	1377.69342	94.01460
46200.00000	92.88844	1370.21599	92.88844
46250.00000	93.65286	1363.77462	93.65286
46300.00000	91.75571	1367.86089	91.75571
46350.00000	93.59189	1349.46103	93.59189
46400.00000	90.87545	1346.08579	90.87545
46450.00000	89.13100	1345.29975	89.13100
46500.00000	90.70419	1352.21971	90.70419
46550.00000	90.37265	1335.15158	90.37265
46600.00000	89.48221	1351.34418	89.48221
46650.00000	85.05273	1341.54312	85.05273
46700.00000	86.97004	1347.63704	86.97004
46750.00000	86.69153	1357.55484	86.69153
46800.00000	86.17933	1348.74511	86.17933
46850.00000	85.90350	1002.09350	85.90350
46900.00000	85.71173	988.94248	85.71173
46950.00000	86.86350	998.90446	86.86350
47000.00000	84.64596	990.29893	84.64596
47050.00000	87.12716	989.02009	87.12716
47100.00000	86.04616	986.42972	86.04616
47150.00000	86.40248	982.25623	86.40248
47200.00000	84.75091	977.47542	84.75091
47250.00000	84.44646	977.13203	84.44646
47300.00000	84.82586	969.55340	84.82586
47350.00000	85.74985	614.07828	85.74985
47400.00000	84.91689	610.73314	84.91689
47450.00000	85.84192	617.23117	85.84192
47500.00000	82.80919	603.70967	82.80919
47550.00000	80.96743	257.34947	80.96743
47600.00000	82.83248	249.69878	82.83248
47650.00000	84.98538	251.81482	84.98538
47700.00000	82.33796	250.40341	82.33796
47750.00000	81.96103	260.40798	81.96103
47800.00000	81.83305	236.71600	81.83305
47850.00000	84.13136	-126.92134	84.13136
47900.00000	83.46876	-479.75123	83.46876
47950.00000	83.24301	-471.76644	83.24301
48000.00000	83.05828	-476.59420	83.05828
48050.00000	85.27570	-498.78703	85.27570
48100.00000	83.01217	-486.92244	83.01217
48150.00000	84.01110	-854.59505	84.01110
48200.00000	85.45306	-847.84897	85.45306
48250.00000	83.14500	-855.30060	83.14500
48300.00000	83.46329	-869.26926	83.46329
48350.00000	84.07840	-879.56803	84.07840
48400.00000	84.37351	-1214.94659	84.37351
48450.00000	86.18663	-1226.83505	86.18663
48500.00000	83.59501	-1237.76716	83.59501
48550.00000	83.69680	-1248.11854	83.69680
48600.00000	85.59813	-1599.55266	85.59813
48650.00000	83.85617	-1601.73578	83.85617
48700.00000	83.30585	-1615.72184	83.30585
48750.00000	83.10479	-1966.36352	83.10479
48800.00000	83.53182	-1970.69629	83.53182
48850.00000	84.34384	-1966.79278	84.34384
48900.00000	82.79019	-2322.56659	82.79019
48950.00000	84.61102	-2363.42235	84.61102
49000.00000	81.11369	-2361.13348	81.11369
49050.00000	82.62805	-2356.22698	82.62805
49100.00000	84.61992	-2711.56526	84.61992
49150.00000	84.94437	-3078.85061	84.94437
49200.00000	80.22196	-3124.43324	80.22196
49250.00000	80.21044	-3475.54581	80.21044
49300.00000	83.19614	-3105.71152	83.19614
49350.00000	80.17038	-3092.22773	80.17038
49400.00000	82.63302	-2735.30969	82.63302
49450.00000	81.88573	-2373.21404	81.88573
49500.00000	78.97996	-2054.72273	78.97996
49550.00000	85.38168	-1702.89469	85.38168
49600.00000	78.51891	-1680.14638	78.51891
49650.00000	84.05412	-1702.99193	84.05412
49700.00000	83.36771	-1358.35287	83.36771
49750.00000	83.68448	-1364.67926	83.68448
49800.00000	84.19768	-1360.35418	84.19768
49850.00000	87.72882	-1347.44810	87.72882
49900.00000	83.20350	-997.38236	83.20350
49950.00000	82.79060	-661.44543	82.79060
