---ACOUSTIC CALIBRATION---
Filename: C:\Data\AZH DATA\AZH61\RightSecondary.calib
Date: 8/27/2019 3:31:10 PM
Format: 4
Probe Tube Correction File: C:\Data\Probe Tube Calibrations\50_ProbeTube.calib
Experiment VIs: 850
EPL_CFTS.exe V12.0.1 (2012)
DAQmx V9.6

Attenuation (dB): 40.000000
Min Freq (Hz): 50.000000
Max Freq (Hz): 49950.000000
Freq Step (Hz): 50.000000
Sample Rate (Hz): 100000.000000
[Smoothing]
Method=None
MA.Iterations=0
MA.Length=0
Loess.Length=0
Loess.Type=Linear
Loess.Robust=FALSE


Freq(Hz)	Mag(dB)	Phase(deg)	Unsmoothed(dB)

50.00000	93.99849	618.76408	93.99849
100.00000	79.36619	508.28687	79.36619
150.00000	65.68866	548.34114	65.68866
200.00000	70.20848	455.81863	70.20848
250.00000	82.45590	390.60587	82.45590
300.00000	80.58606	322.42775	80.58606
350.00000	82.15389	328.32604	82.15389
400.00000	85.26697	337.31089	85.26697
450.00000	85.68037	306.64979	85.68037
500.00000	87.23535	319.71068	87.23535
550.00000	89.80157	311.69161	89.80157
600.00000	92.96918	317.49734	92.96918
650.00000	93.30115	300.96835	93.30115
700.00000	95.21397	297.37393	95.21397
750.00000	96.20091	290.60382	96.20091
800.00000	99.73570	283.84031	99.73570
850.00000	100.87472	271.27339	100.87472
900.00000	102.36207	256.28891	102.36207
950.00000	103.36742	238.20749	103.36742
1000.00000	103.29386	220.60288	103.29386
1050.00000	102.58381	211.22748	102.58381
1100.00000	102.66625	198.80773	102.66625
1150.00000	101.63198	187.76860	101.63198
1200.00000	101.47276	186.31088	101.47276
1250.00000	101.14347	174.76394	101.14347
1300.00000	100.04478	169.82388	100.04478
1350.00000	99.10334	164.32130	99.10334
1400.00000	99.03785	166.38325	99.03785
1450.00000	98.51198	164.84734	98.51198
1500.00000	98.97800	167.46996	98.97800
1550.00000	98.47857	163.11038	98.47857
1600.00000	99.71529	160.49824	99.71529
1650.00000	99.87792	150.34604	99.87792
1700.00000	99.06252	147.50104	99.06252
1750.00000	98.45309	145.43212	98.45309
1800.00000	98.33804	144.66382	98.33804
1850.00000	97.74652	145.43288	97.74652
1900.00000	99.02048	148.30734	99.02048
1950.00000	99.52896	138.27661	99.52896
2000.00000	99.60081	130.65715	99.60081
2050.00000	98.15787	126.27775	98.15787
2100.00000	98.51815	125.95522	98.51815
2150.00000	97.91644	120.68406	97.91644
2200.00000	97.75569	116.98384	97.75569
2250.00000	96.29779	116.69820	96.29779
2300.00000	96.66778	117.41240	96.66778
2350.00000	96.00184	117.34067	96.00184
2400.00000	96.31173	116.31549	96.31173
2450.00000	95.59898	116.77625	95.59898
2500.00000	95.78914	116.38190	95.78914
2550.00000	94.68703	119.43230	94.68703
2600.00000	94.85491	125.92898	94.85491
2650.00000	95.59479	135.00741	95.59479
2700.00000	97.63902	134.55866	97.63902
2750.00000	98.88587	129.00997	98.88587
2800.00000	99.61792	119.50933	99.61792
2850.00000	99.49735	111.18032	99.49735
2900.00000	99.31991	104.72247	99.31991
2950.00000	98.81890	100.07165	98.81890
3000.00000	98.41020	96.79762	98.41020
3050.00000	97.93573	94.06409	97.93573
3100.00000	97.79866	91.62042	97.79866
3150.00000	97.36888	87.34583	97.36888
3200.00000	96.73603	85.23865	96.73603
3250.00000	95.99212	83.45577	95.99212
3300.00000	95.06631	82.43486	95.06631
3350.00000	93.97349	83.43447	93.97349
3400.00000	92.95118	90.99545	92.95118
3450.00000	92.67371	99.24449	92.67371
3500.00000	93.06288	106.24310	93.06288
3550.00000	93.65764	110.54865	93.65764
3600.00000	94.00709	112.75268	94.00709
3650.00000	93.89425	115.90594	93.89425
3700.00000	93.46647	123.31740	93.46647
3750.00000	94.34390	135.80243	94.34390
3800.00000	95.98332	145.13098	95.98332
3850.00000	97.88169	148.49783	97.88169
3900.00000	99.67248	148.81135	99.67248
3950.00000	101.40469	146.29669	101.40469
4000.00000	102.74722	142.80816	102.74722
4050.00000	103.82697	137.83773	103.82697
4100.00000	104.72953	133.68400	104.72953
4150.00000	105.69396	130.66240	105.69396
4200.00000	106.37189	127.34930	106.37189
4250.00000	107.21989	124.68599	107.21989
4300.00000	108.14220	122.11254	108.14220
4350.00000	109.00698	120.06238	109.00698
4400.00000	110.12365	117.88184	110.12365
4450.00000	111.37205	114.87693	111.37205
4500.00000	112.72450	110.68064	112.72450
4550.00000	114.10156	104.98428	114.10156
4600.00000	115.47605	97.99595	115.47605
4650.00000	116.86600	89.66053	116.86600
4700.00000	118.17667	79.27330	118.17667
4750.00000	119.31633	66.95732	119.31633
4800.00000	120.17724	52.80344	120.17724
4850.00000	120.59793	37.49988	120.59793
4900.00000	120.53905	21.99346	120.53905
4950.00000	120.00058	 7.47199	120.00058
5000.00000	118.99014	-4.61278	118.99014
5050.00000	117.93164	-12.96413	117.93164
5100.00000	116.74417	-22.43247	116.74417
5150.00000	114.26549	-25.34806	114.26549
5200.00000	113.01714	-7.39422	113.01714
5250.00000	116.06164	-0.45747	116.06164
5300.00000	117.88293	-13.40718	117.88293
5350.00000	118.24341	-26.94662	118.24341
5400.00000	118.01486	-38.06359	118.01486
5450.00000	117.59121	-46.96507	117.59121
5500.00000	117.12023	-54.54877	117.12023
5550.00000	116.64584	-61.02943	116.64584
5600.00000	116.17734	-66.97009	116.17734
5650.00000	115.73757	-72.40000	115.73757
5700.00000	115.29333	-77.59024	115.29333
5750.00000	114.88177	-82.20144	114.88177
5800.00000	114.46395	-86.73479	114.46395
5850.00000	114.07841	-91.07618	114.07841
5900.00000	113.70717	-95.16136	113.70717
5950.00000	113.35078	-99.09455	113.35078
6000.00000	112.99926	-102.79152	112.99926
6050.00000	112.63728	-106.52960	112.63728
6100.00000	112.30349	-110.11713	112.30349
6150.00000	111.97051	-113.58413	111.97051
6200.00000	111.62666	-116.90532	111.62666
6250.00000	111.31123	-120.20781	111.31123
6300.00000	111.00410	-123.43859	111.00410
6350.00000	110.68836	-126.72192	110.68836
6400.00000	110.38490	-129.82530	110.38490
6450.00000	110.09798	-132.99432	110.09798
6500.00000	109.78908	-136.08416	109.78908
6550.00000	109.46338	-138.91815	109.46338
6600.00000	109.15360	-141.68504	109.15360
6650.00000	108.85302	-144.32125	108.85302
6700.00000	108.54877	-147.01767	108.54877
6750.00000	108.26453	-149.42821	108.26453
6800.00000	107.98376	-151.68442	107.98376
6850.00000	107.71941	-153.79052	107.71941
6900.00000	107.45721	-155.86970	107.45721
6950.00000	107.21052	-157.73651	107.21052
7000.00000	107.01199	-159.75787	107.01199
7050.00000	106.80323	-161.89420	106.80323
7100.00000	106.62746	-163.92191	106.62746
7150.00000	106.44664	-165.77529	106.44664
7200.00000	106.26941	-167.81505	106.26941
7250.00000	106.08961	-169.67569	106.08961
7300.00000	105.98014	-171.38464	105.98014
7350.00000	105.84748	-173.03876	105.84748
7400.00000	105.78826	-174.75034	105.78826
7450.00000	105.74313	-176.67697	105.74313
7500.00000	105.71540	-178.47827	105.71540
7550.00000	105.73788	-180.57742	105.73788
7600.00000	105.72090	-182.85343	105.72090
7650.00000	105.74524	-185.22427	105.74524
7700.00000	105.82345	-187.81214	105.82345
7750.00000	105.82831	-190.78286	105.82831
7800.00000	105.84877	-194.07230	105.84877
7850.00000	105.85165	-197.44117	105.85165
7900.00000	105.81576	-201.03628	105.81576
7950.00000	105.73335	-204.95370	105.73335
8000.00000	105.61990	-208.81768	105.61990
8050.00000	105.47059	-212.83632	105.47059
8100.00000	105.30657	-216.19863	105.30657
8150.00000	105.04680	-219.76772	105.04680
8200.00000	104.81263	-222.96273	104.81263
8250.00000	104.53294	-226.50703	104.53294
8300.00000	104.26593	-229.66056	104.26593
8350.00000	103.96086	-232.58121	103.96086
8400.00000	103.63445	-235.83285	103.63445
8450.00000	103.24381	-238.52775	103.24381
8500.00000	102.87377	-241.20972	102.87377
8550.00000	102.56820	-243.41187	102.56820
8600.00000	102.21636	-245.84512	102.21636
8650.00000	101.87886	-247.80114	101.87886
8700.00000	101.58751	-250.30741	101.58751
8750.00000	101.23306	-251.40657	101.23306
8800.00000	100.94361	-253.63965	100.94361
8850.00000	100.62699	-255.42308	100.62699
8900.00000	100.38386	-256.91458	100.38386
8950.00000	100.16159	-258.80836	100.16159
9000.00000	99.88372	-260.29353	99.88372
9050.00000	99.73831	-262.18110	99.73831
9100.00000	99.57076	-263.71893	99.57076
9150.00000	99.42831	-265.29228	99.42831
9200.00000	99.34308	-266.94638	99.34308
9250.00000	99.19072	-268.28393	99.19072
9300.00000	99.08896	-269.76634	99.08896
9350.00000	99.01165	-271.28479	99.01165
9400.00000	98.83177	-272.24348	98.83177
9450.00000	98.78838	-273.64245	98.78838
9500.00000	98.71462	-274.98878	98.71462
9550.00000	98.61175	-276.66748	98.61175
9600.00000	98.59452	-278.66401	98.59452
9650.00000	98.54190	-280.86223	98.54190
9700.00000	98.49792	-282.35783	98.49792
9750.00000	98.53949	-284.98536	98.53949
9800.00000	98.45615	-286.50314	98.45615
9850.00000	98.40720	-287.92490	98.40720
9900.00000	98.21088	-289.80217	98.21088
9950.00000	98.07328	-291.16057	98.07328
10000.00000	97.93643	-293.22282	97.93643
10050.00000	97.74776	-295.33433	97.74776
10100.00000	97.54565	-297.31110	97.54565
10150.00000	97.31014	-300.34736	97.31014
10200.00000	97.17380	-302.68920	97.17380
10250.00000	97.01865	-305.37797	97.01865
10300.00000	97.03363	-307.77277	97.03363
10350.00000	96.90385	-309.91864	96.90385
10400.00000	96.77047	-312.11084	96.77047
10450.00000	96.77289	-314.23533	96.77289
10500.00000	96.71356	-316.28662	96.71356
10550.00000	96.60964	-318.44884	96.60964
10600.00000	96.45631	-320.41374	96.45631
10650.00000	96.30694	-322.25641	96.30694
10700.00000	96.17971	-325.37370	96.17971
10750.00000	96.11504	-327.92448	96.11504
10800.00000	95.96701	-330.22853	95.96701
10850.00000	95.88450	-333.59051	95.88450
10900.00000	95.76540	-335.74637	95.76540
10950.00000	95.64253	-337.77446	95.64253
11000.00000	95.46548	-340.01273	95.46548
11050.00000	95.13193	-342.13105	95.13193
11100.00000	94.87756	-344.88378	94.87756
11150.00000	94.52768	-346.95339	94.52768
11200.00000	94.32258	-349.19999	94.32258
11250.00000	94.00110	-351.93910	94.00110
11300.00000	93.70294	-354.27234	93.70294
11350.00000	93.43586	-355.86295	93.43586
11400.00000	93.08894	-357.55094	93.08894
11450.00000	92.86472	-359.64476	92.86472
11500.00000	92.71095	-360.38414	92.71095
11550.00000	92.34267	-361.48681	92.34267
11600.00000	92.18617	-363.63600	92.18617
11650.00000	91.91752	-364.01455	91.91752
11700.00000	91.77311	-365.19794	91.77311
11750.00000	91.67052	-366.68100	91.67052
11800.00000	91.53176	-368.43566	91.53176
11850.00000	91.47805	-369.08369	91.47805
11900.00000	91.20542	-370.83456	91.20542
11950.00000	91.11781	-371.92114	91.11781
12000.00000	90.89824	-373.06481	90.89824
12050.00000	90.67801	-374.46675	90.67801
12100.00000	90.55188	-377.32257	90.55188
12150.00000	90.34363	-379.48459	90.34363
12200.00000	90.27409	-381.99333	90.27409
12250.00000	90.11484	-383.90557	90.11484
12300.00000	91.06909	-386.11102	91.06909
12350.00000	89.74655	-388.11622	89.74655
12400.00000	89.47279	-389.03741	89.47279
12450.00000	89.16946	-390.58453	89.16946
12500.00000	88.80716	-392.31378	88.80716
12550.00000	88.44025	-393.92086	88.44025
12600.00000	88.03727	-396.08778	88.03727
12650.00000	87.86236	-397.43417	87.86236
12700.00000	87.41460	-398.77614	87.41460
12750.00000	87.06186	-400.12665	87.06186
12800.00000	86.72456	-400.57041	86.72456
12850.00000	86.09467	-401.09301	86.09467
12900.00000	85.80052	-401.61856	85.80052
12950.00000	85.43715	-402.45212	85.43715
13000.00000	85.15275	-403.90119	85.15275
13050.00000	85.05498	-402.40913	85.05498
13100.00000	84.77363	-402.71681	84.77363
13150.00000	84.58523	-403.63078	84.58523
13200.00000	84.33715	-402.23902	84.33715
13250.00000	84.06601	-401.50296	84.06601
13300.00000	83.75268	-399.77646	83.75268
13350.00000	83.30220	-400.66457	83.30220
13400.00000	83.34404	-401.12336	83.34404
13450.00000	82.90836	-399.61246	82.90836
13500.00000	82.93507	-398.46515	82.93507
13550.00000	82.58103	-398.84987	82.58103
13600.00000	82.51073	-396.95844	82.51073
13650.00000	82.38709	-396.19812	82.38709
13700.00000	81.98897	-394.57511	81.98897
13750.00000	81.91113	-394.22295	81.91113
13800.00000	81.79479	-394.21300	81.79479
13850.00000	81.43538	-395.19331	81.43538
13900.00000	81.43322	-393.86246	81.43322
13950.00000	81.61057	-393.67338	81.61057
14000.00000	81.73141	-391.12333	81.73141
14050.00000	81.69159	-390.16926	81.69159
14100.00000	81.63597	-387.53937	81.63597
14150.00000	81.70849	-386.49580	81.70849
14200.00000	81.88955	-385.19337	81.88955
14250.00000	82.18098	-381.74075	82.18098
14300.00000	82.25409	-381.99638	82.25409
14350.00000	82.19374	-379.46730	82.19374
14400.00000	82.04222	-378.99642	82.04222
14450.00000	82.18996	-376.97912	82.18996
14500.00000	82.12744	-377.77506	82.12744
14550.00000	82.76518	-376.55018	82.76518
14600.00000	82.77819	-376.63640	82.77819
14650.00000	83.39395	-373.33653	83.39395
14700.00000	83.74435	-377.04583	83.74435
14750.00000	84.03181	-375.23421	84.03181
14800.00000	84.35979	-373.18280	84.35979
14850.00000	84.65780	-373.34111	84.65780
14900.00000	84.83059	-374.13195	84.83059
14950.00000	85.36385	-375.15827	85.36385
15000.00000	85.68173	-375.21519	85.68173
15050.00000	85.89593	-373.81764	85.89593
15100.00000	86.16955	-374.80439	86.16955
15150.00000	86.65794	-376.18122	86.65794
15200.00000	87.01972	-375.71846	87.01972
15250.00000	87.11661	-376.36226	87.11661
15300.00000	87.64905	-377.86043	87.64905
15350.00000	87.87077	-378.17128	87.87077
15400.00000	88.10401	-377.52563	88.10401
15450.00000	88.40177	-378.87866	88.40177
15500.00000	88.86236	-379.67590	88.86236
15550.00000	89.21198	-381.64477	89.21198
15600.00000	89.56449	-383.82545	89.56449
15650.00000	90.14789	-382.59662	90.14789
15700.00000	90.35210	-384.59841	90.35210
15750.00000	90.85377	-385.98644	90.85377
15800.00000	91.23656	-385.94816	91.23656
15850.00000	91.46935	-387.95666	91.46935
15900.00000	91.83204	-390.65392	91.83204
15950.00000	92.19213	-392.23586	92.19213
16000.00000	92.58358	-393.37777	92.58358
16050.00000	93.07144	-395.61169	93.07144
16100.00000	93.29083	-398.16087	93.29083
16150.00000	93.50450	-400.11481	93.50450
16200.00000	93.89829	-403.11164	93.89829
16250.00000	94.29477	-404.93365	94.29477
16300.00000	94.75665	-407.17478	94.75665
16350.00000	95.10171	-409.69595	95.10171
16400.00000	95.33573	-411.93580	95.33573
16450.00000	95.60044	-414.19753	95.60044
16500.00000	95.84435	-417.77179	95.84435
16550.00000	96.12907	-420.81361	96.12907
16600.00000	96.40835	-423.55769	96.40835
16650.00000	96.63675	-426.17917	96.63675
16700.00000	96.86038	-428.41167	96.86038
16750.00000	96.95086	-431.42334	96.95086
16800.00000	97.17846	-434.40628	97.17846
16850.00000	97.43537	-437.38017	97.43537
16900.00000	97.67693	-440.38397	97.67693
16950.00000	97.75817	-442.82431	97.75817
17000.00000	97.84365	-445.02919	97.84365
17050.00000	98.02197	-447.31217	98.02197
17100.00000	98.10464	-449.02265	98.10464
17150.00000	98.40962	-452.44091	98.40962
17200.00000	98.55104	-454.50198	98.55104
17250.00000	98.67927	-457.51610	98.67927
17300.00000	98.94398	-459.76344	98.94398
17350.00000	98.92942	-461.71500	98.92942
17400.00000	99.21924	-464.78447	99.21924
17450.00000	99.31556	-467.51196	99.31556
17500.00000	99.49770	-470.34294	99.49770
17550.00000	99.75716	-472.52374	99.75716
17600.00000	99.99484	-474.66484	99.99484
17650.00000	100.10864	-478.37387	100.10864
17700.00000	100.28547	-481.06965	100.28547
17750.00000	100.52208	-483.35663	100.52208
17800.00000	100.61105	-486.87529	100.61105
17850.00000	100.79863	-489.09920	100.79863
17900.00000	100.90179	-492.15995	100.90179
17950.00000	101.16181	-495.34037	101.16181
18000.00000	101.21156	-498.77566	101.21156
18050.00000	101.49370	-501.60033	101.49370
18100.00000	101.57507	-504.77070	101.57507
18150.00000	101.68188	-507.15194	101.68188
18200.00000	101.72608	-511.22489	101.72608
18250.00000	101.88826	-513.39998	101.88826
18300.00000	102.05050	-516.87135	102.05050
18350.00000	102.17716	-519.67182	102.17716
18400.00000	102.20315	-522.90947	102.20315
18450.00000	102.25174	-527.45155	102.25174
18500.00000	102.34930	-530.15965	102.34930
18550.00000	102.39605	-533.12256	102.39605
18600.00000	102.59940	-536.70225	102.59940
18650.00000	102.53642	-539.59971	102.53642
18700.00000	102.56846	-543.27463	102.56846
18750.00000	102.70025	-546.40094	102.70025
18800.00000	102.81531	-548.91006	102.81531
18850.00000	102.74787	-552.65673	102.74787
18900.00000	102.79316	-555.55465	102.79316
18950.00000	102.82941	-559.43548	102.82941
19000.00000	102.75279	-562.24412	102.75279
19050.00000	102.86630	-565.82795	102.86630
19100.00000	102.82961	-569.10222	102.82961
19150.00000	102.99440	-572.21338	102.99440
19200.00000	102.94926	-575.13464	102.94926
19250.00000	102.91192	-579.28966	102.91192
19300.00000	102.82454	-581.97944	102.82454
19350.00000	102.83569	-585.47306	102.83569
19400.00000	102.78090	-588.60890	102.78090
19450.00000	102.82732	-591.23894	102.82732
19500.00000	102.69038	-595.25947	102.69038
19550.00000	102.64191	-598.36306	102.64191
19600.00000	102.67581	-602.08661	102.67581
19650.00000	102.56207	-604.75200	102.56207
19700.00000	102.38276	-608.02686	102.38276
19750.00000	102.30810	-610.61769	102.30810
19800.00000	102.30287	-614.56846	102.30287
19850.00000	102.22129	-617.48356	102.22129
19900.00000	102.08899	-621.36279	102.08899
19950.00000	101.93785	-624.15854	101.93785
20000.00000	101.84087	-627.25237	101.84087
20050.00000	101.68802	-630.11857	101.68802
20100.00000	101.48110	-633.25245	101.48110
20150.00000	101.41126	-635.25680	101.41126
20200.00000	101.20133	-638.91757	101.20133
20250.00000	100.99216	-641.39380	100.99216
20300.00000	100.74142	-644.09850	100.74142
20350.00000	100.63813	-647.03648	100.63813
20400.00000	100.36704	-648.56459	100.36704
20450.00000	100.11170	-651.01982	100.11170
20500.00000	99.96707	-653.37410	99.96707
20550.00000	99.50707	-654.64379	99.50707
20600.00000	99.39721	-656.51071	99.39721
20650.00000	99.20219	-657.95881	99.20219
20700.00000	98.96857	-659.29007	98.96857
20750.00000	98.81697	-660.19192	98.81697
20800.00000	98.60515	-661.10254	98.60515
20850.00000	98.54390	-662.15417	98.54390
20900.00000	98.36284	-662.79050	98.36284
20950.00000	98.25915	-662.76959	98.25915
21000.00000	98.18727	-663.14938	98.18727
21050.00000	98.31535	-663.12804	98.31535
21100.00000	98.34004	-663.41077	98.34004
21150.00000	98.51190	-664.06840	98.51190
21200.00000	98.68326	-664.10580	98.68326
21250.00000	98.83764	-666.09938	98.83764
21300.00000	99.09623	-666.91658	99.09623
21350.00000	99.27823	-668.16199	99.27823
21400.00000	99.47702	-670.21721	99.47702
21450.00000	99.70704	-672.05106	99.70704
21500.00000	99.89861	-674.72266	99.89861
21550.00000	99.94817	-676.82620	99.94817
21600.00000	100.19490	-679.42644	100.19490
21650.00000	100.29519	-682.14494	100.29519
21700.00000	100.37473	-684.30380	100.37473
21750.00000	100.47758	-687.08235	100.47758
21800.00000	100.55951	-689.85858	100.55951
21850.00000	100.55789	-692.51697	100.55789
21900.00000	100.63149	-694.80829	100.63149
21950.00000	100.60430	-697.14082	100.60430
22000.00000	100.70057	-699.55937	100.70057
22050.00000	100.68620	-701.92788	100.68620
22100.00000	100.68178	-704.11921	100.68178
22150.00000	100.65676	-706.54749	100.65676
22200.00000	100.72276	-708.78988	100.72276
22250.00000	100.65137	-710.84554	100.65137
22300.00000	100.57905	-712.88569	100.57905
22350.00000	100.58331	-715.40504	100.58331
22400.00000	100.67758	-717.74570	100.67758
22450.00000	100.52621	-719.59438	100.52621
22500.00000	100.55048	-720.79896	100.55048
22550.00000	100.51260	-722.21225	100.51260
22600.00000	100.52392	-725.44772	100.52392
22650.00000	100.46904	-727.32645	100.46904
22700.00000	100.48224	-728.76100	100.48224
22750.00000	100.45580	-728.89139	100.45580
22800.00000	100.50704	-732.79164	100.50704
22850.00000	100.55171	-734.55658	100.55171
22900.00000	100.58401	-735.74651	100.58401
22950.00000	100.60531	-737.06627	100.60531
23000.00000	100.61947	-738.15710	100.61947
23050.00000	100.59469	-741.04842	100.59469
23100.00000	100.70463	-741.15594	100.70463
23150.00000	100.60715	-741.94245	100.60715
23200.00000	100.83052	-745.49774	100.83052
23250.00000	100.75449	-747.99226	100.75449
23300.00000	101.03938	-749.68787	101.03938
23350.00000	100.75586	-751.63022	100.75586
23400.00000	100.79146	-753.49074	100.79146
23450.00000	101.03737	-755.02814	101.03737
23500.00000	100.94694	-756.30889	100.94694
23550.00000	101.03325	-756.66174	101.03325
23600.00000	101.02228	-761.02557	101.02228
23650.00000	101.13584	-762.01814	101.13584
23700.00000	101.36488	-766.52530	101.36488
23750.00000	101.28919	-766.52606	101.28919
23800.00000	101.19139	-767.37418	101.19139
23850.00000	101.44228	-769.64811	101.44228
23900.00000	101.75996	-771.71505	101.75996
23950.00000	101.55849	-774.52930	101.55849
24000.00000	101.50387	-778.18892	101.50387
24050.00000	101.75407	-778.25254	101.75407
24100.00000	101.97572	-782.09223	101.97572
24150.00000	102.05554	-784.12941	102.05554
24200.00000	102.12964	-788.15457	102.12964
24250.00000	101.82920	-788.42627	101.82920
24300.00000	102.12697	-791.91048	102.12697
24350.00000	102.03477	-794.36578	102.03477
24400.00000	102.13378	-797.92826	102.13378
24450.00000	101.90423	-799.64972	101.90423
24500.00000	102.43067	-801.71515	102.43067
24550.00000	102.08299	-806.98374	102.08299
24600.00000	102.59969	-448.16850	102.59969
24650.00000	102.32926	-93.16594	102.32926
24700.00000	102.22118	266.70956	102.22118
24750.00000	102.20348	621.29255	102.20348
24800.00000	102.21003	979.04806	102.21003
24850.00000	101.84659	1337.18145	101.84659
24900.00000	102.55632	1338.62054	102.55632
24950.00000	101.99916	1690.56124	101.99916
25000.00000	102.11538	1683.27928	102.11538
25050.00000	101.95859	1682.92290	101.95859
25100.00000	101.53716	1679.09543	101.53716
25150.00000	101.71214	1679.18952	101.71214
25200.00000	101.40616	1673.48027	101.40616
25250.00000	101.52987	1672.02768	101.52987
25300.00000	101.33528	1670.23901	101.33528
25350.00000	101.22119	1663.28479	101.22119
25400.00000	101.17031	1658.70215	101.17031
25450.00000	101.17704	1657.59287	101.17704
25500.00000	100.85071	1656.36245	100.85071
25550.00000	100.61695	1651.01819	100.61695
25600.00000	100.69551	1648.96611	100.69551
25650.00000	100.43072	1646.29772	100.43072
25700.00000	100.33860	1643.62132	100.33860
25750.00000	100.00454	1640.04244	100.00454
25800.00000	99.95809	1636.43530	99.95809
25850.00000	99.78945	1633.19350	99.78945
25900.00000	99.53759	1629.70127	99.53759
25950.00000	99.23329	1630.69749	99.23329
26000.00000	99.06820	1625.42116	99.06820
26050.00000	99.03476	1622.97621	99.03476
26100.00000	98.71827	1620.88381	98.71827
26150.00000	98.53569	1617.47343	98.53569
26200.00000	98.49477	1615.07375	98.49477
26250.00000	98.11127	1612.61962	98.11127
26300.00000	98.04816	1608.18480	98.04816
26350.00000	97.56273	1607.85980	97.56273
26400.00000	97.34660	1603.81797	97.34660
26450.00000	97.52179	1601.85321	97.52179
26500.00000	97.10918	1598.83730	97.10918
26550.00000	96.86118	1594.12779	96.86118
26600.00000	96.62286	1591.91383	96.62286
26650.00000	96.49436	1592.27769	96.49436
26700.00000	96.27048	1588.39728	96.27048
26750.00000	95.91604	1586.94604	95.91604
26800.00000	95.66621	1582.18911	95.66621
26850.00000	95.60717	1581.59745	95.60717
26900.00000	95.51156	1581.33790	95.51156
26950.00000	95.48813	1576.81114	95.48813
27000.00000	94.80541	1576.20045	94.80541
27050.00000	94.97919	1574.53880	94.97919
27100.00000	94.43387	1573.25862	94.43387
27150.00000	94.31950	1570.25927	94.31950
27200.00000	94.01686	1568.59344	94.01686
27250.00000	93.77214	1568.90322	93.77214
27300.00000	93.33181	1566.43130	93.33181
27350.00000	93.55991	1567.00268	93.55991
27400.00000	93.06491	1564.30913	93.06491
27450.00000	92.81098	1563.36642	92.81098
27500.00000	92.81090	1561.69288	92.81090
27550.00000	92.66235	1561.11201	92.66235
27600.00000	92.96021	1559.61298	92.96021
27650.00000	92.52390	1559.27910	92.52390
27700.00000	92.55413	1556.97857	92.55413
27750.00000	92.40205	1554.54403	92.40205
27800.00000	92.68631	1552.44574	92.68631
27850.00000	92.87535	1555.37072	92.87535
27900.00000	92.57837	1553.84117	92.57837
27950.00000	91.83978	1551.80324	91.83978
28000.00000	92.06595	1553.31936	92.06595
28050.00000	92.72959	1549.05886	92.72959
28100.00000	92.08965	1550.27648	92.08965
28150.00000	92.17090	1548.48576	92.17090
28200.00000	92.43981	1545.93722	92.43981
28250.00000	92.28376	1542.99320	92.28376
28300.00000	92.15812	1542.35068	92.15812
28350.00000	92.32182	1542.16665	92.32182
28400.00000	92.66956	1541.92846	92.66956
28450.00000	93.05408	1540.01615	93.05408
28500.00000	92.58068	1538.51723	92.58068
28550.00000	92.60185	1539.35389	92.60185
28600.00000	92.84996	1539.19918	92.84996
28650.00000	93.33410	1533.77419	93.33410
28700.00000	93.25844	1536.29363	93.25844
28750.00000	93.79531	1535.01200	93.79531
28800.00000	94.00936	1533.34866	94.00936
28850.00000	93.35488	1528.01292	93.35488
28900.00000	93.83143	1527.65977	93.83143
28950.00000	93.59093	1528.64571	93.59093
29000.00000	94.16267	1525.51033	94.16267
29050.00000	93.79729	1525.93556	93.79729
29100.00000	94.14768	1524.56479	94.14768
29150.00000	94.09498	1522.57179	94.09498
29200.00000	94.15824	1520.35792	94.15824
29250.00000	94.46489	1518.38648	94.46489
29300.00000	94.36319	1516.08002	94.36319
29350.00000	94.79204	1513.15762	94.79204
29400.00000	94.82044	1511.58289	94.82044
29450.00000	95.08237	1511.50914	95.08237
29500.00000	95.34134	1509.47567	95.34134
29550.00000	95.09094	1504.87144	95.09094
29600.00000	95.12288	1505.56243	95.12288
29650.00000	95.32586	1502.11992	95.32586
29700.00000	95.17104	1503.25512	95.17104
29750.00000	95.19857	1502.57941	95.19857
29800.00000	95.06110	1498.34605	95.06110
29850.00000	95.14963	1496.06293	95.14963
29900.00000	95.47413	1496.72099	95.47413
29950.00000	94.82292	1494.66963	94.82292
30000.00000	95.17587	1495.78094	95.17587
30050.00000	95.23891	1493.26919	95.23891
30100.00000	94.86767	1492.85980	94.86767
30150.00000	95.07812	1489.60156	95.07812
30200.00000	95.05881	1488.33018	95.05881
30250.00000	94.92312	1487.87730	94.92312
30300.00000	94.63637	1489.68108	94.63637
30350.00000	94.78379	1490.10313	94.78379
30400.00000	94.77719	1488.50206	94.77719
30450.00000	94.38010	1488.58524	94.38010
30500.00000	94.42082	1488.13095	94.42082
30550.00000	94.23187	1490.26105	94.23187
30600.00000	94.38740	1491.55337	94.38740
30650.00000	94.53505	1490.91258	94.53505
30700.00000	94.53699	1491.87827	94.53699
30750.00000	94.45317	1494.11706	94.45317
30800.00000	94.64603	1494.87489	94.64603
30850.00000	94.75208	1498.62632	94.75208
30900.00000	94.85891	1499.91671	94.85891
30950.00000	95.22899	1500.31532	95.22899
31000.00000	95.63536	1500.92656	95.63536
31050.00000	95.97531	1502.47773	95.97531
31100.00000	96.58318	1504.37114	96.58318
31150.00000	96.71039	1504.31450	96.71039
31200.00000	97.59579	1504.60839	97.59579
31250.00000	97.88248	1504.89898	97.88248
31300.00000	98.42984	1504.79515	98.42984
31350.00000	99.05189	1503.15652	99.05189
31400.00000	99.37363	1502.02943	99.37363
31450.00000	99.98941	1501.11191	99.98941
31500.00000	100.37939	1497.74500	100.37939
31550.00000	100.95931	1496.36651	100.95931
31600.00000	101.53674	1493.18490	101.53674
31650.00000	101.88797	1490.00768	101.88797
31700.00000	102.36171	1488.10060	102.36171
31750.00000	102.82371	1485.44189	102.82371
31800.00000	102.97718	1482.28720	102.97718
31850.00000	103.58977	1477.47371	103.58977
31900.00000	103.64655	1474.60291	103.64655
31950.00000	104.01735	1470.11656	104.01735
32000.00000	104.28295	1466.49170	104.28295
32050.00000	104.54565	1463.30183	104.54565
32100.00000	104.62637	1458.18095	104.62637
32150.00000	104.73897	1455.00765	104.73897
32200.00000	105.06413	1450.17356	105.06413
32250.00000	105.02969	1446.03652	105.02969
32300.00000	105.10341	1442.47822	105.10341
32350.00000	105.14473	1439.12670	105.14473
32400.00000	105.29338	1435.50945	105.29338
32450.00000	105.19786	1430.77150	105.19786
32500.00000	105.29996	1427.03866	105.29996
32550.00000	105.38574	1422.78212	105.38574
32600.00000	105.26796	1419.24106	105.26796
32650.00000	105.29156	1415.69589	105.29156
32700.00000	105.30262	1411.69593	105.30262
32750.00000	105.26209	1407.62213	105.26209
32800.00000	105.30740	1404.87289	105.30740
32850.00000	105.33940	1401.15547	105.33940
32900.00000	105.17497	1396.29993	105.17497
32950.00000	104.93302	1391.70629	104.93302
33000.00000	105.04727	1390.54036	105.04727
33050.00000	104.90531	1384.54054	104.90531
33100.00000	104.85933	1382.10737	104.85933
33150.00000	104.71886	1380.18728	104.71886
33200.00000	104.87623	1377.42580	104.87623
33250.00000	104.68919	1374.27754	104.68919
33300.00000	104.49492	1369.24822	104.49492
33350.00000	104.32699	1366.95908	104.32699
33400.00000	104.42887	1363.77010	104.42887
33450.00000	104.33078	1360.32755	104.33078
33500.00000	104.47447	1358.69602	104.47447
33550.00000	104.25644	1353.51842	104.25644
33600.00000	104.17902	1350.95784	104.17902
33650.00000	104.25081	1347.41577	104.25081
33700.00000	104.25112	1344.97862	104.25112
33750.00000	104.14036	1341.93133	104.14036
33800.00000	104.07914	1338.79462	104.07914
33850.00000	103.88767	1334.72538	103.88767
33900.00000	104.05350	1331.48303	104.05350
33950.00000	104.05202	1328.37820	104.05202
34000.00000	104.10434	1325.26649	104.10434
34050.00000	103.93810	1321.51101	103.93810
34100.00000	103.82040	1319.18975	103.82040
34150.00000	103.84893	1314.99081	103.84893
34200.00000	103.67534	1312.68713	103.67534
34250.00000	103.67597	1308.68147	103.67597
34300.00000	103.70771	1304.76820	103.70771
34350.00000	103.63206	1302.52480	103.63206
34400.00000	103.14538	1300.56409	103.14538
34450.00000	103.35521	1295.14498	103.35521
34500.00000	102.85820	1293.99405	102.85820
34550.00000	102.89844	1291.63980	102.89844
34600.00000	102.54849	1287.98373	102.54849
34650.00000	102.87284	1288.74272	102.87284
34700.00000	102.27198	1285.66401	102.27198
34750.00000	102.63757	1281.06010	102.63757
34800.00000	102.92306	1282.80348	102.92306
34850.00000	102.98452	1280.65203	102.98452
34900.00000	102.69235	1275.65646	102.69235
34950.00000	102.43885	1275.31551	102.43885
35000.00000	102.42166	1273.12790	102.42166
35050.00000	102.52118	1273.22631	102.52118
35100.00000	102.58628	1268.64839	102.58628
35150.00000	102.21380	1268.46318	102.21380
35200.00000	102.24354	1265.04318	102.24354
35250.00000	102.45665	1264.06962	102.45665
35300.00000	102.54900	1261.69140	102.54900
35350.00000	102.88800	1258.63621	102.88800
35400.00000	102.85503	1258.70506	102.85503
35450.00000	103.25943	1259.08878	103.25943
35500.00000	102.73632	1253.48924	102.73632
35550.00000	103.06470	1253.09102	103.06470
35600.00000	102.99420	1252.55516	102.99420
35650.00000	103.08449	1249.96374	103.08449
35700.00000	103.32116	1247.92694	103.32116
35750.00000	103.32594	1246.35153	103.32594
35800.00000	103.30371	1247.49011	103.30371
35850.00000	103.69561	1243.06583	103.69561
35900.00000	103.83557	1241.22257	103.83557
35950.00000	104.01018	1238.80557	104.01018
36000.00000	104.20648	1236.76918	104.20648
36050.00000	104.33112	1234.58810	104.33112
36100.00000	104.55260	1232.56345	104.55260
36150.00000	104.18117	1231.70031	104.18117
36200.00000	104.67784	1230.62824	104.67784
36250.00000	104.56932	1228.80593	104.56932
36300.00000	104.72361	1226.20398	104.72361
36350.00000	105.35908	1226.58006	105.35908
36400.00000	105.13202	1224.33320	105.13202
36450.00000	105.10178	1221.20560	105.10178
36500.00000	105.45477	1218.51122	105.45477
36550.00000	105.18983	1218.39672	105.18983
36600.00000	105.39247	1217.10291	105.39247
36650.00000	105.52157	1216.13847	105.52157
36700.00000	105.78469	1213.35881	105.78469
36750.00000	105.98058	1211.29622	105.98058
36800.00000	106.10428	1209.76845	106.10428
36850.00000	105.94134	1208.03339	105.94134
36900.00000	106.50655	1206.84671	106.50655
36950.00000	106.20770	1204.21446	106.20770
37000.00000	105.89998	1203.69357	105.89998
37050.00000	106.07805	1203.47693	106.07805
37100.00000	106.60386	1202.44776	106.60386
37150.00000	106.72460	1200.20309	106.72460
37200.00000	106.83132	1200.98441	106.83132
37250.00000	106.94327	1198.84505	106.94327
37300.00000	106.96900	1196.91741	106.96900
37350.00000	107.60162	1195.31948	107.60162
37400.00000	107.30779	1192.47154	107.30779
37450.00000	107.04635	1193.83116	107.04635
37500.00000	107.95169	1191.54700	107.95169
37550.00000	107.81412	1191.96199	107.81412
37600.00000	108.01063	1188.65262	108.01063
37650.00000	108.19607	1187.76165	108.19607
37700.00000	108.50775	1187.42694	108.50775
37750.00000	108.83110	1187.15922	108.83110
37800.00000	109.05529	1183.83739	109.05529
37850.00000	109.44732	1178.96484	109.44732
37900.00000	109.50011	1178.78473	109.50011
37950.00000	109.71729	1178.16292	109.71729
38000.00000	109.93004	1175.84282	109.93004
38050.00000	110.23094	1173.22188	110.23094
38100.00000	110.34135	1168.86696	110.34135
38150.00000	110.73931	1167.51961	110.73931
38200.00000	110.88270	1163.49572	110.88270
38250.00000	111.17153	1161.20951	111.17153
38300.00000	111.22065	1157.68828	111.22065
38350.00000	111.33058	1154.61142	111.33058
38400.00000	111.60084	1151.98931	111.60084
38450.00000	111.90614	1147.55967	111.90614
38500.00000	112.03971	1143.03282	112.03971
38550.00000	112.40516	1139.60319	112.40516
38600.00000	112.43448	1134.77417	112.43448
38650.00000	112.64278	1130.32030	112.64278
38700.00000	112.57901	1125.83928	112.57901
38750.00000	112.68019	1122.11452	112.68019
38800.00000	112.81324	1117.83794	112.81324
38850.00000	112.94833	1113.45369	112.94833
38900.00000	113.00986	1108.68158	113.00986
38950.00000	113.10902	1103.43572	113.10902
39000.00000	112.96529	1098.48562	112.96529
39050.00000	113.02299	1094.05159	113.02299
39100.00000	112.89564	1088.90266	112.89564
39150.00000	112.74522	1084.88374	112.74522
39200.00000	112.86568	1080.18145	112.86568
39250.00000	112.66173	1075.22570	112.66173
39300.00000	112.59235	1070.31664	112.59235
39350.00000	112.44117	1066.51739	112.44117
39400.00000	112.33087	1061.46312	112.33087
39450.00000	112.19845	1056.59422	112.19845
39500.00000	111.98307	1051.88567	111.98307
39550.00000	111.78317	1047.36163	111.78317
39600.00000	111.49572	1043.20480	111.49572
39650.00000	111.41614	1039.56782	111.41614
39700.00000	111.16511	1034.86241	111.16511
39750.00000	110.90845	1030.11021	110.90845
39800.00000	110.69743	1026.68207	110.69743
39850.00000	110.50242	1022.97914	110.50242
39900.00000	110.22913	1018.99420	110.22913
39950.00000	109.98630	1015.58999	109.98630
40000.00000	109.56979	1013.00707	109.56979
40050.00000	109.36732	1008.98646	109.36732
40100.00000	109.11187	1005.54305	109.11187
40150.00000	108.92120	1002.46194	108.92120
40200.00000	108.65191	998.78846	108.65191
40250.00000	108.40814	996.11803	108.40814
40300.00000	108.16320	993.51645	108.16320
40350.00000	107.82775	991.41551	107.82775
40400.00000	107.56783	989.12362	107.56783
40450.00000	107.41523	986.28376	107.41523
40500.00000	107.28047	984.64330	107.28047
40550.00000	107.01583	982.07281	107.01583
40600.00000	106.88977	980.47251	106.88977
40650.00000	106.69667	979.55645	106.69667
40700.00000	106.36540	978.16334	106.36540
40750.00000	106.35561	976.39612	106.35561
40800.00000	106.29361	973.98385	106.29361
40850.00000	106.13541	974.71050	106.13541
40900.00000	106.00249	972.27192	106.00249
40950.00000	105.79899	971.97310	105.79899
41000.00000	105.73058	970.47850	105.73058
41050.00000	105.86132	970.26431	105.86132
41100.00000	105.98190	969.32281	105.98190
41150.00000	106.07015	970.14659	106.07015
41200.00000	106.16591	968.58015	106.16591
41250.00000	106.15659	966.15890	106.15659
41300.00000	106.03954	967.58184	106.03954
41350.00000	106.33785	967.18011	106.33785
41400.00000	106.40075	961.26865	106.40075
41450.00000	106.76272	964.03892	106.76272
41500.00000	106.68455	964.15979	106.68455
41550.00000	106.70086	965.96706	106.70086
41600.00000	106.71116	963.24739	106.71116
41650.00000	107.50297	961.54247	107.50297
41700.00000	107.65674	960.12424	107.65674
41750.00000	107.55495	964.21326	107.55495
41800.00000	107.10833	957.31644	107.10833
41850.00000	107.16285	958.17098	107.16285
41900.00000	107.14785	958.38442	107.14785
41950.00000	108.53943	962.06672	108.53943
42000.00000	107.85593	954.92395	107.85593
42050.00000	107.08700	953.96963	107.08700
42100.00000	107.65223	953.07895	107.65223
42150.00000	107.35888	947.65213	107.35888
42200.00000	107.31670	955.08854	107.31670
42250.00000	107.46777	951.00102	107.46777
42300.00000	106.52052	948.24434	106.52052
42350.00000	107.12484	947.37560	107.12484
42400.00000	107.16923	948.89455	107.16923
42450.00000	107.67190	943.97848	107.67190
42500.00000	107.13739	942.83338	107.13739
42550.00000	106.94578	952.77172	106.94578
42600.00000	106.69380	944.93854	106.69380
42650.00000	106.52341	944.31870	106.52341
42700.00000	106.00792	943.47524	106.00792
42750.00000	107.17489	941.56058	107.17489
42800.00000	106.25193	933.44353	106.25193
42850.00000	105.98907	934.11451	105.98907
42900.00000	106.91455	938.52351	106.91455
42950.00000	105.90853	935.20590	105.90853
43000.00000	106.38075	927.35212	106.38075
43050.00000	105.51896	924.36259	105.51896
43100.00000	105.86015	928.06858	105.86015
43150.00000	104.76769	925.65356	104.76769
43200.00000	105.17236	922.67059	105.17236
43250.00000	104.79312	916.18869	104.79312
43300.00000	104.77154	915.59253	104.77154
43350.00000	105.56146	913.67378	105.56146
43400.00000	104.92960	911.45168	104.92960
43450.00000	105.44289	912.03376	105.44289
43500.00000	104.43708	903.56677	104.43708
43550.00000	105.04359	898.91592	105.04359
43600.00000	104.29281	899.14684	104.29281
43650.00000	104.80844	887.66779	104.80844
43700.00000	104.27434	888.64040	104.27434
43750.00000	103.79917	885.59611	103.79917
43800.00000	103.59120	877.45714	103.59120
43850.00000	103.76839	872.50547	103.76839
43900.00000	103.74232	872.35040	103.74232
43950.00000	103.36843	864.76997	103.36843
44000.00000	102.75898	862.57556	102.75898
44050.00000	102.85211	858.77512	102.85211
44100.00000	102.43547	844.08829	102.43547
44150.00000	101.83703	847.23828	101.83703
44200.00000	101.92486	847.61052	101.92486
44250.00000	102.03900	840.55363	102.03900
44300.00000	101.89474	834.37627	101.89474
44350.00000	100.27232	829.30053	100.27232
44400.00000	100.96019	826.52182	100.96019
44450.00000	101.10271	825.07232	101.10271
44500.00000	100.91233	821.04923	100.91233
44550.00000	101.41170	813.41451	101.41170
44600.00000	99.79283	813.11382	99.79283
44650.00000	99.64375	804.61349	99.64375
44700.00000	99.26669	803.14755	99.26669
44750.00000	99.60731	802.57607	99.60731
44800.00000	100.69661	796.07390	100.69661
44850.00000	99.62874	791.85187	99.62874
44900.00000	98.88557	788.47306	98.88557
44950.00000	100.33339	785.09276	100.33339
45000.00000	99.30982	774.48537	99.30982
45050.00000	96.95706	774.99822	96.95706
45100.00000	98.21248	766.65138	98.21248
45150.00000	97.20891	761.14892	97.20891
45200.00000	97.24118	762.85708	97.24118
45250.00000	97.41693	755.90864	97.41693
45300.00000	97.93003	748.05317	97.93003
45350.00000	96.83421	742.77300	96.83421
45400.00000	97.13878	739.55953	97.13878
45450.00000	96.63552	731.62035	96.63552
45500.00000	95.51075	721.65514	95.51075
45550.00000	95.81141	721.68857	95.81141
45600.00000	95.88039	717.09672	95.88039
45650.00000	94.61298	713.31761	94.61298
45700.00000	94.70623	704.18637	94.70623
45750.00000	95.20465	703.00954	95.20465
45800.00000	93.51399	697.24187	93.51399
45850.00000	94.19207	690.40050	94.19207
45900.00000	94.19708	680.48760	94.19708
45950.00000	92.91809	684.57099	92.91809
46000.00000	90.78727	668.20328	90.78727
46050.00000	91.29188	667.26434	91.29188
46100.00000	89.30162	667.41575	89.30162
46150.00000	89.98899	663.58777	89.98899
46200.00000	87.51548	649.06001	87.51548
46250.00000	88.25198	648.04357	88.25198
46300.00000	87.55657	655.38976	87.55657
46350.00000	89.19212	643.97415	89.19212
46400.00000	86.60636	641.26834	86.60636
46450.00000	85.07653	637.09847	85.07653
46500.00000	86.75088	638.58097	86.75088
46550.00000	84.99958	626.55364	84.99958
46600.00000	82.52214	625.35371	82.52214
46650.00000	80.51733	629.88195	80.51733
46700.00000	82.16887	639.83454	82.16887
46750.00000	84.06485	638.56041	84.06485
46800.00000	80.85460	625.32570	80.85460
46850.00000	80.67739	288.91835	80.67739
46900.00000	78.62734	283.86954	78.62734
46950.00000	80.91688	271.54892	80.91688
47000.00000	80.12946	266.41538	80.12946
47050.00000	82.45067	255.13728	82.45067
47100.00000	81.22019	270.30245	81.22019
47150.00000	80.87832	260.23699	80.87832
47200.00000	80.37498	260.25145	80.37498
47250.00000	81.24489	267.74535	81.24489
47300.00000	78.17496	249.69088	78.17496
47350.00000	82.26803	-96.67075	82.26803
47400.00000	77.59711	-114.00324	77.59711
47450.00000	79.78591	-99.44038	79.78591
47500.00000	77.64889	-120.34759	77.64889
47550.00000	76.33416	-460.97948	76.33416
47600.00000	76.24451	-467.63442	76.24451
47650.00000	81.99867	-469.55395	81.99867
47700.00000	79.10077	-467.69948	79.10077
47750.00000	78.66326	-460.38205	78.66326
47800.00000	78.49191	-471.68725	78.49191
47850.00000	78.54560	-816.59457	78.54560
47900.00000	78.78099	-1180.26107	78.78099
47950.00000	79.85498	-1164.27928	79.85498
48000.00000	78.68458	-1197.82691	78.68458
48050.00000	80.38929	-1207.82346	80.38929
48100.00000	75.78146	-1203.57575	75.78146
48150.00000	76.99357	-1569.93559	76.99357
48200.00000	78.50721	-1551.18888	78.50721
48250.00000	77.39136	-1558.38553	77.39136
48300.00000	79.61236	-1583.86367	79.61236
48350.00000	79.19215	-1573.55534	79.19215
48400.00000	80.11600	-1934.44282	80.11600
48450.00000	79.28311	-1941.53440	79.28311
48500.00000	77.23402	-1950.52616	77.23402
48550.00000	77.80445	-1966.74434	77.80445
48600.00000	80.00538	-2297.48482	80.00538
48650.00000	77.82995	-2339.24008	77.82995
48700.00000	83.26065	-2338.88588	83.26065
48750.00000	78.72630	-2655.71566	78.72630
48800.00000	77.97703	-2704.52114	77.97703
48850.00000	80.17286	-2685.67740	80.17286
48900.00000	76.74421	-3046.25128	76.74421
48950.00000	80.15912	-3075.04471	80.15912
49000.00000	82.20270	-3044.57273	82.20270
49050.00000	79.46412	-3090.42261	79.46412
49100.00000	78.01182	-3421.67244	78.01182
49150.00000	78.75932	-3836.75130	78.75932
49200.00000	77.74853	-3831.42722	77.74853
49250.00000	75.30693	-4145.08120	75.30693
49300.00000	82.54306	-3799.56791	82.54306
49350.00000	78.30269	-3794.33885	78.30269
49400.00000	78.48079	-3477.73205	78.48079
49450.00000	78.40150	-3090.40840	78.40150
49500.00000	74.80959	-2778.77264	74.80959
49550.00000	79.28103	-2400.28219	79.28103
49600.00000	81.78362	-2411.27378	81.78362
49650.00000	74.18588	-2420.96473	74.18588
49700.00000	80.74299	-2087.75087	80.74299
49750.00000	76.99682	-2106.13885	76.99682
49800.00000	77.53491	-2027.02665	77.53491
49850.00000	80.74904	-2024.14206	80.74904
49900.00000	84.59578	-1706.02985	84.59578
49950.00000	74.89023	-1424.12262	74.89023
