---ACOUSTIC CALIBRATION---
Filename: C:\Data\AZH DATA\AZH61\RightSecondary.calib
Date: 8/27/2019 3:34:37 PM
Format: 4
Probe Tube Correction File: C:\Data\Probe Tube Calibrations\50_ProbeTube.calib
Experiment VIs: 850
EPL_CFTS.exe V12.0.1 (2012)
DAQmx V9.6

Attenuation (dB): 40.000000
Min Freq (Hz): 50.000000
Max Freq (Hz): 49950.000000
Freq Step (Hz): 50.000000
Sample Rate (Hz): 100000.000000
[Smoothing]
Method=None
MA.Iterations=0
MA.Length=0
Loess.Length=0
Loess.Type=Linear
Loess.Robust=FALSE


Freq(Hz)	Mag(dB)	Phase(deg)	Unsmoothed(dB)

50.00000	93.82776	301.93891	93.82776
100.00000	83.38531	383.73106	83.38531
150.00000	68.49969	395.44066	68.49969
200.00000	67.64647	292.53844	67.64647
250.00000	81.29111	360.00390	81.29111
300.00000	74.08691	220.01118	74.08691
350.00000	77.95146	297.11802	77.95146
400.00000	80.78712	286.55144	80.78712
450.00000	81.09923	276.78537	81.09923
500.00000	82.83953	278.91532	82.83953
550.00000	84.58531	279.58741	84.58531
600.00000	87.33372	267.37134	87.33372
650.00000	87.04522	267.42434	87.04522
700.00000	89.25236	257.00590	89.25236
750.00000	89.26657	257.89178	89.26657
800.00000	92.33016	247.90256	92.33016
850.00000	93.37241	243.82348	93.37241
900.00000	94.68089	226.17436	94.68089
950.00000	95.71280	213.53617	95.71280
1000.00000	95.58846	198.45687	95.58846
1050.00000	94.83692	189.78379	94.83692
1100.00000	94.88725	178.89993	94.88725
1150.00000	93.84592	168.49483	93.84592
1200.00000	92.93864	167.62749	92.93864
1250.00000	93.12391	157.08480	93.12391
1300.00000	91.74524	153.52710	91.74524
1350.00000	91.30516	149.63327	91.30516
1400.00000	90.01171	151.82351	90.01171
1450.00000	90.57895	152.00147	90.57895
1500.00000	90.31933	149.71516	90.31933
1550.00000	90.83704	148.14936	90.83704
1600.00000	91.47981	144.73602	91.47981
1650.00000	92.15612	136.92991	92.15612
1700.00000	90.60340	129.80703	90.60340
1750.00000	90.37055	130.61423	90.37055
1800.00000	90.20235	124.70787	90.20235
1850.00000	89.69930	131.37624	89.69930
1900.00000	90.51069	130.54294	90.51069
1950.00000	91.42322	123.94633	91.42322
2000.00000	91.51444	113.78942	91.51444
2050.00000	89.89379	113.02230	89.89379
2100.00000	90.12159	107.30332	90.12159
2150.00000	89.75763	105.48784	89.75763
2200.00000	89.43995	105.04206	89.43995
2250.00000	88.11680	100.40108	88.11680
2300.00000	88.26391	103.10123	88.26391
2350.00000	87.59169	99.86104	87.59169
2400.00000	87.29575	103.20683	87.29575
2450.00000	87.05470	98.91798	87.05470
2500.00000	86.67933	102.57990	86.67933
2550.00000	85.98537	102.03795	85.98537
2600.00000	85.56475	109.37629	85.56475
2650.00000	86.20969	118.81907	86.20969
2700.00000	88.10499	121.83218	88.10499
2750.00000	89.49029	116.70533	89.49029
2800.00000	90.32936	106.93354	90.32936
2850.00000	90.45312	99.30874	90.45312
2900.00000	89.87145	92.23749	89.87145
2950.00000	89.68804	88.75123	89.68804
3000.00000	89.31710	86.49561	89.31710
3050.00000	88.82004	84.65164	88.82004
3100.00000	88.58463	81.99457	88.58463
3150.00000	88.12438	78.59315	88.12438
3200.00000	87.54563	76.80391	87.54563
3250.00000	86.91827	74.75462	86.91827
3300.00000	85.94342	73.91109	85.94342
3350.00000	84.91112	75.92303	84.91112
3400.00000	84.09414	85.77752	84.09414
3450.00000	83.97605	94.37891	83.97605
3500.00000	84.50771	99.99173	84.50771
3550.00000	85.17355	103.96585	85.17355
3600.00000	85.59050	105.81982	85.59050
3650.00000	85.54828	107.49831	85.54828
3700.00000	85.34328	114.81570	85.34328
3750.00000	86.11483	124.33678	86.11483
3800.00000	87.63102	132.85938	87.63102
3850.00000	89.18008	134.87747	89.18008
3900.00000	90.77880	134.39973	90.77880
3950.00000	92.43645	133.35216	92.43645
4000.00000	93.36026	129.48105	93.36026
4050.00000	94.66322	125.56195	94.66322
4100.00000	95.42143	122.29281	95.42143
4150.00000	96.38270	118.21187	96.38270
4200.00000	96.97416	114.44889	96.97416
4250.00000	97.68479	112.88138	97.68479
4300.00000	98.41776	111.26641	98.41776
4350.00000	99.29479	110.41367	99.29479
4400.00000	100.38935	109.11674	100.38935
4450.00000	101.63119	106.90335	101.63119
4500.00000	103.03966	103.14252	103.03966
4550.00000	104.47299	98.00453	104.47299
4600.00000	105.88014	91.34841	105.88014
4650.00000	107.32490	83.07629	107.32490
4700.00000	108.68387	72.88476	108.68387
4750.00000	109.85094	60.60870	109.85094
4800.00000	110.74076	46.43451	110.74076
4850.00000	111.15889	31.21276	111.15889
4900.00000	111.09463	15.79416	111.09463
4950.00000	110.55493	 1.47442	110.55493
5000.00000	109.56161	-10.46855	109.56161
5050.00000	108.48965	-18.66205	108.48965
5100.00000	107.31126	-28.04304	107.31126
5150.00000	104.87586	-30.79150	104.87586
5200.00000	103.68418	-12.65214	103.68418
5250.00000	106.73033	-6.37232	106.73033
5300.00000	108.50818	-19.40439	108.50818
5350.00000	108.82465	-32.87493	108.82465
5400.00000	108.57482	-43.87909	108.57482
5450.00000	108.14217	-52.49894	108.14217
5500.00000	107.68576	-59.92344	107.68576
5550.00000	107.20478	-66.23574	107.20478
5600.00000	106.75432	-72.10372	106.75432
5650.00000	106.31706	-77.35056	106.31706
5700.00000	105.86192	-82.48316	105.86192
5750.00000	105.45866	-86.98001	105.45866
5800.00000	105.04071	-91.32782	105.04071
5850.00000	104.65943	-95.58095	104.65943
5900.00000	104.29519	-99.62932	104.29519
5950.00000	103.92249	-103.60191	103.92249
6000.00000	103.59472	-107.06261	103.59472
6050.00000	103.23436	-110.70527	103.23436
6100.00000	102.90069	-114.20695	102.90069
6150.00000	102.58790	-117.69991	102.58790
6200.00000	102.23450	-120.93758	102.23450
6250.00000	101.94288	-124.32508	101.94288
6300.00000	101.64047	-127.28926	101.64047
6350.00000	101.31636	-130.73526	101.31636
6400.00000	101.01296	-133.57523	101.01296
6450.00000	100.73675	-136.74667	100.73675
6500.00000	100.41225	-139.75201	100.41225
6550.00000	100.10433	-142.60417	100.10433
6600.00000	99.78699	-145.25084	99.78699
6650.00000	99.50149	-147.82234	99.50149
6700.00000	99.21125	-150.29845	99.21125
6750.00000	98.90455	-152.74590	98.90455
6800.00000	98.68926	-155.04569	98.68926
6850.00000	98.40466	-157.34531	98.40466
6900.00000	98.15876	-159.28668	98.15876
6950.00000	97.94420	-161.26253	97.94420
7000.00000	97.73469	-163.29424	97.73469
7050.00000	97.52237	-165.21156	97.52237
7100.00000	97.34764	-167.47266	97.34764
7150.00000	97.17395	-169.23368	97.17395
7200.00000	96.99783	-171.24723	96.99783
7250.00000	96.83049	-173.34296	96.83049
7300.00000	96.68588	-174.80864	96.68588
7350.00000	96.57234	-176.80186	96.57234
7400.00000	96.48614	-178.60525	96.48614
7450.00000	96.48411	-180.16386	96.48411
7500.00000	96.43687	-182.17490	96.43687
7550.00000	96.40547	-184.45333	96.40547
7600.00000	96.41746	-186.74478	96.41746
7650.00000	96.41119	-189.20714	96.41119
7700.00000	96.48290	-191.60481	96.48290
7750.00000	96.48606	-194.91861	96.48606
7800.00000	96.45826	-198.03063	96.45826
7850.00000	96.43782	-201.32700	96.43782
7900.00000	96.41191	-204.51240	96.41191
7950.00000	96.32943	-208.38661	96.32943
8000.00000	96.18430	-211.92750	96.18430
8050.00000	96.06001	-215.96370	96.06001
8100.00000	95.89609	-219.39497	95.89609
8150.00000	95.61164	-222.95704	95.61164
8200.00000	95.36260	-226.01039	95.36260
8250.00000	95.05432	-229.44275	95.05432
8300.00000	94.79961	-232.20344	94.79961
8350.00000	94.52867	-234.99763	94.52867
8400.00000	94.21117	-238.44789	94.21117
8450.00000	93.87769	-240.85909	93.87769
8500.00000	93.50200	-243.42871	93.50200
8550.00000	93.20807	-245.65050	93.20807
8600.00000	92.81881	-247.52167	92.81881
8650.00000	92.49518	-249.84654	92.49518
8700.00000	92.21123	-252.49091	92.21123
8750.00000	91.83921	-253.44414	91.83921
8800.00000	91.62006	-255.43446	91.62006
8850.00000	91.29315	-257.50515	91.29315
8900.00000	91.09163	-259.31145	91.09163
8950.00000	90.78463	-260.92922	90.78463
9000.00000	90.59132	-262.25381	90.59132
9050.00000	90.41417	-264.14174	90.41417
9100.00000	90.23740	-265.43782	90.23740
9150.00000	90.10303	-267.20632	90.10303
9200.00000	90.01395	-268.73493	90.01395
9250.00000	89.83022	-270.16971	89.83022
9300.00000	89.72988	-271.54566	89.72988
9350.00000	89.67605	-273.54307	89.67605
9400.00000	89.44584	-274.42242	89.44584
9450.00000	89.41169	-276.11248	89.41169
9500.00000	89.38005	-277.04061	89.38005
9550.00000	89.26699	-278.55420	89.26699
9600.00000	89.22043	-280.38699	89.22043
9650.00000	89.15809	-282.88493	89.15809
9700.00000	89.11337	-283.91954	89.11337
9750.00000	89.13544	-286.06129	89.13544
9800.00000	88.99384	-287.83484	88.99384
9850.00000	88.93229	-289.34927	88.93229
9900.00000	88.73679	-291.68913	88.73679
9950.00000	88.59319	-293.49517	88.59319
10000.00000	88.49926	-295.60512	88.49926
10050.00000	88.34131	-297.59524	88.34131
10100.00000	88.14972	-299.21082	88.14972
10150.00000	87.97652	-301.91409	87.97652
10200.00000	87.87920	-303.86653	87.87920
10250.00000	87.72598	-306.34618	87.72598
10300.00000	87.68533	-308.61078	87.68533
10350.00000	87.53005	-310.38053	87.53005
10400.00000	87.38138	-313.07986	87.38138
10450.00000	87.29332	-315.49082	87.29332
10500.00000	87.26179	-317.74113	87.26179
10550.00000	87.14013	-319.93473	87.14013
10600.00000	87.06027	-321.90141	87.06027
10650.00000	86.93969	-323.82233	86.93969
10700.00000	86.88289	-326.62032	86.88289
10750.00000	86.83067	-328.85399	86.83067
10800.00000	86.64983	-331.06790	86.64983
10850.00000	86.48585	-334.41707	86.48585
10900.00000	86.38132	-336.46658	86.38132
10950.00000	86.20334	-338.35204	86.20334
11000.00000	86.03844	-340.83391	86.03844
11050.00000	85.70125	-343.30275	85.70125
11100.00000	85.48075	-345.88591	85.48075
11150.00000	85.18178	-347.94383	85.18178
11200.00000	85.01199	-350.12107	85.01199
11250.00000	84.68938	-352.50254	84.68938
11300.00000	84.37025	-354.67686	84.37025
11350.00000	84.06984	-356.04568	84.06984
11400.00000	83.69517	-357.73880	83.69517
11450.00000	83.43389	-359.83689	83.43389
11500.00000	83.34950	-361.08906	83.34950
11550.00000	82.96952	-362.12307	82.96952
11600.00000	82.87510	-364.15596	82.87510
11650.00000	82.64838	-364.71405	82.64838
11700.00000	82.49356	-365.52012	82.49356
11750.00000	82.40590	-366.87753	82.40590
11800.00000	82.22427	-368.68953	82.22427
11850.00000	82.20641	-369.39211	82.20641
11900.00000	81.90220	-371.34591	81.90220
11950.00000	81.85404	-372.94382	81.85404
12000.00000	81.64591	-373.96305	81.64591
12050.00000	81.38673	-374.77218	81.38673
12100.00000	81.28108	-378.32211	81.28108
12150.00000	81.14255	-380.01919	81.14255
12200.00000	80.94329	-382.40544	80.94329
12250.00000	80.77762	-384.14723	80.77762
12300.00000	81.68917	-386.87659	81.68917
12350.00000	80.40336	-389.22845	80.40336
12400.00000	80.16134	-390.56332	80.16134
12450.00000	79.70192	-391.31766	79.70192
12500.00000	79.49045	-393.79912	79.49045
12550.00000	79.09614	-394.97984	79.09614
12600.00000	78.68998	-396.94837	78.68998
12650.00000	78.47631	-398.79319	78.47631
12700.00000	78.09243	-399.48823	78.09243
12750.00000	77.73714	-400.98129	77.73714
12800.00000	77.42195	-401.72140	77.42195
12850.00000	76.80335	-401.11899	76.80335
12900.00000	76.42905	-401.66732	76.42905
12950.00000	76.13569	-401.99293	76.13569
13000.00000	75.92932	-403.53755	75.92932
13050.00000	75.78516	-403.04386	75.78516
13100.00000	75.38248	-403.04797	75.38248
13150.00000	75.04114	-404.13106	75.04114
13200.00000	75.15676	-401.43021	75.15676
13250.00000	74.68002	-400.88207	74.68002
13300.00000	74.41389	-399.56111	74.41389
13350.00000	74.09609	-399.92999	74.09609
13400.00000	74.43669	-400.73938	74.43669
13450.00000	73.61663	-399.11825	73.61663
13500.00000	73.49238	-398.15348	73.49238
13550.00000	73.27677	-397.58214	73.27677
13600.00000	72.97040	-397.64627	72.97040
13650.00000	72.92865	-396.15335	72.92865
13700.00000	72.53410	-395.59509	72.53410
13750.00000	72.68914	-392.46059	72.68914
13800.00000	72.36647	-395.20500	72.36647
13850.00000	72.20067	-394.01466	72.20067
13900.00000	71.77606	-395.22369	71.77606
13950.00000	72.60872	-393.42360	72.60872
14000.00000	72.46698	-388.75631	72.46698
14050.00000	72.46882	-388.23707	72.46882
14100.00000	72.69473	-387.95244	72.69473
14150.00000	72.16511	-387.36483	72.16511
14200.00000	72.31740	-384.45020	72.31740
14250.00000	73.27776	-384.81581	73.27776
14300.00000	73.10521	-381.73149	73.10521
14350.00000	72.99701	-376.37797	72.99701
14400.00000	73.09023	-379.51011	73.09023
14450.00000	73.23210	-374.71204	73.23210
14500.00000	73.08816	-375.25688	73.08816
14550.00000	73.48373	-375.42227	73.48373
14600.00000	73.75726	-375.82534	73.75726
14650.00000	74.12681	-373.00704	74.12681
14700.00000	74.25290	-373.88706	74.25290
14750.00000	74.91590	-374.43414	74.91590
14800.00000	74.72253	-373.84729	74.72253
14850.00000	75.34637	-373.60096	75.34637
14900.00000	76.02447	-374.77756	76.02447
14950.00000	76.23618	-375.35626	76.23618
15000.00000	76.06275	-374.50606	76.06275
15050.00000	76.79681	-375.52814	76.79681
15100.00000	76.71157	-374.13827	76.71157
15150.00000	77.55088	-376.00318	77.55088
15200.00000	77.66627	-375.73074	77.66627
15250.00000	78.01751	-372.90669	78.01751
15300.00000	78.28713	-377.10270	78.28713
15350.00000	78.66433	-379.29985	78.66433
15400.00000	78.44314	-376.69356	78.44314
15450.00000	78.82409	-378.52954	78.82409
15500.00000	79.53533	-381.69649	79.53533
15550.00000	80.11256	-378.51368	80.11256
15600.00000	80.37800	-383.69783	80.37800
15650.00000	80.81251	-381.89644	80.81251
15700.00000	81.23619	-384.08540	81.23619
15750.00000	81.50083	-385.82704	81.50083
15800.00000	81.88377	-385.70228	81.88377
15850.00000	82.27018	-390.13493	82.27018
15900.00000	82.67186	-392.67159	82.67186
15950.00000	83.14749	-392.15686	83.14749
16000.00000	83.73295	-394.89839	83.73295
16050.00000	83.82068	-396.10159	83.82068
16100.00000	84.21360	-397.00622	84.21360
16150.00000	84.45853	-400.67607	84.45853
16200.00000	84.68516	-405.26427	84.68516
16250.00000	85.10166	-405.74950	85.10166
16300.00000	85.31277	-408.93781	85.31277
16350.00000	85.73594	-411.49097	85.73594
16400.00000	86.17235	-414.00417	86.17235
16450.00000	86.17935	-417.18382	86.17935
16500.00000	86.46498	-419.14416	86.46498
16550.00000	86.73825	-422.27753	86.73825
16600.00000	86.92623	-424.28467	86.92623
16650.00000	87.08634	-427.09083	87.08634
16700.00000	87.40898	-429.04082	87.40898
16750.00000	87.49777	-432.61506	87.49777
16800.00000	87.48240	-434.96762	87.48240
16850.00000	88.03011	-437.99866	88.03011
16900.00000	88.09331	-440.47678	88.09331
16950.00000	88.26682	-441.77670	88.26682
17000.00000	88.32518	-444.86432	88.32518
17050.00000	88.46481	-446.36083	88.46481
17100.00000	88.49693	-448.32987	88.49693
17150.00000	88.98571	-451.72744	88.98571
17200.00000	89.20742	-453.23488	89.20742
17250.00000	89.31674	-456.22827	89.31674
17300.00000	89.69598	-458.54594	89.69598
17350.00000	89.60592	-460.37421	89.60592
17400.00000	89.97060	-463.78589	89.97060
17450.00000	90.03025	-467.28211	90.03025
17500.00000	90.30153	-469.56936	90.30153
17550.00000	90.40285	-471.91213	90.40285
17600.00000	90.77930	-473.25226	90.77930
17650.00000	90.88613	-477.66659	90.88613
17700.00000	90.96994	-481.42574	90.96994
17750.00000	91.23903	-483.01473	91.23903
17800.00000	91.25891	-487.28962	91.25891
17850.00000	91.45726	-489.33405	91.45726
17900.00000	91.61507	-492.05966	91.61507
17950.00000	91.81765	-495.67126	91.81765
18000.00000	91.94844	-498.81270	91.94844
18050.00000	92.15387	-501.75139	92.15387
18100.00000	92.11483	-505.13025	92.11483
18150.00000	92.30283	-507.85071	92.30283
18200.00000	92.34303	-511.36463	92.34303
18250.00000	92.45382	-513.89113	92.45382
18300.00000	92.61816	-517.25990	92.61816
18350.00000	92.60348	-519.42987	92.60348
18400.00000	92.71616	-523.63107	92.71616
18450.00000	92.79980	-526.98975	92.79980
18500.00000	92.79076	-529.56264	92.79076
18550.00000	92.88175	-532.80811	92.88175
18600.00000	93.04051	-535.90893	93.04051
18650.00000	92.92239	-539.43871	92.92239
18700.00000	93.00752	-542.63960	93.00752
18750.00000	93.16390	-545.45805	93.16390
18800.00000	93.23720	-548.05304	93.23720
18850.00000	93.17067	-551.71125	93.17067
18900.00000	93.22300	-554.41512	93.22300
18950.00000	93.35313	-558.40265	93.35313
19000.00000	93.19705	-561.04364	93.19705
19050.00000	93.28193	-564.56587	93.28193
19100.00000	93.29438	-567.40035	93.29438
19150.00000	93.45285	-570.54206	93.45285
19200.00000	93.44325	-573.27989	93.44325
19250.00000	93.34806	-577.48288	93.34806
19300.00000	93.36992	-580.39524	93.36992
19350.00000	93.31357	-583.59607	93.31357
19400.00000	93.31319	-587.06114	93.31319
19450.00000	93.36116	-589.16699	93.36116
19500.00000	93.24497	-593.18672	93.24497
19550.00000	93.17133	-596.75488	93.17133
19600.00000	93.14403	-600.13732	93.14403
19650.00000	93.12871	-602.84305	93.12871
19700.00000	92.94703	-606.37545	92.94703
19750.00000	92.82510	-608.98073	92.82510
19800.00000	92.87592	-612.65616	92.87592
19850.00000	92.76359	-615.35053	92.76359
19900.00000	92.63269	-619.83321	92.63269
19950.00000	92.51408	-622.38760	92.51408
20000.00000	92.39499	-625.55357	92.39499
20050.00000	92.19872	-628.41987	92.19872
20100.00000	92.06452	-631.34120	92.06452
20150.00000	91.96371	-633.06345	91.96371
20200.00000	91.77324	-637.07666	91.77324
20250.00000	91.54518	-639.18454	91.54518
20300.00000	91.22639	-641.88080	91.22639
20350.00000	91.27723	-644.64292	91.27723
20400.00000	90.95044	-646.74025	90.95044
20450.00000	90.71626	-648.77057	90.71626
20500.00000	90.48071	-651.23747	90.48071
20550.00000	90.06316	-652.82382	90.06316
20600.00000	89.94404	-654.13268	89.94404
20650.00000	89.79161	-655.69850	89.79161
20700.00000	89.56474	-657.10444	89.56474
20750.00000	89.38145	-658.09381	89.38145
20800.00000	89.20092	-658.83133	89.20092
20850.00000	89.10783	-660.04125	89.10783
20900.00000	89.01080	-660.33503	89.01080
20950.00000	88.82030	-660.38205	88.82030
21000.00000	88.79945	-660.80383	88.79945
21050.00000	88.98156	-660.68565	88.98156
21100.00000	88.98459	-660.74496	88.98459
21150.00000	89.11703	-661.73811	89.11703
21200.00000	89.30321	-661.88487	89.30321
21250.00000	89.46954	-663.69225	89.46954
21300.00000	89.73664	-664.09566	89.73664
21350.00000	89.95385	-665.77911	89.95385
21400.00000	90.11736	-667.52430	90.11736
21450.00000	90.42299	-669.96026	90.42299
21500.00000	90.54462	-672.00375	90.54462
21550.00000	90.64906	-674.03921	90.64906
21600.00000	90.80814	-676.86550	90.80814
21650.00000	90.98242	-679.62086	90.98242
21700.00000	91.07472	-681.70536	91.07472
21750.00000	91.11202	-684.78390	91.11202
21800.00000	91.19141	-687.68686	91.19141
21850.00000	91.26335	-690.02404	91.26335
21900.00000	91.20727	-692.53453	91.20727
21950.00000	91.30957	-694.84725	91.30957
22000.00000	91.37069	-697.52108	91.37069
22050.00000	91.38217	-699.52092	91.38217
22100.00000	91.37253	-701.76134	91.37253
22150.00000	91.30835	-704.07012	91.30835
22200.00000	91.46877	-707.03135	91.46877
22250.00000	91.34249	-708.82819	91.34249
22300.00000	91.27749	-711.33615	91.27749
22350.00000	91.38246	-713.61553	91.38246
22400.00000	91.43278	-716.17543	91.43278
22450.00000	91.29978	-718.06061	91.29978
22500.00000	91.10109	-717.79617	91.10109
22550.00000	91.20988	-720.85806	91.20988
22600.00000	91.22425	-723.64324	91.22425
22650.00000	91.02287	-724.22036	91.02287
22700.00000	91.18016	-726.57403	91.18016
22750.00000	91.12613	-727.41980	91.12613
22800.00000	91.31203	-730.53844	91.31203
22850.00000	91.11401	-733.67813	91.11401
22900.00000	91.33424	-732.92695	91.33424
22950.00000	91.28785	-735.79672	91.28785
23000.00000	91.33967	-735.16890	91.33967
23050.00000	91.25803	-738.07100	91.25803
23100.00000	91.48816	-739.61930	91.48816
23150.00000	91.21768	-739.43593	91.21768
23200.00000	91.47818	-742.94704	91.47818
23250.00000	91.30096	-745.82108	91.30096
23300.00000	91.72200	-747.76459	91.72200
23350.00000	91.43392	-749.04789	91.43392
23400.00000	91.55411	-751.24584	91.55411
23450.00000	91.67784	-752.81511	91.67784
23500.00000	91.62970	-755.02578	91.62970
23550.00000	91.63808	-754.21570	91.63808
23600.00000	91.64847	-758.39238	91.64847
23650.00000	91.83075	-759.63020	91.83075
23700.00000	91.98301	-763.19327	91.98301
23750.00000	92.19334	-762.79035	92.19334
23800.00000	91.97133	-766.14365	91.97133
23850.00000	91.95966	-767.44487	91.95966
23900.00000	92.59607	-768.31184	92.59607
23950.00000	92.13733	-771.88134	92.13733
24000.00000	92.25600	-776.28761	92.25600
24050.00000	92.48726	-775.43021	92.48726
24100.00000	92.55265	-779.98569	92.55265
24150.00000	92.63582	-781.50347	92.63582
24200.00000	92.92329	-785.75585	92.92329
24250.00000	92.28366	-786.52423	92.28366
24300.00000	92.93369	-789.12668	92.93369
24350.00000	92.69457	-791.61265	92.69457
24400.00000	92.76985	-796.08454	92.76985
24450.00000	92.61118	-798.33750	92.61118
24500.00000	92.76140	-799.65768	92.76140
24550.00000	92.67212	-446.48557	92.67212
24600.00000	93.24968	-446.38009	93.24968
24650.00000	93.14176	-91.49682	93.14176
24700.00000	92.71735	-90.45018	92.71735
24750.00000	92.83759	263.20842	92.83759
24800.00000	92.75442	621.61445	92.75442
24850.00000	92.50726	978.86503	92.50726
24900.00000	93.01950	1336.45619	93.01950
24950.00000	92.74834	1690.89982	92.74834
25000.00000	92.23685	1684.98156	92.23685
25050.00000	92.34238	1683.50763	92.34238
25100.00000	91.74823	1682.64159	91.74823
25150.00000	92.07892	1680.01292	92.07892
25200.00000	91.79475	1677.31298	91.79475
25250.00000	91.96334	1673.57115	91.96334
25300.00000	91.66574	1672.81997	91.66574
25350.00000	91.66751	1666.32676	91.66751
25400.00000	91.65681	1660.66017	91.65681
25450.00000	91.47574	1660.10136	91.47574
25500.00000	91.41481	1657.09631	91.41481
25550.00000	91.55033	1653.63488	91.55033
25600.00000	91.12231	1651.59081	91.12231
25650.00000	90.54634	1650.65196	90.54634
25700.00000	90.92429	1645.57304	90.92429
25750.00000	90.49913	1642.56472	90.49913
25800.00000	90.21783	1640.82679	90.21783
25850.00000	90.12893	1635.11172	90.12893
25900.00000	90.28048	1634.17682	90.28048
25950.00000	89.51197	1633.16240	89.51197
26000.00000	89.81540	1629.67866	89.81540
26050.00000	89.29533	1625.16562	89.29533
26100.00000	89.07368	1625.17509	89.07368
26150.00000	89.25578	1623.04984	89.25578
26200.00000	89.04494	1619.21391	89.04494
26250.00000	88.42937	1616.53928	88.42937
26300.00000	88.59220	1612.06891	88.59220
26350.00000	88.24245	1611.64435	88.24245
26400.00000	87.65059	1612.35496	87.65059
26450.00000	88.04617	1605.77149	88.04617
26500.00000	87.44557	1602.12053	87.44557
26550.00000	87.38230	1599.28347	87.38230
26600.00000	87.12346	1595.55623	87.12346
26650.00000	87.30870	1596.43869	87.30870
26700.00000	86.57831	1590.70087	86.57831
26750.00000	86.18755	1590.79596	86.18755
26800.00000	86.65163	1585.32261	86.65163
26850.00000	86.02356	1584.61929	86.02356
26900.00000	86.23427	1584.60026	86.23427
26950.00000	85.80927	1582.27623	85.80927
27000.00000	85.52182	1582.19761	85.52182
27050.00000	85.36625	1578.78799	85.36625
27100.00000	84.90181	1575.19564	84.90181
27150.00000	85.04982	1574.16454	85.04982
27200.00000	84.50082	1573.90827	84.50082
27250.00000	84.15787	1571.70407	84.15787
27300.00000	84.28873	1570.04978	84.28873
27350.00000	84.63583	1574.22945	84.63583
27400.00000	84.48143	1569.53652	84.48143
27450.00000	83.79998	1570.22638	83.79998
27500.00000	83.06950	1565.80725	83.06950
27550.00000	83.17921	1566.87074	83.17921
27600.00000	83.77117	1563.88629	83.77117
27650.00000	83.06690	1562.21539	83.06690
27700.00000	83.12838	1561.19408	83.12838
27750.00000	83.11458	1560.32079	83.11458
27800.00000	83.10828	1555.30846	83.10828
27850.00000	83.25378	1559.14251	83.25378
27900.00000	83.28452	1559.68136	83.28452
27950.00000	82.13294	1556.11152	82.13294
28000.00000	82.80592	1559.73057	82.80592
28050.00000	83.29209	1554.51686	83.29209
28100.00000	82.56291	1553.41717	82.56291
28150.00000	82.96228	1550.17979	82.96228
28200.00000	82.67201	1547.20586	82.67201
28250.00000	82.68812	1544.48966	82.68812
28300.00000	82.14318	1549.33859	82.14318
28350.00000	82.60890	1547.14067	82.60890
28400.00000	82.68463	1548.72284	82.68463
28450.00000	83.68867	1545.82310	83.68867
28500.00000	82.78658	1541.23322	82.78658
28550.00000	82.32366	1543.31918	82.32366
28600.00000	83.13236	1543.10438	83.13236
28650.00000	83.61085	1535.50013	83.61085
28700.00000	83.85173	1541.61519	83.85173
28750.00000	84.44158	1540.16165	84.44158
28800.00000	84.35554	1537.16911	84.35554
28850.00000	84.00439	1534.98035	84.00439
28900.00000	84.19648	1528.96014	84.19648
28950.00000	83.64573	1532.63041	83.64573
29000.00000	84.31029	1530.60803	84.31029
29050.00000	84.19982	1528.47695	84.19982
29100.00000	84.79911	1530.94027	84.79911
29150.00000	85.10297	1525.98706	85.10297
29200.00000	84.80227	1525.59811	84.80227
29250.00000	84.78639	1524.99052	84.78639
29300.00000	84.81759	1520.97862	84.81759
29350.00000	84.75086	1520.32608	84.75086
29400.00000	85.09051	1516.45881	85.09051
29450.00000	85.46955	1515.00240	85.46955
29500.00000	85.72944	1514.73748	85.72944
29550.00000	85.66509	1511.26694	85.66509
29600.00000	85.82054	1509.41472	85.82054
29650.00000	85.63590	1505.05451	85.63590
29700.00000	85.45391	1508.08625	85.45391
29750.00000	85.17575	1507.80489	85.17575
29800.00000	85.54732	1502.29418	85.54732
29850.00000	85.44659	1501.36491	85.44659
29900.00000	86.28247	1500.73001	86.28247
29950.00000	85.49533	1499.64530	85.49533
30000.00000	85.81622	1500.55033	85.81622
30050.00000	85.86951	1500.02060	85.86951
30100.00000	85.34050	1496.04401	85.34050
30150.00000	85.66694	1494.54838	85.66694
30200.00000	85.83699	1493.83472	85.83699
30250.00000	85.31048	1494.52996	85.31048
30300.00000	85.41597	1493.24656	85.41597
30350.00000	85.64699	1495.35451	85.64699
30400.00000	85.23840	1494.50791	85.23840
30450.00000	85.02515	1495.67846	85.02515
30500.00000	84.97450	1492.60868	84.97450
30550.00000	84.88172	1495.16098	84.88172
30600.00000	85.24737	1497.24448	85.24737
30650.00000	85.08612	1498.34608	85.08612
30700.00000	85.16720	1499.46149	85.16720
30750.00000	85.17686	1501.00222	85.17686
30800.00000	85.08141	1500.52850	85.08141
30850.00000	85.75475	1503.69074	85.75475
30900.00000	85.50554	1506.06772	85.50554
30950.00000	85.73322	1506.12336	85.73322
31000.00000	86.25346	1507.24307	86.25346
31050.00000	86.62846	1509.09029	86.62846
31100.00000	87.18779	1508.93530	87.18779
31150.00000	87.33089	1510.06796	87.33089
31200.00000	88.23591	1510.86566	88.23591
31250.00000	88.62693	1511.02076	88.62693
31300.00000	89.13323	1510.72035	89.13323
31350.00000	89.79623	1508.29826	89.79623
31400.00000	90.16494	1508.67796	90.16494
31450.00000	90.80006	1507.14620	90.80006
31500.00000	91.11748	1504.78274	91.11748
31550.00000	91.42924	1502.46708	91.42924
31600.00000	92.40274	1498.22363	92.40274
31650.00000	92.61046	1495.28358	92.61046
31700.00000	92.79242	1494.49351	92.79242
31750.00000	93.49680	1490.31767	93.49680
31800.00000	93.79476	1486.59954	93.79476
31850.00000	94.10926	1483.10779	94.10926
31900.00000	94.13156	1480.59814	94.13156
31950.00000	94.75263	1476.39247	94.75263
32000.00000	95.20255	1471.88057	95.20255
32050.00000	95.15502	1468.60460	95.15502
32100.00000	95.35489	1462.95659	95.35489
32150.00000	95.45752	1459.05580	95.45752
32200.00000	95.65672	1455.44901	95.65672
32250.00000	95.66232	1451.11110	95.66232
32300.00000	95.76361	1448.78115	95.76361
32350.00000	96.03800	1445.38357	96.03800
32400.00000	96.15074	1442.74500	96.15074
32450.00000	95.77898	1435.87038	95.77898
32500.00000	95.81647	1434.54117	95.81647
32550.00000	96.33007	1429.84672	96.33007
32600.00000	95.97823	1424.72727	95.97823
32650.00000	96.44134	1420.91131	96.44134
32700.00000	96.30164	1417.65155	96.30164
32750.00000	96.27977	1414.32593	96.27977
32800.00000	96.14416	1409.02984	96.14416
32850.00000	96.01370	1407.49088	96.01370
32900.00000	96.10673	1403.52517	96.10673
32950.00000	95.74665	1396.04800	95.74665
33000.00000	95.72747	1396.54017	95.72747
33050.00000	95.50532	1391.92802	95.50532
33100.00000	95.50613	1388.74553	95.50613
33150.00000	95.77391	1384.87528	95.77391
33200.00000	95.63009	1382.40034	95.63009
33250.00000	95.35545	1377.01899	95.35545
33300.00000	95.44678	1374.00278	95.44678
33350.00000	95.28270	1370.04008	95.28270
33400.00000	95.24058	1370.39412	95.24058
33450.00000	95.39291	1365.79924	95.39291
33500.00000	95.39159	1365.35413	95.39159
33550.00000	95.00202	1360.40038	95.00202
33600.00000	95.14320	1357.50081	95.14320
33650.00000	94.96726	1354.03031	94.96726
33700.00000	95.50204	1350.74154	95.50204
33750.00000	94.93700	1347.28444	94.93700
33800.00000	94.68707	1342.34853	94.68707
33850.00000	94.84253	1340.63039	94.84253
33900.00000	94.80740	1339.36859	94.80740
33950.00000	95.03356	1335.13103	95.03356
34000.00000	94.93100	1330.72996	94.93100
34050.00000	94.78168	1328.00216	94.78168
34100.00000	94.54105	1324.27172	94.54105
34150.00000	94.88677	1319.26314	94.88677
34200.00000	94.62432	1320.02360	94.62432
34250.00000	94.58793	1312.48865	94.58793
34300.00000	94.42470	1312.35862	94.42470
34350.00000	94.62184	1309.17852	94.62184
34400.00000	93.89243	1306.02169	93.89243
34450.00000	94.75372	1298.16598	94.75372
34500.00000	93.71505	1300.40137	93.71505
34550.00000	93.63623	1299.23572	93.63623
34600.00000	93.81523	1290.89703	93.81523
34650.00000	93.13940	1293.02332	93.13940
34700.00000	93.54633	1289.59747	93.54633
34750.00000	93.24664	1288.02729	93.24664
34800.00000	93.80280	1287.20534	93.80280
34850.00000	93.43377	1283.18991	93.43377
34900.00000	93.43243	1279.25213	93.43243
34950.00000	93.13785	1280.16174	93.13785
35000.00000	93.63472	1273.55539	93.63472
35050.00000	92.98872	1278.66600	92.98872
35100.00000	92.97997	1276.90348	92.97997
35150.00000	93.47860	1269.21643	93.47860
35200.00000	92.96619	1271.04361	92.96619
35250.00000	93.07298	1268.25408	93.07298
35300.00000	93.14635	1269.29828	93.14635
35350.00000	92.76554	1261.92643	92.76554
35400.00000	93.22546	1261.57631	93.22546
35450.00000	93.54339	1259.56076	93.54339
35500.00000	93.36910	1258.16544	93.36910
35550.00000	93.52511	1253.90664	93.52511
35600.00000	93.17076	1253.30256	93.17076
35650.00000	92.74129	1256.05276	92.74129
35700.00000	93.90558	1254.41265	93.90558
35750.00000	94.77083	1253.66086	94.77083
35800.00000	94.14214	1252.77034	94.14214
35850.00000	94.58913	1245.40572	94.58913
35900.00000	95.04433	1243.86007	95.04433
35950.00000	95.56330	1241.10550	95.56330
36000.00000	94.29156	1239.99408	94.29156
36050.00000	95.86117	1238.97748	95.86117
36100.00000	95.11609	1239.89932	95.11609
36150.00000	95.57137	1236.60261	95.57137
36200.00000	95.11756	1231.58893	95.11756
36250.00000	94.90345	1231.96038	94.90345
36300.00000	95.06168	1232.28685	95.06168
36350.00000	95.72198	1231.07844	95.72198
36400.00000	95.58874	1228.25272	95.58874
36450.00000	96.35341	1229.04756	96.35341
36500.00000	96.38105	1222.93186	96.38105
36550.00000	95.89927	1224.34228	95.89927
36600.00000	96.24744	1222.67399	96.24744
36650.00000	96.86276	1222.32039	96.86276
36700.00000	96.77292	1217.17194	96.77292
36750.00000	96.51200	1217.09330	96.51200
36800.00000	97.66369	1217.27313	97.66369
36850.00000	96.66634	1213.73213	96.66634
36900.00000	97.12049	1212.45585	97.12049
36950.00000	97.59615	1210.16297	97.59615
37000.00000	97.01444	1207.83317	97.01444
37050.00000	97.05741	1204.61186	97.05741
37100.00000	97.17799	1207.59936	97.17799
37150.00000	97.93256	1206.19156	97.93256
37200.00000	97.98131	1208.40584	97.98131
37250.00000	97.80563	1203.85877	97.80563
37300.00000	98.00534	1199.68305	98.00534
37350.00000	98.42716	1199.22909	98.42716
37400.00000	97.95537	1204.12084	97.95537
37450.00000	98.31579	1201.11399	98.31579
37500.00000	98.64255	1198.04907	98.64255
37550.00000	99.02840	1192.52351	99.02840
37600.00000	98.52781	1194.62916	98.52781
37650.00000	99.23593	1194.78752	99.23593
37700.00000	99.83642	1189.51836	99.83642
37750.00000	100.15408	1192.40986	100.15408
37800.00000	99.88131	1193.51994	99.88131
37850.00000	100.19081	1183.80550	100.19081
37900.00000	100.30364	1184.50260	100.30364
37950.00000	100.38114	1183.47574	100.38114
38000.00000	100.91382	1184.36820	100.91382
38050.00000	101.05294	1179.37670	101.05294
38100.00000	101.43136	1175.17950	101.43136
38150.00000	101.61746	1171.22317	101.61746
38200.00000	102.00072	1168.55584	102.00072
38250.00000	101.80419	1166.47269	101.80419
38300.00000	102.30565	1162.80639	102.30565
38350.00000	102.45541	1159.35429	102.45541
38400.00000	102.78004	1156.09487	102.78004
38450.00000	102.76513	1152.24500	102.76513
38500.00000	103.24662	1149.33944	103.24662
38550.00000	103.15414	1144.63979	103.15414
38600.00000	103.77786	1142.84444	103.77786
38650.00000	103.50051	1137.35491	103.50051
38700.00000	103.57294	1133.13463	103.57294
38750.00000	103.68232	1129.51882	103.68232
38800.00000	103.69833	1125.21022	103.69833
38850.00000	104.03603	1118.55894	104.03603
38900.00000	103.90827	1114.83023	103.90827
38950.00000	103.85414	1109.74675	103.85414
39000.00000	103.92569	1105.75318	103.92569
39050.00000	104.10112	1099.94985	104.10112
39100.00000	103.81372	1094.87600	103.81372
39150.00000	103.62578	1090.70803	103.62578
39200.00000	103.76336	1087.70652	103.76336
39250.00000	103.35397	1081.49206	103.35397
39300.00000	103.48162	1076.25762	103.48162
39350.00000	103.25911	1072.69684	103.25911
39400.00000	103.28794	1068.03624	103.28794
39450.00000	103.20154	1063.87862	103.20154
39500.00000	102.81973	1057.82521	102.81973
39550.00000	102.73089	1054.33283	102.73089
39600.00000	102.35896	1049.43540	102.35896
39650.00000	102.51177	1047.04722	102.51177
39700.00000	102.15366	1041.49242	102.15366
39750.00000	101.64340	1036.08530	101.64340
39800.00000	101.57254	1033.76706	101.57254
39850.00000	101.29296	1028.92825	101.29296
39900.00000	101.22329	1026.38329	101.22329
39950.00000	100.76362	1021.08835	100.76362
40000.00000	100.54086	1019.67452	100.54086
40050.00000	100.28209	1015.81142	100.28209
40100.00000	100.13266	1012.00978	100.13266
40150.00000	99.73228	1008.29786	99.73228
40200.00000	99.48275	1005.34370	99.48275
40250.00000	99.07180	1002.29956	99.07180
40300.00000	99.18823	1000.89809	99.18823
40350.00000	98.79093	996.55936	98.79093
40400.00000	98.29439	994.15953	98.29439
40450.00000	98.49971	992.51868	98.49971
40500.00000	98.19928	991.39163	98.19928
40550.00000	97.99343	985.48718	97.99343
40600.00000	97.60267	986.49666	97.60267
40650.00000	97.53246	986.05698	97.53246
40700.00000	97.40115	985.31610	97.40115
40750.00000	97.46415	983.59708	97.46415
40800.00000	97.18173	980.72776	97.18173
40850.00000	97.16650	980.82384	97.16650
40900.00000	97.00036	979.57226	97.00036
40950.00000	97.07141	978.34494	97.07141
41000.00000	96.44361	978.49942	96.44361
41050.00000	97.21552	976.81149	97.21552
41100.00000	96.99399	975.26348	96.99399
41150.00000	97.44397	974.22942	97.44397
41200.00000	97.19163	975.63023	97.19163
41250.00000	97.01546	974.09199	97.01546
41300.00000	96.83387	974.50516	96.83387
41350.00000	97.64926	975.46449	97.64926
41400.00000	97.63787	970.10425	97.63787
41450.00000	97.55020	971.87816	97.55020
41500.00000	97.34568	970.52794	97.34568
41550.00000	97.97429	972.02239	97.97429
41600.00000	97.84136	968.37078	97.84136
41650.00000	98.58768	970.77389	98.58768
41700.00000	98.66351	970.55889	98.66351
41750.00000	99.26476	972.37787	99.26476
41800.00000	98.26117	966.27803	98.26117
41850.00000	98.53237	965.01074	98.53237
41900.00000	98.02993	964.70131	98.02993
41950.00000	99.27892	971.17240	99.27892
42000.00000	98.73699	960.86013	98.73699
42050.00000	98.06809	960.79091	98.06809
42100.00000	98.50597	958.82232	98.50597
42150.00000	98.25716	951.74676	98.25716
42200.00000	98.82568	961.75202	98.82568
42250.00000	98.08503	955.07499	98.08503
42300.00000	97.17074	957.21337	97.17074
42350.00000	97.78047	955.52418	97.78047
42400.00000	98.19200	958.00255	98.19200
42450.00000	98.66019	952.18140	98.66019
42500.00000	97.78184	946.75013	97.78184
42550.00000	97.79433	957.80483	97.79433
42600.00000	98.54971	956.39512	98.54971
42650.00000	97.60076	953.75578	97.60076
42700.00000	97.75750	952.93929	97.75750
42750.00000	98.76761	944.56361	98.76761
42800.00000	97.12684	939.74988	97.12684
42850.00000	97.40052	942.50129	97.40052
42900.00000	97.41751	945.15523	97.41751
42950.00000	97.11867	941.01253	97.11867
43000.00000	97.04171	930.51325	97.04171
43050.00000	96.63159	924.07059	96.63159
43100.00000	97.28006	936.40838	97.28006
43150.00000	96.52358	942.56454	96.52358
43200.00000	96.52593	924.13026	96.52593
43250.00000	95.73251	931.16964	95.73251
43300.00000	95.22022	922.49577	95.22022
43350.00000	96.70449	922.24936	96.70449
43400.00000	96.08509	916.82822	96.08509
43450.00000	97.80658	919.94980	97.80658
43500.00000	95.56503	909.73931	95.56503
43550.00000	96.63694	905.67774	96.63694
43600.00000	95.90093	911.01167	95.90093
43650.00000	96.12677	901.67007	96.12677
43700.00000	94.04364	891.55715	94.04364
43750.00000	94.46963	890.06754	94.46963
43800.00000	93.48733	893.67762	93.48733
43850.00000	95.40246	881.37592	95.40246
43900.00000	94.68959	890.00028	94.68959
43950.00000	94.44539	874.46578	94.44539
44000.00000	94.46563	870.24759	94.46563
44050.00000	94.61466	862.12986	94.61466
44100.00000	93.95537	854.91843	93.95537
44150.00000	93.70577	855.89714	93.70577
44200.00000	94.18700	852.48192	94.18700
44250.00000	92.78244	843.25072	92.78244
44300.00000	92.97652	835.88667	92.97652
44350.00000	91.55096	835.63138	91.55096
44400.00000	92.43618	834.18423	92.43618
44450.00000	93.52708	831.53956	93.52708
44500.00000	90.33849	828.61448	90.33849
44550.00000	91.20522	829.15619	91.20522
44600.00000	91.27807	810.12317	91.27807
44650.00000	89.17451	806.45250	89.17451
44700.00000	90.90967	811.52352	90.90967
44750.00000	89.50480	804.09740	89.50480
44800.00000	90.51864	797.16517	90.51864
44850.00000	90.73507	798.63813	90.73507
44900.00000	88.21059	795.01894	88.21059
44950.00000	89.47807	786.58624	89.47807
45000.00000	90.84265	786.75870	90.84265
45050.00000	87.71425	785.81771	87.71425
45100.00000	89.25350	761.98129	89.25350
45150.00000	88.40436	748.25569	88.40436
45200.00000	89.38484	764.87135	89.38484
45250.00000	87.92226	766.78058	87.92226
45300.00000	86.14142	761.02020	86.14142
45350.00000	88.05909	745.82930	88.05909
45400.00000	86.99429	754.88046	86.99429
45450.00000	88.46109	744.02238	88.46109
45500.00000	87.84558	712.20717	87.84558
45550.00000	85.50110	705.33134	85.50110
45600.00000	86.21529	728.44231	86.21529
45650.00000	87.46916	713.40883	87.46916
45700.00000	83.97834	713.39066	83.97834
45750.00000	87.70725	698.31445	87.70725
45800.00000	84.32556	709.64870	84.32556
45850.00000	83.92020	703.27676	83.92020
45900.00000	84.00742	680.55755	84.00742
45950.00000	81.07543	685.84046	81.07543
46000.00000	81.84341	667.67518	81.84341
46050.00000	81.05754	648.39599	81.05754
46100.00000	76.62572	679.90785	76.62572
46150.00000	80.86034	661.72847	80.86034
46200.00000	82.18352	658.82201	82.18352
46250.00000	80.91324	648.70820	80.91324
46300.00000	75.96790	652.07615	75.96790
46350.00000	77.15561	613.90143	77.15561
46400.00000	75.65549	638.37950	75.65549
46450.00000	76.18489	669.67330	76.18489
46500.00000	79.28672	643.35217	79.28672
46550.00000	74.86734	645.59185	74.86734
46600.00000	73.36531	604.66218	73.36531
46650.00000	75.62161	677.55024	75.62161
46700.00000	75.13325	641.73286	75.13325
46750.00000	72.41081	658.36015	72.41081
46800.00000	73.50227	635.30700	73.50227
46850.00000	77.45724	297.11753	77.45724
46900.00000	61.02305	209.76907	61.02305
46950.00000	71.73311	294.89397	71.73311
47000.00000	72.23706	270.13826	72.23706
47050.00000	78.85764	275.46536	78.85764
47100.00000	76.00602	304.63670	76.00602
47150.00000	77.93245	281.16876	77.93245
47200.00000	67.90704	270.14694	67.90704
47250.00000	72.65100	294.27498	72.65100
47300.00000	67.25966	279.50812	67.25966
47350.00000	71.13430	-61.70737	71.13430
47400.00000	71.42500	-114.41374	71.42500
47450.00000	71.58467	-51.23625	71.58467
47500.00000	74.42383	-141.91210	74.42383
47550.00000	68.01825	-469.34994	68.01825
47600.00000	67.08182	-506.04237	67.08182
47650.00000	70.51977	-491.38860	70.51977
47700.00000	70.62087	-437.70607	70.62087
47750.00000	67.98375	-449.89204	67.98375
47800.00000	72.97820	-487.94070	72.97820
47850.00000	70.51139	-844.33034	70.51139
47900.00000	72.59442	-1210.69651	72.59442
47950.00000	72.44100	-1158.95575	72.44100
48000.00000	71.22497	-1212.93397	71.22497
48050.00000	70.31485	-1270.92868	70.31485
48100.00000	73.52314	-1163.24655	73.52314
48150.00000	74.84634	-1576.49473	74.84634
48200.00000	75.38089	-1529.33475	75.38089
48250.00000	73.97555	-1610.12283	73.97555
48300.00000	70.08217	-1539.09899	70.08217
48350.00000	62.46616	-1661.82733	62.46616
48400.00000	70.13585	-1956.28332	70.13585
48450.00000	65.68875	-1950.06340	65.68875
48500.00000	73.69534	-1926.12365	73.69534
48550.00000	66.65173	-1959.20972	66.65173
48600.00000	74.57133	-2322.74052	74.57133
48650.00000	70.82106	-2311.82186	70.82106
48700.00000	67.68318	-2321.97877	67.68318
48750.00000	71.02789	-2637.39648	71.02789
48800.00000	67.32902	-2710.19252	67.32902
48850.00000	74.10907	-2699.25184	74.10907
48900.00000	69.04355	-3034.73321	69.04355
48950.00000	68.11839	-3027.39324	68.11839
49000.00000	67.96417	-3005.32744	67.96417
49050.00000	74.85953	-3010.13498	74.85953
49100.00000	63.19907	-3430.09857	63.19907
49150.00000	65.83208	-3775.22531	65.83208
49200.00000	71.16206	-3882.81670	71.16206
49250.00000	76.86808	-4218.37400	76.86808
49300.00000	74.92997	-3781.80047	74.92997
49350.00000	66.17973	-3711.30473	66.17973
49400.00000	77.85210	-3441.50999	77.85210
49450.00000	73.35170	-3130.38425	73.35170
49500.00000	73.66030	-2864.93833	73.66030
49550.00000	78.76804	-2506.29215	78.76804
49600.00000	75.82325	-2434.08990	75.82325
49650.00000	67.23359	-2390.69601	67.23359
49700.00000	73.37061	-2144.70969	73.37061
49750.00000	80.50652	-2089.71179	80.50652
49800.00000	62.72578	-2144.09490	62.72578
49850.00000	75.53557	-2079.68133	75.53557
49900.00000	77.75647	-1694.38285	77.75647
49950.00000	75.92193	-1411.26568	75.92193
