---ACOUSTIC CALIBRATION---
Filename: C:\Data\AZH DATA\AZH61\RightSecondary.calib
Date: 8/27/2019 3:33:02 PM
Format: 4
Probe Tube Correction File: C:\Data\Probe Tube Calibrations\50_ProbeTube.calib
Experiment VIs: 850
EPL_CFTS.exe V12.0.1 (2012)
DAQmx V9.6

Attenuation (dB): 40.000000
Min Freq (Hz): 50.000000
Max Freq (Hz): 49950.000000
Freq Step (Hz): 50.000000
Sample Rate (Hz): 100000.000000
[Smoothing]
Method=None
MA.Iterations=0
MA.Length=0
Loess.Length=0
Loess.Type=Linear
Loess.Robust=FALSE


Freq(Hz)	Mag(dB)	Phase(deg)	Unsmoothed(dB)

50.00000	94.56519	310.30704	94.56519
100.00000	83.79278	239.10453	83.79278
150.00000	73.52980	86.26986	73.52980
200.00000	75.19688	43.93074	75.19688
250.00000	86.48342	39.98453	86.48342
300.00000	84.21604	-34.18138	84.21604
350.00000	82.87028	-29.41793	82.87028
400.00000	84.88096	-44.02720	84.88096
450.00000	85.43007	-49.42496	85.43007
500.00000	87.15070	-47.97670	87.15070
550.00000	89.17322	-42.82482	89.17322
600.00000	91.88725	-56.64334	91.88725
650.00000	92.83545	-52.50535	92.83545
700.00000	94.95522	-64.24584	94.95522
750.00000	96.71997	-61.90990	96.71997
800.00000	99.65324	-75.51195	99.65324
850.00000	101.62683	-83.00713	101.62683
900.00000	103.09659	-101.00959	103.09659
950.00000	104.29151	-117.11283	104.29151
1000.00000	104.23626	-134.82462	104.23626
1050.00000	103.61473	-143.98121	103.61473
1100.00000	103.83038	-156.32617	103.83038
1150.00000	102.78429	-167.32518	102.78429
1200.00000	102.20206	-168.64588	102.20206
1250.00000	102.32093	-179.92580	102.32093
1300.00000	101.20852	-185.52183	101.20852
1350.00000	100.45895	-190.22918	100.45895
1400.00000	99.38622	-188.48540	99.38622
1450.00000	99.86306	-188.93978	99.86306
1500.00000	99.64460	-189.23790	99.64460
1550.00000	99.91455	-192.26497	99.91455
1600.00000	100.36806	-196.42715	100.36806
1650.00000	101.21404	-204.02314	101.21404
1700.00000	99.70627	-209.39490	99.70627
1750.00000	99.76989	-209.71545	99.76989
1800.00000	99.44505	-213.83930	99.44505
1850.00000	99.13548	-209.50171	99.13548
1900.00000	100.12650	-210.07829	100.12650
1950.00000	100.91068	-217.43590	100.91068
2000.00000	100.92099	-226.56095	100.92099
2050.00000	99.58219	-230.68048	99.58219
2100.00000	99.82097	-232.57588	99.82097
2150.00000	99.33150	-236.13093	99.33150
2200.00000	98.90585	-237.06717	98.90585
2250.00000	97.85215	-241.31707	97.85215
2300.00000	97.96628	-239.30381	97.96628
2350.00000	97.44011	-239.66069	97.44011
2400.00000	97.32279	-237.36390	97.32279
2450.00000	97.24932	-241.05005	97.24932
2500.00000	96.68143	-239.37304	96.68143
2550.00000	96.26547	-237.85247	96.26547
2600.00000	96.05377	-230.82636	96.05377
2650.00000	97.14052	-223.01408	97.14052
2700.00000	98.85316	-220.81066	98.85316
2750.00000	100.50656	-228.60780	100.50656
2800.00000	101.14823	-238.60580	101.14823
2850.00000	101.09499	-246.44158	101.09499
2900.00000	100.62551	-253.00234	100.62551
2950.00000	100.40385	-257.19269	100.40385
3000.00000	99.98767	-260.70497	99.98767
3050.00000	99.47359	-263.90270	99.47359
3100.00000	99.29320	-265.52188	99.29320
3150.00000	98.87687	-269.99176	98.87687
3200.00000	98.19283	-272.14151	98.19283
3250.00000	97.54366	-274.41931	97.54366
3300.00000	96.74391	-276.22388	96.74391
3350.00000	95.45367	-273.43977	95.45367
3400.00000	94.47771	-266.50762	94.47771
3450.00000	94.27524	-257.90299	94.27524
3500.00000	94.75785	-251.35224	94.75785
3550.00000	95.26221	-247.87057	95.26221
3600.00000	95.34230	-244.72837	95.34230
3650.00000	95.17644	-242.38565	95.17644
3700.00000	95.04769	-233.85690	95.04769
3750.00000	95.87895	-221.50067	95.87895
3800.00000	97.59322	-213.04142	97.59322
3850.00000	99.47616	-208.90958	99.47616
3900.00000	101.42693	-209.20049	101.42693
3950.00000	103.07984	-211.75017	103.07984
4000.00000	104.36342	-215.39904	104.36342
4050.00000	105.47268	-220.16211	105.47268
4100.00000	106.32129	-223.84290	106.32129
4150.00000	107.35785	-227.32567	107.35785
4200.00000	108.03263	-230.99585	108.03263
4250.00000	108.84844	-233.38376	108.84844
4300.00000	109.74988	-235.75460	109.74988
4350.00000	110.69760	-238.04767	110.69760
4400.00000	111.82497	-240.45675	111.82497
4450.00000	113.04049	-243.49756	113.04049
4500.00000	114.38765	-247.86496	114.38765
4550.00000	115.78465	-253.57575	115.78465
4600.00000	117.13159	-260.73929	117.13159
4650.00000	118.52369	-269.24525	118.52369
4700.00000	119.82208	-279.69306	119.82208
4750.00000	120.95066	-292.11685	120.95066
4800.00000	121.79604	-306.39597	121.79604
4850.00000	122.19856	-321.65072	122.19856
4900.00000	122.12600	-337.10086	122.12600
4950.00000	121.57516	-351.54529	121.57516
5000.00000	120.55067	-363.57381	120.55067
5050.00000	119.50650	-371.86934	119.50650
5100.00000	118.31276	-381.35928	118.31276
5150.00000	115.83491	-384.13820	115.83491
5200.00000	114.63797	-365.97722	114.63797
5250.00000	117.70049	-359.58056	117.70049
5300.00000	119.48914	-372.59020	119.48914
5350.00000	119.82896	-386.10798	119.82896
5400.00000	119.58671	-397.17225	119.58671
5450.00000	119.16683	-406.00769	119.16683
5500.00000	118.69358	-413.61282	118.69358
5550.00000	118.22832	-420.09697	118.22832
5600.00000	117.75994	-426.03458	117.75994
5650.00000	117.32329	-431.40816	117.32329
5700.00000	116.88054	-436.56234	116.88054
5750.00000	116.46045	-441.20427	116.46045
5800.00000	116.04534	-445.77056	116.04534
5850.00000	115.67103	-450.14061	115.67103
5900.00000	115.29646	-454.18957	115.29646
5950.00000	114.94023	-458.13960	114.94023
6000.00000	114.59262	-461.86841	114.59262
6050.00000	114.23213	-465.56459	114.23213
6100.00000	113.90041	-469.16994	113.90041
6150.00000	113.55728	-472.69419	113.55728
6200.00000	113.22635	-476.02357	113.22635
6250.00000	112.90873	-479.34357	112.90873
6300.00000	112.60355	-482.65475	112.60355
6350.00000	112.29383	-485.86291	112.29383
6400.00000	111.98482	-489.00817	111.98482
6450.00000	111.70036	-492.18668	111.70036
6500.00000	111.37854	-495.27936	111.37854
6550.00000	111.07073	-498.16063	111.07073
6600.00000	110.76588	-500.92802	110.76588
6650.00000	110.46895	-503.62217	110.46895
6700.00000	110.16607	-506.28226	110.16607
6750.00000	109.88249	-508.64913	109.88249
6800.00000	109.58658	-510.95179	109.58658
6850.00000	109.32174	-513.16841	109.32174
6900.00000	109.07181	-515.12744	109.07181
6950.00000	108.84096	-517.16719	108.84096
7000.00000	108.63650	-519.16266	108.63650
7050.00000	108.43026	-521.26234	108.43026
7100.00000	108.25110	-523.28276	108.25110
7150.00000	108.04838	-525.25139	108.04838
7200.00000	107.87613	-527.34094	107.87613
7250.00000	107.70352	-529.14323	107.70352
7300.00000	107.60113	-530.96997	107.60113
7350.00000	107.47438	-532.50583	107.47438
7400.00000	107.39691	-534.36489	107.39691
7450.00000	107.33986	-536.17976	107.33986
7500.00000	107.34665	-538.05417	107.34665
7550.00000	107.33751	-540.08441	107.33751
7600.00000	107.33518	-542.46121	107.33518
7650.00000	107.36296	-544.84734	107.36296
7700.00000	107.44060	-547.52725	107.44060
7750.00000	107.43170	-550.40925	107.43170
7800.00000	107.46571	-553.73693	107.46571
7850.00000	107.46151	-557.25757	107.46151
7900.00000	107.42022	-560.85354	107.42022
7950.00000	107.32513	-564.77656	107.32513
8000.00000	107.21711	-568.45547	107.21711
8050.00000	107.05952	-572.63151	107.05952
8100.00000	106.90233	-575.99172	106.90233
8150.00000	106.63889	-579.54275	106.63889
8200.00000	106.41120	-582.76295	106.41120
8250.00000	106.13884	-586.28993	106.13884
8300.00000	105.86749	-589.57606	105.86749
8350.00000	105.54372	-592.45649	105.54372
8400.00000	105.21560	-595.76769	105.21560
8450.00000	104.82491	-598.43675	104.82491
8500.00000	104.46692	-601.12347	104.46692
8550.00000	104.15695	-603.18294	104.15695
8600.00000	103.80706	-605.59181	103.80706
8650.00000	103.45546	-607.58016	103.45546
8700.00000	103.15508	-610.07821	103.15508
8750.00000	102.80633	-611.24647	102.80633
8800.00000	102.52715	-613.30406	102.52715
8850.00000	102.19693	-615.20068	102.19693
8900.00000	101.96031	-616.60547	101.96031
8950.00000	101.72593	-618.65332	101.72593
9000.00000	101.43982	-620.26129	101.43982
9050.00000	101.31722	-622.10357	101.31722
9100.00000	101.15512	-623.67095	101.15512
9150.00000	101.01929	-625.23353	101.01929
9200.00000	100.92854	-626.73428	100.92854
9250.00000	100.77102	-627.98695	100.77102
9300.00000	100.67397	-629.50425	100.67397
9350.00000	100.61518	-630.88160	100.61518
9400.00000	100.39821	-631.80226	100.39821
9450.00000	100.34793	-633.37475	100.34793
9500.00000	100.28766	-634.89483	100.28766
9550.00000	100.18105	-636.50384	100.18105
9600.00000	100.18153	-638.52073	100.18153
9650.00000	100.14045	-640.78127	100.14045
9700.00000	100.08974	-642.39259	100.08974
9750.00000	100.14431	-645.11084	100.14431
9800.00000	100.09067	-646.60105	100.09067
9850.00000	100.04176	-647.92375	100.04176
9900.00000	99.85485	-649.80836	99.85485
9950.00000	99.71362	-650.95307	99.71362
10000.00000	99.54556	-653.16465	99.54556
10050.00000	99.32755	-654.89328	99.32755
10100.00000	99.11201	-657.04693	99.11201
10150.00000	98.85525	-659.98782	98.85525
10200.00000	98.69038	-662.63720	98.69038
10250.00000	98.55504	-665.57005	98.55504
10300.00000	98.58536	-668.01373	98.58536
10350.00000	98.50418	-670.16121	98.50418
10400.00000	98.38473	-672.27605	98.38473
10450.00000	98.38554	-674.29956	98.38554
10500.00000	98.35175	-676.10892	98.35175
10550.00000	98.24056	-678.07253	98.24056
10600.00000	98.06929	-680.05505	98.06929
10650.00000	97.87554	-681.91826	97.87554
10700.00000	97.74148	-685.19630	97.74148
10750.00000	97.68172	-687.89544	97.68172
10800.00000	97.54654	-690.38045	97.54654
10850.00000	97.45618	-693.73514	97.45618
10900.00000	97.37956	-696.00737	97.37956
10950.00000	97.26778	-697.87674	97.26778
11000.00000	97.11645	-699.97011	97.11645
11050.00000	96.75609	-702.03263	96.75609
11100.00000	96.48950	-704.73061	96.48950
11150.00000	96.11762	-706.80221	96.11762
11200.00000	95.91662	-709.11468	95.91662
11250.00000	95.58896	-711.94533	95.58896
11300.00000	95.27572	-714.46360	95.27572
11350.00000	95.03818	-716.13228	95.03818
11400.00000	94.72598	-717.77818	94.72598
11450.00000	94.49453	-719.63033	94.49453
11500.00000	94.35948	-720.34435	94.35948
11550.00000	93.98664	-721.43184	93.98664
11600.00000	93.80394	-723.43374	93.80394
11650.00000	93.51391	-723.82266	93.51391
11700.00000	93.36084	-725.39490	93.36084
11750.00000	93.27138	-727.05559	93.27138
11800.00000	93.16319	-728.91480	93.16319
11850.00000	93.12188	-729.36668	93.12188
11900.00000	92.86228	-731.21847	92.86228
11950.00000	92.77308	-732.16628	92.77308
12000.00000	92.56840	-733.37863	92.56840
12050.00000	92.30824	-734.80347	92.30824
12100.00000	92.16294	-737.82026	92.16294
12150.00000	91.97054	-740.15847	91.97054
12200.00000	91.88262	-742.66481	91.88262
12250.00000	91.73122	-744.60008	91.73122
12300.00000	92.71076	-746.97188	92.71076
12350.00000	91.37134	-748.86875	91.37134
12400.00000	91.09219	-749.70743	91.09219
12450.00000	90.71893	-751.02175	90.71893
12500.00000	90.35232	-753.09053	90.35232
12550.00000	90.01474	-754.66802	90.01474
12600.00000	89.57940	-756.47371	89.57940
12650.00000	89.39241	-758.32082	89.39241
12700.00000	88.95690	-759.46047	88.95690
12750.00000	88.64457	-760.93163	88.64457
12800.00000	88.26178	-761.19500	88.26178
12850.00000	87.61129	-761.33879	87.61129
12900.00000	87.32696	-762.74832	87.32696
12950.00000	87.02050	-763.34233	87.02050
13000.00000	86.73978	-764.35946	86.73978
13050.00000	86.58209	-763.63609	86.58209
13100.00000	86.36947	-764.11712	86.36947
13150.00000	86.24176	-763.57722	86.24176
13200.00000	85.95327	-761.76417	85.95327
13250.00000	85.66150	-761.83578	85.66150
13300.00000	85.27262	-759.59642	85.27262
13350.00000	85.01825	-760.86872	85.01825
13400.00000	84.84656	-761.24246	84.84656
13450.00000	84.49687	-760.54337	84.49687
13500.00000	84.63401	-759.30708	84.63401
13550.00000	84.33940	-758.85904	84.33940
13600.00000	84.09153	-757.27423	84.09153
13650.00000	84.04256	-756.30050	84.04256
13700.00000	83.80359	-755.41380	83.80359
13750.00000	83.42461	-753.48588	83.42461
13800.00000	83.27341	-754.89598	83.27341
13850.00000	83.26080	-755.10504	83.26080
13900.00000	83.16352	-753.94604	83.16352
13950.00000	83.24338	-752.11498	83.24338
14000.00000	83.39989	-751.02861	83.39989
14050.00000	83.57917	-749.24707	83.57917
14100.00000	83.37595	-746.97734	83.37595
14150.00000	83.47476	-746.01617	83.47476
14200.00000	83.45028	-746.63763	83.45028
14250.00000	83.88768	-741.77898	83.88768
14300.00000	83.82281	-740.45428	83.82281
14350.00000	83.85509	-738.61334	83.85509
14400.00000	83.74605	-739.13202	83.74605
14450.00000	83.81072	-736.62540	83.81072
14500.00000	83.82242	-737.52075	83.82242
14550.00000	84.29594	-737.26760	84.29594
14600.00000	84.40166	-737.42789	84.40166
14650.00000	85.02150	-733.56944	85.02150
14700.00000	85.24360	-737.45095	85.24360
14750.00000	85.59426	-735.63060	85.59426
14800.00000	85.69851	-734.72593	85.69851
14850.00000	86.13372	-735.35008	86.13372
14900.00000	86.66417	-735.67376	86.66417
14950.00000	86.89044	-736.57729	86.89044
15000.00000	87.35338	-737.72918	87.35338
15050.00000	87.60568	-737.34746	87.60568
15100.00000	87.99700	-736.67846	87.99700
15150.00000	88.42117	-738.72520	88.42117
15200.00000	88.69390	-736.97489	88.69390
15250.00000	88.85023	-737.65773	88.85023
15300.00000	89.30974	-738.10433	89.30974
15350.00000	89.55745	-739.65071	89.55745
15400.00000	89.79516	-738.03041	89.79516
15450.00000	90.02914	-738.47290	90.02914
15500.00000	90.43698	-740.43080	90.43698
15550.00000	90.82024	-742.01181	90.82024
15600.00000	91.08763	-743.50314	91.08763
15650.00000	91.61113	-743.89915	91.61113
15700.00000	91.91011	-746.02091	91.91011
15750.00000	92.48188	-746.93630	92.48188
15800.00000	92.79422	-747.60535	92.79422
15850.00000	93.14082	-749.21684	93.14082
15900.00000	93.40690	-752.04683	93.40690
15950.00000	93.83837	-754.01923	93.83837
16000.00000	94.35698	-755.96272	94.35698
16050.00000	94.78831	-756.99601	94.78831
16100.00000	94.95347	-759.74914	94.95347
16150.00000	95.23782	-761.69984	95.23782
16200.00000	95.61834	-764.55614	95.61834
16250.00000	95.93608	-766.54873	95.93608
16300.00000	96.40158	-768.76282	96.40158
16350.00000	96.65541	-771.29006	96.65541
16400.00000	96.82922	-773.88500	96.82922
16450.00000	97.09408	-777.07286	97.09408
16500.00000	97.33022	-779.94854	97.33022
16550.00000	97.59511	-783.39237	97.59511
16600.00000	97.91297	-786.49603	97.91297
16650.00000	98.13062	-788.65297	98.13062
16700.00000	98.30517	-790.57028	98.30517
16750.00000	98.44056	-793.40818	98.44056
16800.00000	98.59974	-795.94160	98.59974
16850.00000	98.78557	-798.36711	98.78557
16900.00000	99.03776	-801.28067	99.03776
16950.00000	99.15423	-803.43156	99.15423
17000.00000	99.15049	-806.39322	99.15049
17050.00000	99.33826	-808.07407	99.33826
17100.00000	99.46040	-809.80353	99.46040
17150.00000	99.83634	-813.46788	99.83634
17200.00000	100.08686	-815.49535	100.08686
17250.00000	100.19130	-818.05680	100.19130
17300.00000	100.49369	-819.96639	100.49369
17350.00000	100.50314	-821.78996	100.50314
17400.00000	100.69685	-824.63786	100.69685
17450.00000	100.81724	-827.76336	100.81724
17500.00000	101.07155	-830.49990	101.07155
17550.00000	101.19682	-833.37700	101.19682
17600.00000	101.53310	-835.57356	101.53310
17650.00000	101.68094	-839.17512	101.68094
17700.00000	101.84544	-842.28969	101.84544
17750.00000	102.15587	-844.41202	102.15587
17800.00000	102.19827	-847.56026	102.19827
17850.00000	102.37384	-849.92610	102.37384
17900.00000	102.47156	-852.84167	102.47156
17950.00000	102.62153	-856.34668	102.62153
18000.00000	102.76697	-860.18125	102.76697
18050.00000	103.02546	-862.71133	103.02546
18100.00000	103.09245	-866.58485	103.09245
18150.00000	103.24294	-868.92150	103.24294
18200.00000	103.27976	-872.39894	103.27976
18250.00000	103.43773	-874.81132	103.43773
18300.00000	103.60186	-877.97959	103.60186
18350.00000	103.64444	-880.76194	103.64444
18400.00000	103.67097	-884.39338	103.67097
18450.00000	103.66501	-888.75178	103.66501
18500.00000	103.78541	-891.82524	103.78541
18550.00000	103.91084	-894.67676	103.91084
18600.00000	104.10924	-898.02703	104.10924
18650.00000	104.05860	-900.72053	104.05860
18700.00000	104.02554	-904.16436	104.02554
18750.00000	104.09922	-907.41289	104.09922
18800.00000	104.26160	-910.11714	104.26160
18850.00000	104.17396	-913.72625	104.17396
18900.00000	104.21835	-916.94189	104.21835
18950.00000	104.32835	-920.76830	104.32835
19000.00000	104.20628	-923.30007	104.20628
19050.00000	104.35326	-926.63768	104.35326
19100.00000	104.30457	-929.63902	104.30457
19150.00000	104.41003	-932.83242	104.41003
19200.00000	104.37764	-935.85637	104.37764
19250.00000	104.34106	-940.26164	104.34106
19300.00000	104.28596	-943.00190	104.28596
19350.00000	104.31869	-946.29381	104.31869
19400.00000	104.27664	-949.19652	104.27664
19450.00000	104.33170	-951.85478	104.33170
19500.00000	104.15501	-955.77272	104.15501
19550.00000	104.12536	-958.99255	104.12536
19600.00000	104.13168	-962.91016	104.13168
19650.00000	104.04300	-965.85733	104.04300
19700.00000	103.92097	-968.92675	103.92097
19750.00000	103.79912	-971.35589	103.79912
19800.00000	103.78475	-975.38936	103.78475
19850.00000	103.70201	-978.15320	103.70201
19900.00000	103.53697	-982.11348	103.53697
19950.00000	103.41802	-985.16801	103.41802
20000.00000	103.32452	-988.33878	103.32452
20050.00000	103.23253	-991.13774	103.23253
20100.00000	102.98513	-994.10017	102.98513
20150.00000	102.90688	-996.10017	102.90688
20200.00000	102.68824	-999.64616	102.68824
20250.00000	102.46104	-1002.44109	102.46104
20300.00000	102.23929	-1005.16662	102.23929
20350.00000	102.15235	-1007.91926	102.15235
20400.00000	101.89838	-1009.39766	101.89838
20450.00000	101.60468	-1011.61244	101.60468
20500.00000	101.43931	-1014.17253	101.43931
20550.00000	101.00138	-1015.73601	101.00138
20600.00000	100.89933	-1017.39512	100.89933
20650.00000	100.73920	-1018.96520	100.73920
20700.00000	100.48410	-1019.99622	100.48410
20750.00000	100.32289	-1021.03386	100.32289
20800.00000	100.09013	-1021.89408	100.09013
20850.00000	99.99687	-1023.13038	99.99687
20900.00000	99.86815	-1023.73710	99.86815
20950.00000	99.78043	-1023.63789	99.78043
21000.00000	99.72367	-1023.85009	99.72367
21050.00000	99.81357	-1023.88200	99.81357
21100.00000	99.82266	-1024.15960	99.82266
21150.00000	100.01506	-1024.82735	100.01506
21200.00000	100.21818	-1025.15041	100.21818
21250.00000	100.39097	-1027.05522	100.39097
21300.00000	100.61646	-1027.51482	100.61646
21350.00000	100.80141	-1028.87700	100.80141
21400.00000	101.00171	-1031.05257	101.00171
21450.00000	101.22984	-1033.22821	101.22984
21500.00000	101.45076	-1035.55475	101.45076
21550.00000	101.52705	-1037.58714	101.52705
21600.00000	101.73025	-1040.10517	101.73025
21650.00000	101.79774	-1042.97713	101.79774
21700.00000	101.88944	-1045.49004	101.88944
21750.00000	102.03307	-1048.19183	102.03307
21800.00000	102.12427	-1050.60563	102.12427
21850.00000	102.06813	-1052.96771	102.06813
21900.00000	102.12873	-1055.71493	102.12873
21950.00000	102.11034	-1058.32879	102.11034
22000.00000	102.26034	-1061.11177	102.26034
22050.00000	102.27325	-1062.75281	102.27325
22100.00000	102.24373	-1064.97358	102.24373
22150.00000	102.13928	-1067.16959	102.13928
22200.00000	102.20442	-1070.27278	102.20442
22250.00000	102.20816	-1072.00963	102.20816
22300.00000	102.15112	-1074.13459	102.15112
22350.00000	102.24077	-1076.12166	102.24077
22400.00000	102.09904	-1078.44041	102.09904
22450.00000	102.04437	-1080.67274	102.04437
22500.00000	102.08146	-1082.03564	102.08146
22550.00000	102.13381	-1083.94259	102.13381
22600.00000	102.03873	-1086.33097	102.03873
22650.00000	101.97299	-1088.09659	101.97299
22700.00000	101.94307	-1090.46504	101.94307
22750.00000	102.01945	-1090.98498	102.01945
22800.00000	102.08132	-1093.60751	102.08132
22850.00000	102.05846	-1095.77484	102.05846
22900.00000	102.02917	-1096.59042	102.02917
22950.00000	102.02895	-1098.76381	102.02895
23000.00000	102.17112	-1099.68209	102.17112
23050.00000	102.14586	-1101.88948	102.14586
23100.00000	102.23902	-1102.22080	102.23902
23150.00000	102.01787	-1103.55122	102.01787
23200.00000	102.30857	-1107.25504	102.30857
23250.00000	102.28152	-1109.29393	102.28152
23300.00000	102.64859	-1111.13425	102.64859
23350.00000	102.29508	-1111.94435	102.29508
23400.00000	102.35456	-1115.09786	102.35456
23450.00000	102.55141	-1115.67396	102.55141
23500.00000	102.54939	-1118.11608	102.54939
23550.00000	102.57818	-1117.59005	102.57818
23600.00000	102.39106	-1121.81179	102.39106
23650.00000	102.57030	-1123.24670	102.57030
23700.00000	102.90098	-1128.34138	102.90098
23750.00000	102.93894	-1127.99868	102.93894
23800.00000	102.66534	-1128.47445	102.66534
23850.00000	102.80853	-1130.33991	102.80853
23900.00000	103.34411	-1133.43212	103.34411
23950.00000	103.13825	-1136.14427	103.13825
24000.00000	103.00961	-1138.43307	103.00961
24050.00000	102.96332	-1138.59763	102.96332
24100.00000	103.39240	-1144.01175	103.39240
24150.00000	103.58757	-1145.90681	103.58757
24200.00000	103.64697	-1149.41619	103.64697
24250.00000	103.30222	-1149.35583	103.30222
24300.00000	103.75538	-1153.85118	103.75538
24350.00000	103.68944	-1156.92996	103.68944
24400.00000	103.63904	-1159.21341	103.63904
24450.00000	103.29766	-1160.99667	103.29766
24500.00000	103.69569	-1162.70032	103.69569
24550.00000	103.64244	-808.86798	103.64244
24600.00000	104.15736	-809.53496	104.15736
24650.00000	103.82090	-453.55706	103.82090
24700.00000	103.52441	-94.37815	103.52441
24750.00000	103.71859	259.10284	103.71859
24800.00000	103.73934	617.36071	103.73934
24850.00000	103.29507	975.93171	103.29507
24900.00000	103.23677	1334.40084	103.23677
24950.00000	103.55861	1687.54312	103.55861
25000.00000	103.59952	1681.97573	103.59952
25050.00000	103.30843	1682.97402	103.30843
25100.00000	102.81233	1677.74243	102.81233
25150.00000	103.35232	1675.97009	103.35232
25200.00000	102.93504	1672.14700	102.93504
25250.00000	103.10627	1671.98408	103.10627
25300.00000	102.81529	1668.63627	102.81529
25350.00000	102.68382	1661.43191	102.68382
25400.00000	102.63224	1658.13823	102.63224
25450.00000	102.50375	1656.86270	102.50375
25500.00000	102.12063	1653.55487	102.12063
25550.00000	102.20462	1650.24650	102.20462
25600.00000	102.14767	1647.41634	102.14767
25650.00000	101.76387	1645.91743	101.76387
25700.00000	101.72390	1641.39621	101.72390
25750.00000	101.59634	1638.86369	101.59634
25800.00000	101.38520	1635.45360	101.38520
25850.00000	101.05745	1633.16543	101.05745
25900.00000	100.96018	1627.81921	100.96018
25950.00000	100.69113	1629.37559	100.69113
26000.00000	100.59758	1624.13799	100.59758
26050.00000	100.26232	1621.60825	100.26232
26100.00000	100.21983	1618.02755	100.21983
26150.00000	100.07399	1616.70974	100.07399
26200.00000	99.84920	1613.83552	99.84920
26250.00000	99.43939	1611.12181	99.43939
26300.00000	99.72307	1606.73533	99.72307
26350.00000	98.97717	1607.07021	98.97717
26400.00000	98.78120	1604.40459	98.78120
26450.00000	98.89897	1598.19887	98.89897
26500.00000	98.70394	1597.84054	98.70394
26550.00000	98.34797	1592.59530	98.34797
26600.00000	97.74357	1590.53123	97.74357
26650.00000	98.19853	1590.42419	98.19853
26700.00000	97.74462	1589.53824	97.74462
26750.00000	97.36548	1585.87301	97.36548
26800.00000	96.92826	1579.82582	96.92826
26850.00000	97.34774	1580.20492	97.34774
26900.00000	96.96558	1580.16998	96.96558
26950.00000	96.84128	1575.75331	96.84128
27000.00000	96.31939	1574.24194	96.31939
27050.00000	96.60016	1572.61393	96.60016
27100.00000	95.56064	1571.88351	95.56064
27150.00000	95.73636	1567.65947	95.73636
27200.00000	95.99931	1566.82120	95.99931
27250.00000	95.10025	1568.82070	95.10025
27300.00000	94.64035	1564.08875	94.64035
27350.00000	94.85129	1564.38910	94.85129
27400.00000	94.50337	1564.20091	94.50337
27450.00000	94.14322	1561.56715	94.14322
27500.00000	94.38800	1560.16130	94.38800
27550.00000	94.23800	1559.88009	94.23800
27600.00000	94.16411	1559.72851	94.16411
27650.00000	93.90567	1558.29198	93.90567
27700.00000	93.99614	1555.53972	93.99614
27750.00000	93.95521	1555.87427	93.95521
27800.00000	93.66460	1551.00013	93.66460
27850.00000	94.29624	1553.59735	94.29624
27900.00000	93.91009	1553.78801	93.91009
27950.00000	93.06807	1550.89181	93.06807
28000.00000	93.58293	1550.68367	93.58293
28050.00000	94.26447	1550.62648	94.26447
28100.00000	93.49931	1547.83630	93.49931
28150.00000	93.51042	1546.44244	93.51042
28200.00000	94.14551	1545.51856	94.14551
28250.00000	93.53058	1541.92035	93.53058
28300.00000	93.26716	1541.64844	93.26716
28350.00000	94.01836	1541.80631	94.01836
28400.00000	93.52758	1543.14212	93.52758
28450.00000	94.51179	1539.27773	94.51179
28500.00000	94.30264	1538.12075	94.30264
28550.00000	94.00221	1540.09291	94.00221
28600.00000	93.99506	1536.36038	93.99506
28650.00000	94.79131	1534.12365	94.79131
28700.00000	94.78277	1535.26049	94.78277
28750.00000	95.22690	1534.35519	95.22690
28800.00000	95.47452	1531.58237	95.47452
28850.00000	94.86787	1528.80999	94.86787
28900.00000	95.01597	1525.56694	95.01597
28950.00000	95.16648	1525.95921	95.16648
29000.00000	95.59573	1525.66709	95.59573
29050.00000	95.30220	1523.87107	95.30220
29100.00000	95.59153	1522.45390	95.59153
29150.00000	95.56283	1523.14711	95.56283
29200.00000	95.31021	1517.41937	95.31021
29250.00000	95.93145	1517.12629	95.93145
29300.00000	95.97000	1516.82112	95.97000
29350.00000	96.17457	1512.68396	96.17457
29400.00000	96.37730	1511.98489	96.37730
29450.00000	96.15893	1511.32787	96.15893
29500.00000	96.60350	1508.70754	96.60350
29550.00000	96.59979	1503.21739	96.59979
29600.00000	96.45262	1505.63984	96.45262
29650.00000	96.59313	1500.54020	96.59313
29700.00000	96.84158	1502.25686	96.84158
29750.00000	96.61672	1501.49777	96.61672
29800.00000	96.41947	1497.35900	96.41947
29850.00000	96.78269	1494.97533	96.78269
29900.00000	96.92166	1496.01138	96.92166
29950.00000	96.02814	1492.75705	96.02814
30000.00000	96.64991	1494.98197	96.64991
30050.00000	96.51461	1492.22566	96.51461
30100.00000	96.34995	1491.17684	96.34995
30150.00000	96.77236	1489.15960	96.77236
30200.00000	96.38950	1487.35642	96.38950
30250.00000	96.30534	1486.45222	96.30534
30300.00000	96.19085	1488.79127	96.19085
30350.00000	96.10755	1489.44085	96.10755
30400.00000	96.31486	1486.21435	96.31486
30450.00000	95.85785	1488.47152	95.85785
30500.00000	95.79440	1486.81023	95.79440
30550.00000	96.02243	1488.94885	96.02243
30600.00000	95.83633	1490.40051	95.83633
30650.00000	95.91390	1490.52973	95.91390
30700.00000	96.24400	1491.53905	96.24400
30750.00000	95.81482	1493.43833	95.81482
30800.00000	96.12569	1493.19485	96.12569
30850.00000	96.38751	1497.17729	96.38751
30900.00000	96.13004	1498.83425	96.13004
30950.00000	96.80647	1498.72465	96.80647
31000.00000	97.09115	1500.24233	97.09115
31050.00000	97.37498	1500.86720	97.37498
31100.00000	98.17992	1502.29615	98.17992
31150.00000	98.05763	1503.92359	98.05763
31200.00000	98.97547	1502.23846	98.97547
31250.00000	99.44125	1503.48071	99.44125
31300.00000	99.66088	1503.07700	99.66088
31350.00000	100.56718	1501.86396	100.56718
31400.00000	100.80106	1501.04237	100.80106
31450.00000	101.35953	1499.03128	101.35953
31500.00000	101.98610	1496.99632	101.98610
31550.00000	102.29828	1494.99952	102.29828
31600.00000	103.05889	1490.91009	103.05889
31650.00000	103.37426	1489.59645	103.37426
31700.00000	103.65252	1486.34752	103.65252
31750.00000	104.39018	1484.70879	104.39018
31800.00000	104.49103	1480.70399	104.49103
31850.00000	104.95066	1475.12556	104.95066
31900.00000	105.10511	1474.38360	105.10511
31950.00000	105.31762	1468.68873	105.31762
32000.00000	105.76730	1464.90137	105.76730
32050.00000	105.88585	1462.25590	105.88585
32100.00000	106.04951	1456.18892	106.04951
32150.00000	106.27336	1454.61401	106.27336
32200.00000	106.30471	1449.47054	106.30471
32250.00000	106.62181	1444.41626	106.62181
32300.00000	106.45517	1441.83155	106.45517
32350.00000	106.53228	1436.71905	106.53228
32400.00000	106.86160	1434.18318	106.86160
32450.00000	106.54594	1429.18857	106.54594
32500.00000	106.93101	1426.43106	106.93101
32550.00000	106.79251	1422.07878	106.79251
32600.00000	106.66098	1417.29674	106.66098
32650.00000	106.90564	1415.27304	106.90564
32700.00000	106.53480	1409.61923	106.53480
32750.00000	106.80425	1405.97298	106.80425
32800.00000	106.66659	1404.64652	106.66659
32850.00000	106.76907	1398.58804	106.76907
32900.00000	106.68172	1396.58246	106.68172
32950.00000	106.27594	1390.57169	106.27594
33000.00000	106.62316	1389.43560	106.62316
33050.00000	106.17595	1385.16728	106.17595
33100.00000	106.36473	1379.85208	106.36473
33150.00000	106.27239	1379.19872	106.27239
33200.00000	106.18757	1375.35870	106.18757
33250.00000	106.34281	1372.99101	106.34281
33300.00000	105.84972	1368.19588	105.84972
33350.00000	105.97663	1364.58819	105.97663
33400.00000	105.75247	1365.47827	105.75247
33450.00000	105.85136	1357.20937	105.85136
33500.00000	105.95674	1358.52864	105.95674
33550.00000	105.36334	1351.94488	105.36334
33600.00000	106.13461	1350.47817	106.13461
33650.00000	105.48505	1347.28080	105.48505
33700.00000	105.89884	1342.84416	105.89884
33750.00000	105.53540	1342.33576	105.53540
33800.00000	105.60744	1335.73448	105.60744
33850.00000	105.58649	1336.01371	105.58649
33900.00000	105.32535	1329.99275	105.32535
33950.00000	105.76923	1327.77610	105.76923
34000.00000	105.37182	1325.89052	105.37182
34050.00000	105.69565	1318.91048	105.69565
34100.00000	105.16104	1320.10582	105.16104
34150.00000	105.08904	1311.96317	105.08904
34200.00000	105.54782	1314.81910	105.54782
34250.00000	105.04410	1307.27173	105.04410
34300.00000	105.28197	1304.55506	105.28197
34350.00000	104.81636	1302.42354	104.81636
34400.00000	104.86884	1298.00607	104.86884
34450.00000	104.48600	1296.41562	104.48600
34500.00000	104.58761	1290.62543	104.58761
34550.00000	104.63225	1292.75553	104.63225
34600.00000	103.99725	1284.44170	103.99725
34650.00000	104.71667	1288.23151	104.71667
34700.00000	103.53451	1286.70188	103.53451
34750.00000	104.35288	1278.25072	104.35288
34800.00000	103.81025	1281.69526	103.81025
34850.00000	104.34968	1277.50165	104.34968
34900.00000	104.17815	1276.69757	104.17815
34950.00000	103.70256	1272.15965	103.70256
35000.00000	103.93904	1272.80246	103.93904
35050.00000	103.58378	1268.79193	103.58378
35100.00000	104.16500	1268.94774	104.16500
35150.00000	103.29382	1268.47087	103.29382
35200.00000	104.21602	1264.27168	104.21602
35250.00000	103.68537	1264.14536	103.68537
35300.00000	104.29657	1258.07247	104.29657
35350.00000	103.99137	1262.07194	103.99137
35400.00000	104.43660	1254.12205	104.43660
35450.00000	104.21111	1258.42599	104.21111
35500.00000	103.99139	1251.46008	103.99139
35550.00000	104.82402	1254.78757	104.82402
35600.00000	104.16794	1248.00894	104.16794
35650.00000	104.86612	1250.39890	104.86612
35700.00000	104.45435	1246.49058	104.45435
35750.00000	105.09133	1245.52590	105.09133
35800.00000	104.49608	1245.18671	104.49608
35850.00000	105.43889	1240.58640	105.43889
35900.00000	105.18898	1241.21792	105.18898
35950.00000	105.96770	1235.29178	105.96770
36000.00000	105.31966	1238.90291	105.31966
36050.00000	105.70106	1232.01212	105.70106
36100.00000	105.87080	1234.59760	105.87080
36150.00000	105.87099	1226.92252	105.87099
36200.00000	105.98505	1230.89224	105.98505
36250.00000	105.86453	1225.34934	105.86453
36300.00000	106.52712	1227.62270	106.52712
36350.00000	106.25970	1222.31382	106.25970
36400.00000	106.84819	1223.45895	106.84819
36450.00000	106.21942	1217.57056	106.21942
36500.00000	107.25613	1218.88125	107.25613
36550.00000	106.33183	1214.42328	106.33183
36600.00000	107.01175	1216.72569	107.01175
36650.00000	106.45055	1215.63955	106.45055
36700.00000	107.61561	1212.64889	107.61561
36750.00000	107.05622	1210.28108	107.05622
36800.00000	107.88094	1209.09565	107.88094
36850.00000	107.35662	1208.49583	107.35662
36900.00000	108.13700	1204.44071	108.13700
36950.00000	107.53736	1204.80563	107.53736
37000.00000	107.78735	1200.90209	107.78735
37050.00000	107.52229	1203.67608	107.52229
37100.00000	108.24085	1198.60851	108.24085
37150.00000	108.03370	1199.74166	108.03370
37200.00000	108.76183	1198.52476	108.76183
37250.00000	108.26230	1198.51002	108.26230
37300.00000	108.71089	1193.06661	108.71089
37350.00000	108.79019	1195.46339	108.79019
37400.00000	108.93859	1192.02675	108.93859
37450.00000	108.73857	1194.49223	108.73857
37500.00000	109.53955	1189.09737	109.53955
37550.00000	109.22853	1191.94937	109.22853
37600.00000	109.51630	1186.72925	109.51630
37650.00000	109.57770	1189.62351	109.57770
37700.00000	110.17959	1184.51201	110.17959
37750.00000	110.14640	1186.40410	110.14640
37800.00000	110.62490	1181.54993	110.62490
37850.00000	110.70412	1180.94104	110.70412
37900.00000	111.18247	1177.36715	111.18247
37950.00000	111.21715	1176.97675	111.21715
38000.00000	111.50255	1173.23735	111.50255
38050.00000	111.71151	1172.27046	111.71151
38100.00000	112.17268	1167.79378	112.17268
38150.00000	111.95749	1165.43057	111.95749
38200.00000	112.49110	1161.14783	112.49110
38250.00000	112.40506	1159.49814	112.40506
38300.00000	112.93499	1155.48788	112.93499
38350.00000	112.78458	1153.46097	112.78458
38400.00000	113.18168	1149.83853	113.18168
38450.00000	113.26812	1145.56557	113.26812
38500.00000	113.79864	1141.66896	113.79864
38550.00000	113.81138	1137.22309	113.81138
38600.00000	114.05189	1133.40399	114.05189
38650.00000	113.88234	1128.21322	113.88234
38700.00000	114.13288	1124.98999	114.13288
38750.00000	114.08290	1119.97017	114.08290
38800.00000	114.31230	1116.69875	114.31230
38850.00000	114.38111	1111.03092	114.38111
38900.00000	114.40590	1107.31003	114.40590
38950.00000	114.50602	1101.42781	114.50602
39000.00000	114.32726	1097.67914	114.32726
39050.00000	114.51407	1091.83012	114.51407
39100.00000	114.23182	1087.51705	114.23182
39150.00000	114.23764	1082.92730	114.23764
39200.00000	114.11475	1078.54980	114.11475
39250.00000	114.25709	1074.24492	114.25709
39300.00000	113.99137	1068.70135	113.99137
39350.00000	113.91218	1064.68245	113.91218
39400.00000	113.69195	1059.24316	113.69195
39450.00000	113.62193	1055.80308	113.62193
39500.00000	113.52699	1050.00142	113.52699
39550.00000	113.23047	1045.92722	113.23047
39600.00000	113.04224	1041.42718	113.04224
39650.00000	112.74750	1038.55417	112.74750
39700.00000	112.59213	1033.29268	112.59213
39750.00000	112.34005	1029.31574	112.34005
39800.00000	112.17298	1025.25680	112.17298
39850.00000	111.85809	1020.99338	111.85809
39900.00000	111.73412	1018.15533	111.73412
39950.00000	111.49695	1013.25659	111.49695
40000.00000	111.03056	1011.95240	111.03056
40050.00000	110.90172	1006.58801	110.90172
40100.00000	110.54856	1003.81700	110.54856
40150.00000	110.41207	1000.47056	110.41207
40200.00000	110.04711	997.27530	110.04711
40250.00000	109.85851	995.41796	109.85851
40300.00000	109.71733	992.10276	109.71733
40350.00000	109.30844	990.41646	109.30844
40400.00000	109.06666	986.93476	109.06666
40450.00000	108.88688	985.97867	108.88688
40500.00000	108.71797	983.18149	108.71797
40550.00000	108.45648	980.69800	108.45648
40600.00000	108.40243	979.24165	108.40243
40650.00000	108.10355	977.66868	108.10355
40700.00000	107.94972	977.12944	107.94972
40750.00000	107.87128	974.54919	107.87128
40800.00000	107.63670	973.79916	107.63670
40850.00000	107.61983	972.28941	107.61983
40900.00000	107.40640	970.31849	107.40640
40950.00000	107.36094	971.38362	107.36094
41000.00000	107.06902	969.20622	107.06902
41050.00000	107.30571	970.03665	107.30571
41100.00000	107.44246	967.37329	107.44246
41150.00000	107.44535	969.67955	107.44535
41200.00000	107.66274	967.11273	107.66274
41250.00000	107.50507	965.05740	107.50507
41300.00000	107.62229	965.68048	107.62229
41350.00000	107.80391	966.05497	107.80391
41400.00000	107.91473	961.93581	107.91473
41450.00000	108.15504	962.07562	108.15504
41500.00000	108.06233	962.40940	108.06233
41550.00000	108.52126	964.41410	108.52126
41600.00000	108.07565	962.08133	108.07565
41650.00000	108.88968	960.20645	108.88968
41700.00000	109.18757	958.78463	109.18757
41750.00000	109.14385	964.12840	109.14385
41800.00000	108.74722	956.80196	108.74722
41850.00000	108.57503	959.22094	108.57503
41900.00000	108.91701	957.00301	108.91701
41950.00000	110.24089	959.14444	110.24089
42000.00000	109.21677	955.30513	109.21677
42050.00000	108.71557	951.60123	108.71557
42100.00000	109.09018	951.88572	109.09018
42150.00000	108.94960	946.90983	108.94960
42200.00000	108.77311	951.20373	108.77311
42250.00000	109.13314	951.62851	109.13314
42300.00000	108.21621	945.53664	108.21621
42350.00000	108.78557	947.14889	108.78557
42400.00000	108.55190	948.08628	108.55190
42450.00000	108.97494	941.80367	108.97494
42500.00000	108.54797	943.54798	108.54797
42550.00000	108.75288	950.31188	108.75288
42600.00000	108.02933	943.95073	108.02933
42650.00000	108.12818	945.10346	108.12818
42700.00000	107.43613	939.56431	107.43613
42750.00000	108.26121	940.16984	108.26121
42800.00000	108.06902	933.70424	108.06902
42850.00000	107.13304	931.91775	107.13304
42900.00000	108.58512	939.30383	108.58512
42950.00000	106.93028	930.57695	106.93028
43000.00000	107.75074	924.64685	107.75074
43050.00000	107.15078	921.77579	107.15078
43100.00000	107.17872	926.64089	107.17872
43150.00000	106.10838	925.57315	106.10838
43200.00000	106.42307	915.56047	106.42307
43250.00000	106.40969	919.02232	106.40969
43300.00000	106.47392	916.17919	106.47392
43350.00000	106.91921	912.20782	106.91921
43400.00000	106.43221	908.79101	106.43221
43450.00000	107.44282	908.41646	107.44282
43500.00000	105.62246	900.50432	105.62246
43550.00000	106.43006	901.36380	106.43006
43600.00000	105.58256	891.79214	105.58256
43650.00000	105.79626	887.58899	105.79626
43700.00000	105.70378	888.20730	105.70378
43750.00000	104.93255	881.73524	104.93255
43800.00000	105.36645	876.93428	105.36645
43850.00000	105.37686	870.61814	105.37686
43900.00000	105.31921	866.02912	105.31921
43950.00000	105.03007	866.60446	105.03007
44000.00000	104.24841	857.42148	104.24841
44050.00000	103.90049	857.55227	103.90049
44100.00000	104.66590	847.13625	104.66590
44150.00000	103.57872	843.05663	103.57872
44200.00000	103.08465	847.24395	103.08465
44250.00000	104.09161	840.41326	104.09161
44300.00000	103.65548	829.29007	103.65548
44350.00000	102.40960	832.33022	102.40960
44400.00000	103.36194	822.47244	103.36194
44450.00000	102.30262	819.69980	102.30262
44500.00000	101.95502	821.75824	101.95502
44550.00000	103.17584	808.76223	103.17584
44600.00000	101.52761	808.39798	101.52761
44650.00000	102.09382	804.19224	102.09382
44700.00000	101.15439	795.94523	101.15439
44750.00000	101.05236	804.21996	101.05236
44800.00000	102.08729	792.26634	102.08729
44850.00000	101.06677	780.30141	101.06677
44900.00000	100.33650	790.87400	100.33650
44950.00000	101.32889	776.31191	101.32889
45000.00000	100.31769	764.80758	100.31769
45050.00000	99.38379	781.97676	99.38379
45100.00000	99.62161	766.51699	99.62161
45150.00000	99.20188	755.99156	99.20188
45200.00000	99.46317	763.05341	99.46317
45250.00000	100.07560	751.53814	100.07560
45300.00000	98.39069	746.15046	98.39069
45350.00000	98.17575	738.09458	98.17575
45400.00000	99.16379	732.44449	99.16379
45450.00000	97.95275	727.18278	97.95275
45500.00000	97.24845	717.83269	97.24845
45550.00000	96.69000	725.56310	96.69000
45600.00000	96.44542	710.74873	96.44542
45650.00000	96.64217	707.77917	96.64217
45700.00000	96.51627	692.60435	96.51627
45750.00000	96.71255	704.27647	96.71255
45800.00000	95.91175	695.13037	95.91175
45850.00000	96.29802	685.24570	96.29802
45900.00000	94.88108	681.92651	94.88108
45950.00000	94.34695	683.56027	94.34695
46000.00000	93.15276	658.28065	93.15276
46050.00000	92.50274	658.19670	92.50274
46100.00000	91.60940	675.18101	91.60940
46150.00000	93.01209	659.67344	93.01209
46200.00000	88.59404	640.34811	88.59404
46250.00000	90.76229	648.85203	90.76229
46300.00000	89.29899	643.36071	89.29899
46350.00000	88.51495	634.61373	88.51495
46400.00000	88.86155	640.64025	88.86155
46450.00000	85.96887	637.90009	85.96887
46500.00000	87.36322	626.21006	87.36322
46550.00000	85.54534	645.29483	85.54534
46600.00000	88.80976	638.19777	88.80976
46650.00000	82.46398	615.02666	82.46398
46700.00000	83.69751	639.13729	83.69751
46750.00000	85.22267	638.61187	85.22267
46800.00000	81.70545	625.43489	81.70545
46850.00000	82.01678	294.90618	82.01678
46900.00000	82.46774	269.02890	82.46774
46950.00000	82.38657	263.68383	82.38657
47000.00000	78.63916	282.74493	78.63916
47050.00000	84.59947	265.46142	84.59947
47100.00000	80.56230	255.60375	80.56230
47150.00000	80.82620	258.82247	80.82620
47200.00000	77.11449	270.67498	77.11449
47250.00000	83.22244	252.12811	83.22244
47300.00000	81.50432	235.02283	81.50432
47350.00000	83.95859	-101.13938	83.95859
47400.00000	82.68240	-97.06947	82.68240
47450.00000	81.32578	-116.15214	81.32578
47500.00000	79.42595	-121.62677	79.42595
47550.00000	81.77105	-469.61902	81.77105
47600.00000	80.51516	-477.43211	80.51516
47650.00000	81.49753	-469.23246	81.49753
47700.00000	80.20431	-481.59732	80.20431
47750.00000	76.86203	-459.58335	76.86203
47800.00000	77.21544	-479.68395	77.21544
47850.00000	82.02240	-823.86778	82.02240
47900.00000	79.56402	-1198.83276	79.56402
47950.00000	80.59424	-1196.90058	80.59424
48000.00000	80.09125	-1182.98779	80.09125
48050.00000	81.59945	-1202.29017	81.59945
48100.00000	80.26583	-1219.48016	80.26583
48150.00000	76.57209	-1565.28644	76.57209
48200.00000	82.61310	-1555.54986	82.61310
48250.00000	80.79116	-1579.29817	80.79116
48300.00000	79.87450	-1581.03977	79.87450
48350.00000	80.77770	-1578.62927	80.77770
48400.00000	81.01816	-1944.27414	81.01816
48450.00000	82.36137	-1969.46951	82.36137
48500.00000	79.14087	-1951.00582	79.14087
48550.00000	80.27067	-1937.63597	80.27067
48600.00000	81.18265	-2300.51602	81.18265
48650.00000	79.50818	-2314.64782	79.50818
48700.00000	75.02582	-2334.90202	75.02582
48750.00000	80.83319	-2663.56613	80.83319
48800.00000	82.02877	-2691.66587	82.02877
48850.00000	80.19709	-2700.95209	80.19709
48900.00000	80.79200	-3021.50366	80.79200
48950.00000	82.14170	-3043.41546	82.14170
49000.00000	81.28879	-3077.41490	81.28879
49050.00000	78.22430	-3072.97034	78.22430
49100.00000	81.54264	-3424.09112	81.54264
49150.00000	82.94885	-3796.03637	82.94885
49200.00000	79.75200	-3793.33961	79.75200
49250.00000	76.83352	-4151.15363	76.83352
49300.00000	82.99758	-3786.61974	82.99758
49350.00000	79.10590	-3800.72774	79.10590
49400.00000	80.33404	-3499.92833	80.33404
49450.00000	75.58097	-3094.96465	75.58097
49500.00000	76.74756	-2696.65576	76.74756
49550.00000	84.43489	-2396.07565	84.43489
49600.00000	81.43848	-2412.75125	81.43848
49650.00000	71.06721	-2387.94436	71.06721
49700.00000	83.37200	-2005.54874	83.37200
49750.00000	84.44638	-2081.79738	84.44638
49800.00000	81.50166	-2097.51000	81.50166
49850.00000	77.62644	-2001.24573	77.62644
49900.00000	76.00495	-1631.10159	76.00495
49950.00000	84.42990	-1381.02183	84.42990
