---ACOUSTIC CALIBRATION---
Filename: C:\Data\AZH DATA\AZH61\RightPrimary.calib
Date: 8/27/2019 3:33:16 PM
Format: 4
Probe Tube Correction File: C:\Data\Probe Tube Calibrations\50_ProbeTube.calib
Experiment VIs: 850
EPL_CFTS.exe V12.0.1 (2012)
DAQmx V9.6

Attenuation (dB): 40.000000
Min Freq (Hz): 50.000000
Max Freq (Hz): 49950.000000
Freq Step (Hz): 50.000000
Sample Rate (Hz): 100000.000000
[Smoothing]
Method=None
MA.Iterations=0
MA.Length=0
Loess.Length=0
Loess.Type=Linear
Loess.Robust=FALSE


Freq(Hz)	Mag(dB)	Phase(deg)	Unsmoothed(dB)

50.00000	89.97018	423.25009	89.97018
100.00000	81.50387	580.82714	81.50387
150.00000	83.34749	510.12966	83.34749
200.00000	82.90396	474.22291	82.90396
250.00000	89.24208	463.94158	89.24208
300.00000	85.04172	389.98810	85.04172
350.00000	84.78580	377.93006	84.78580
400.00000	85.60331	362.03831	85.60331
450.00000	86.94735	349.87920	86.94735
500.00000	89.54588	365.07141	89.54588
550.00000	92.51736	359.74041	92.51736
600.00000	95.24242	351.81658	95.24242
650.00000	98.09962	342.85327	98.09962
700.00000	100.50556	326.64393	100.50556
750.00000	102.44572	311.20182	102.44572
800.00000	103.27872	287.34403	103.27872
850.00000	102.85138	271.78864	102.85138
900.00000	101.30094	255.09053	101.30094
950.00000	99.55369	253.45264	99.55369
1000.00000	98.07943	254.30933	98.07943
1050.00000	96.14503	269.25596	96.14503
1100.00000	97.89189	290.29436	97.89189
1150.00000	100.70273	295.50937	100.70273
1200.00000	103.40672	293.92443	103.40672
1250.00000	105.10943	286.77320	105.10943
1300.00000	106.78952	281.66615	106.78952
1350.00000	108.08159	272.20553	108.08159
1400.00000	109.03034	265.79104	109.03034
1450.00000	110.06766	258.86115	110.06766
1500.00000	111.19897	252.33674	111.19897
1550.00000	112.06121	243.06373	112.06121
1600.00000	113.44759	233.33520	113.44759
1650.00000	114.46589	216.65124	114.46589
1700.00000	113.22739	206.82707	113.22739
1750.00000	113.04615	201.22930	113.04615
1800.00000	112.80931	196.55284	112.80931
1850.00000	112.98861	195.44674	112.98861
1900.00000	114.16699	191.19688	114.16699
1950.00000	114.83099	177.75373	114.83099
2000.00000	113.86484	165.72022	113.86484
2050.00000	112.56897	169.78760	112.56897
2100.00000	114.34253	169.74678	114.34253
2150.00000	115.01311	158.64344	115.01311
2200.00000	114.91754	148.47978	114.91754
2250.00000	114.31914	141.55409	114.31914
2300.00000	114.40494	135.94951	114.40494
2350.00000	114.13005	129.53958	114.13005
2400.00000	113.87058	124.09016	113.87058
2450.00000	113.55306	117.47413	113.55306
2500.00000	113.16330	112.56709	113.16330
2550.00000	112.71069	107.13118	112.71069
2600.00000	112.16441	102.95912	112.16441
2650.00000	111.67238	99.15465	111.67238
2700.00000	111.13430	95.59872	111.13430
2750.00000	110.55054	92.43493	110.55054
2800.00000	109.94216	89.91606	109.94216
2850.00000	109.35054	88.13392	109.35054
2900.00000	108.71900	86.11264	108.71900
2950.00000	108.02753	85.29215	108.02753
3000.00000	107.27708	84.48862	107.27708
3050.00000	106.33899	84.58070	106.33899
3100.00000	105.44130	87.33456	105.44130
3150.00000	104.30660	90.57729	104.30660
3200.00000	103.34090	100.03795	103.34090
3250.00000	103.07404	111.85945	103.07404
3300.00000	103.45910	124.28830	103.45910
3350.00000	104.52606	137.01955	104.52606
3400.00000	106.50782	147.69550	106.50782
3450.00000	108.84916	151.74974	108.84916
3500.00000	111.19884	151.03709	111.19884
3550.00000	113.00870	146.64963	113.00870
3600.00000	114.65391	142.08757	114.65391
3650.00000	116.02013	136.16163	116.02013
3700.00000	117.26198	130.40326	117.26198
3750.00000	118.46288	123.80811	118.46288
3800.00000	119.48646	116.29616	119.48646
3850.00000	120.32133	108.85734	120.32133
3900.00000	121.08730	101.95655	121.08730
3950.00000	121.86834	94.81518	121.86834
4000.00000	122.57590	87.44090	122.57590
4050.00000	123.27486	80.11513	123.27486
4100.00000	123.98697	72.55123	123.98697
4150.00000	124.87748	64.08538	124.87748
4200.00000	125.45245	54.06375	125.45245
4250.00000	125.96295	43.21115	125.96295
4300.00000	126.24300	31.74851	126.24300
4350.00000	126.24837	20.20736	126.24837
4400.00000	126.04457	 9.58187	126.04457
4450.00000	125.72221	-0.21552	125.72221
4500.00000	125.33403	-9.16678	125.33403
4550.00000	124.91874	-17.59920	124.91874
4600.00000	124.45820	-25.48107	124.45820
4650.00000	124.04957	-33.01800	124.04957
4700.00000	123.59474	-40.96982	123.59474
4750.00000	123.02412	-49.19769	123.02412
4800.00000	122.27335	-57.57966	122.27335
4850.00000	121.24708	-65.17881	121.24708
4900.00000	120.00532	-71.03439	120.00532
4950.00000	118.68999	-74.45742	118.68999
5000.00000	117.44823	-75.35822	117.44823
5050.00000	116.39871	-75.41555	116.39871
5100.00000	115.23645	-72.27746	115.23645
5150.00000	115.10361	-66.50960	115.10361
5200.00000	114.57559	-62.50368	114.57559
5250.00000	115.95465	-52.71268	115.95465
5300.00000	117.85316	-61.55730	117.85316
5350.00000	117.81925	-72.82798	117.81925
5400.00000	117.26064	-79.15064	117.26064
5450.00000	116.76880	-82.81544	116.76880
5500.00000	116.39097	-85.60561	116.39097
5550.00000	116.10149	-87.97373	116.10149
5600.00000	115.86797	-90.18737	115.86797
5650.00000	115.69084	-92.35587	115.69084
5700.00000	115.51614	-94.71019	115.51614
5750.00000	115.38512	-96.92033	115.38512
5800.00000	115.24527	-99.25030	115.24527
5850.00000	115.11856	-101.55420	115.11856
5900.00000	115.00939	-103.67926	115.00939
5950.00000	114.92602	-105.80158	114.92602
6000.00000	114.87625	-107.81523	114.87625
6050.00000	114.83858	-110.06286	114.83858
6100.00000	114.83882	-112.41960	114.83882
6150.00000	114.83224	-115.04553	114.83224
6200.00000	114.79979	-117.74652	114.79979
6250.00000	114.77658	-120.56527	114.77658
6300.00000	114.73963	-123.40841	114.73963
6350.00000	114.67529	-126.32759	114.67529
6400.00000	114.61008	-129.08194	114.61008
6450.00000	114.57028	-131.92167	114.57028
6500.00000	114.49454	-134.71183	114.49454
6550.00000	114.42159	-137.42493	114.42159
6600.00000	114.37006	-140.11114	114.37006
6650.00000	114.32682	-142.80609	114.32682
6700.00000	114.29303	-145.62571	114.29303
6750.00000	114.26566	-148.39592	114.26566
6800.00000	114.25209	-151.11696	114.25209
6850.00000	114.23279	-153.93931	114.23279
6900.00000	114.22453	-156.77628	114.22453
6950.00000	114.21651	-159.52283	114.21651
7000.00000	114.23459	-162.52203	114.23459
7050.00000	114.22659	-165.67201	114.22659
7100.00000	114.24413	-168.92122	114.24413
7150.00000	114.25467	-172.14711	114.25467
7200.00000	114.24705	-175.53692	114.24705
7250.00000	114.22003	-179.10596	114.22003
7300.00000	114.22903	-182.75824	114.22903
7350.00000	114.18740	-186.43996	114.18740
7400.00000	114.16212	-190.33569	114.16212
7450.00000	114.11147	-194.37434	114.11147
7500.00000	114.05335	-198.43263	114.05335
7550.00000	113.96460	-202.50837	113.96460
7600.00000	113.83341	-206.65211	113.83341
7650.00000	113.68954	-210.82394	113.68954
7700.00000	113.55758	-214.95774	113.55758
7750.00000	113.34098	-219.13302	113.34098
7800.00000	113.14211	-223.26950	113.14211
7850.00000	112.90798	-227.29157	112.90798
7900.00000	112.65742	-231.21489	112.65742
7950.00000	112.36334	-235.12967	112.36334
8000.00000	112.07819	-238.91908	112.07819
8050.00000	111.77869	-242.82284	111.77869
8100.00000	111.46256	-245.85312	111.46256
8150.00000	111.06362	-249.15219	111.06362
8200.00000	110.69855	-251.88717	110.69855
8250.00000	110.29769	-255.06957	110.29769
8300.00000	109.93005	-257.90310	109.93005
8350.00000	109.52810	-260.53728	109.52810
8400.00000	109.11176	-263.63589	109.11176
8450.00000	108.63999	-266.28081	108.63999
8500.00000	108.23052	-269.05084	108.23052
8550.00000	107.88237	-271.44641	107.88237
8600.00000	107.54214	-274.15474	107.54214
8650.00000	107.20431	-276.35486	107.20431
8700.00000	106.95010	-278.93422	106.95010
8750.00000	106.61152	-279.82090	106.61152
8800.00000	106.32619	-281.71399	106.32619
8850.00000	106.00520	-283.06806	106.00520
8900.00000	105.71695	-283.91710	105.71695
8950.00000	105.39430	-285.23274	105.39430
9000.00000	104.97653	-286.44950	104.97653
9050.00000	104.60995	-288.25530	104.60995
9100.00000	104.21169	-290.00853	104.21169
9150.00000	103.88055	-291.99710	103.88055
9200.00000	103.63029	-294.20541	103.63029
9250.00000	103.36664	-296.43672	103.36664
9300.00000	103.22531	-298.64887	103.22531
9350.00000	103.14869	-300.50316	103.14869
9400.00000	102.98576	-301.41112	102.98576
9450.00000	102.96054	-302.00757	102.96054
9500.00000	102.89267	-301.45703	102.89267
9550.00000	102.88126	-301.33473	102.88126
9600.00000	102.84215	-302.18188	102.84215
9650.00000	102.60158	-303.25426	102.60158
9700.00000	102.39667	-303.92526	102.39667
9750.00000	102.27382	-306.22120	102.27382
9800.00000	101.94733	-307.44270	101.94733
9850.00000	101.82403	-309.51509	101.82403
9900.00000	101.62174	-311.87895	101.62174
9950.00000	101.60214	-313.43292	101.60214
10000.00000	101.58267	-315.22935	101.58267
10050.00000	101.54627	-316.46636	101.54627
10100.00000	101.47848	-317.52148	101.47848
10150.00000	101.28789	-319.07638	101.28789
10200.00000	101.14605	-320.13215	101.14605
10250.00000	100.90315	-321.83611	100.90315
10300.00000	100.80024	-323.77868	100.80024
10350.00000	100.56556	-325.92166	100.56556
10400.00000	100.36369	-328.57120	100.36369
10450.00000	100.35852	-331.33546	100.35852
10500.00000	100.38179	-333.73688	100.38179
10550.00000	100.37345	-336.04032	100.37345
10600.00000	100.35739	-337.83431	100.35739
10650.00000	100.29670	-339.04167	100.29670
10700.00000	100.21311	-341.34806	100.21311
10750.00000	100.12468	-343.17901	100.12468
10800.00000	99.92837	-344.87524	99.92837
10850.00000	99.74389	-347.89551	99.74389
10900.00000	99.59015	-350.02717	99.59015
10950.00000	99.43275	-352.22946	99.43275
11000.00000	99.32192	-354.64079	99.32192
11050.00000	99.03869	-356.65591	99.03869
11100.00000	98.88511	-359.20279	98.88511
11150.00000	98.59857	-360.81872	98.59857
11200.00000	98.42472	-362.46128	98.42472
11250.00000	98.12806	-364.68137	98.12806
11300.00000	97.77648	-366.63363	97.77648
11350.00000	97.50720	-368.11415	97.50720
11400.00000	97.16948	-369.97778	97.16948
11450.00000	96.97242	-372.19816	96.97242
11500.00000	96.88730	-373.10878	96.88730
11550.00000	96.57070	-374.29226	96.57070
11600.00000	96.45691	-376.30531	96.45691
11650.00000	96.21756	-376.46111	96.21756
11700.00000	96.08299	-377.34120	96.08299
11750.00000	95.93984	-378.57420	95.93984
11800.00000	95.79545	-380.24616	95.79545
11850.00000	95.74541	-380.55912	95.74541
11900.00000	95.47849	-382.12470	95.47849
11950.00000	95.39099	-382.80941	95.39099
12000.00000	95.20571	-383.76922	95.20571
12050.00000	94.99179	-384.90440	94.99179
12100.00000	94.89819	-387.28735	94.89819
12150.00000	94.74195	-389.14649	94.74195
12200.00000	94.71331	-391.26226	94.71331
12250.00000	94.66860	-392.47344	94.66860
12300.00000	95.70609	-394.26438	95.70609
12350.00000	94.45990	-395.53601	94.45990
12400.00000	94.25771	-396.31685	94.25771
12450.00000	94.03517	-397.73052	94.03517
12500.00000	93.78922	-399.83647	93.78922
12550.00000	93.58303	-402.08284	93.58303
12600.00000	93.35928	-404.86649	93.35928
12650.00000	93.35620	-406.73296	93.35620
12700.00000	93.05900	-408.36239	93.05900
12750.00000	92.78629	-410.25003	92.78629
12800.00000	92.48858	-411.29805	92.48858
12850.00000	91.89274	-412.42628	91.89274
12900.00000	91.62833	-414.01958	91.62833
12950.00000	91.34853	-416.05262	91.34853
13000.00000	91.02027	-417.70679	91.02027
13050.00000	90.82988	-417.43742	90.82988
13100.00000	90.43483	-418.24339	90.43483
13150.00000	90.08127	-420.02389	90.08127
13200.00000	89.73541	-419.24782	89.73541
13250.00000	89.46530	-419.34054	89.46530
13300.00000	89.00410	-417.55185	89.00410
13350.00000	88.70386	-418.57683	88.70386
13400.00000	88.59044	-418.68300	88.59044
13450.00000	88.13292	-416.32785	88.13292
13500.00000	88.05020	-415.20437	88.05020
13550.00000	87.73916	-415.41227	87.73916
13600.00000	87.58509	-412.98188	87.58509
13650.00000	87.31587	-411.87387	87.31587
13700.00000	86.91562	-411.91870	86.91562
13750.00000	86.71502	-411.58193	86.71502
13800.00000	86.60549	-411.88137	86.60549
13850.00000	86.52314	-413.05258	86.52314
13900.00000	86.38669	-410.74982	86.38669
13950.00000	86.53277	-408.87006	86.53277
14000.00000	86.63414	-405.90669	86.63414
14050.00000	86.30185	-405.37739	86.30185
14100.00000	86.10477	-404.57341	86.10477
14150.00000	86.21807	-403.03653	86.21807
14200.00000	86.46843	-402.52706	86.46843
14250.00000	86.98728	-399.76224	86.98728
14300.00000	87.08464	-397.87947	87.08464
14350.00000	87.08765	-394.36648	87.08765
14400.00000	86.73736	-393.83651	86.73736
14450.00000	87.00226	-391.93935	87.00226
14500.00000	86.99111	-391.64601	86.99111
14550.00000	87.17061	-390.66667	87.17061
14600.00000	87.48469	-391.63571	87.48469
14650.00000	88.10045	-389.18183	88.10045
14700.00000	88.32893	-391.31670	88.32893
14750.00000	88.46897	-389.69398	88.46897
14800.00000	88.74319	-388.39168	88.74319
14850.00000	89.05974	-387.17728	89.05974
14900.00000	89.40292	-387.98370	89.40292
14950.00000	89.75210	-389.20238	89.75210
15000.00000	90.36262	-388.59708	90.36262
15050.00000	90.59833	-386.91636	90.59833
15100.00000	90.86995	-385.68455	90.86995
15150.00000	91.33650	-385.94508	91.33650
15200.00000	91.38057	-385.36564	91.38057
15250.00000	91.56056	-388.26579	91.56056
15300.00000	92.32654	-389.67218	92.32654
15350.00000	92.78877	-389.91873	92.78877
15400.00000	93.12668	-388.82425	93.12668
15450.00000	93.38726	-389.32826	93.38726
15500.00000	93.81696	-389.52124	93.81696
15550.00000	94.17382	-391.54365	94.17382
15600.00000	94.57304	-394.22328	94.57304
15650.00000	95.23150	-393.50343	95.23150
15700.00000	95.45626	-395.49624	95.45626
15750.00000	96.09531	-396.76287	96.09531
15800.00000	96.56019	-396.86094	96.56019
15850.00000	96.82613	-398.28780	96.82613
15900.00000	97.12714	-400.87511	97.12714
15950.00000	97.67786	-403.19757	97.67786
16000.00000	98.12825	-405.37580	98.12825
16050.00000	98.59835	-407.60789	98.59835
16100.00000	98.92983	-410.14448	98.92983
16150.00000	99.19931	-411.97943	99.19931
16200.00000	99.55278	-415.84437	99.55278
16250.00000	99.93472	-418.15588	99.93472
16300.00000	100.44064	-421.17585	100.44064
16350.00000	100.78222	-424.23772	100.78222
16400.00000	101.09447	-426.79643	101.09447
16450.00000	101.30473	-429.29755	101.30473
16500.00000	101.55145	-432.88419	101.55145
16550.00000	101.85973	-436.64679	101.85973
16600.00000	102.06751	-439.49611	102.06751
16650.00000	102.27290	-442.84168	102.27290
16700.00000	102.53709	-445.19069	102.53709
16750.00000	102.61753	-448.73268	102.61753
16800.00000	102.81523	-452.13205	102.81523
16850.00000	103.04359	-455.08469	103.04359
16900.00000	103.22096	-458.30120	103.22096
16950.00000	103.42301	-461.28612	103.42301
17000.00000	103.43689	-464.17189	103.43689
17050.00000	103.62488	-466.28138	103.62488
17100.00000	103.64297	-468.40127	103.64297
17150.00000	103.93314	-471.97774	103.93314
17200.00000	104.06161	-474.81001	104.06161
17250.00000	104.18009	-478.30261	104.18009
17300.00000	104.39110	-480.80081	104.39110
17350.00000	104.37180	-483.36620	104.37180
17400.00000	104.62230	-486.34711	104.62230
17450.00000	104.67578	-489.45394	104.67578
17500.00000	104.83139	-492.48953	104.83139
17550.00000	104.99906	-495.30567	104.99906
17600.00000	105.20010	-497.76348	105.20010
17650.00000	105.29410	-501.77604	105.29410
17700.00000	105.38417	-504.84630	105.38417
17750.00000	105.61462	-507.34436	105.61462
17800.00000	105.62535	-511.16209	105.62535
17850.00000	105.75091	-513.71143	105.75091
17900.00000	105.81038	-517.12234	105.81038
17950.00000	105.97321	-520.53065	105.97321
18000.00000	106.02167	-524.20651	106.02167
18050.00000	106.20060	-527.11786	106.20060
18100.00000	106.21894	-530.95023	106.21894
18150.00000	106.23928	-533.72879	106.23928
18200.00000	106.21708	-537.66247	106.21708
18250.00000	106.32370	-539.89176	106.32370
18300.00000	106.38458	-543.23212	106.38458
18350.00000	106.42116	-546.40111	106.42116
18400.00000	106.37195	-549.87964	106.37195
18450.00000	106.35457	-554.25675	106.35457
18500.00000	106.34703	-557.17753	106.34703
18550.00000	106.31320	-559.93641	106.31320
18600.00000	106.41144	-563.61120	106.41144
18650.00000	106.25335	-566.32455	106.25335
18700.00000	106.20604	-570.13736	106.20604
18750.00000	106.23152	-572.91561	106.23152
18800.00000	106.25214	-575.27910	106.25214
18850.00000	106.10048	-578.73174	106.10048
18900.00000	106.04123	-581.29029	106.04123
18950.00000	105.98980	-584.79457	105.98980
19000.00000	105.79779	-587.20876	105.79779
19050.00000	105.88383	-589.91815	105.88383
19100.00000	105.78570	-592.67836	105.78570
19150.00000	105.87348	-595.09748	105.87348
19200.00000	105.76496	-597.61384	105.76496
19250.00000	105.70386	-601.22418	105.70386
19300.00000	105.59271	-603.09192	105.59271
19350.00000	105.56939	-606.03471	105.56939
19400.00000	105.50500	-608.21793	105.50500
19450.00000	105.54421	-610.39474	105.54421
19500.00000	105.42914	-613.84220	105.42914
19550.00000	105.40303	-616.20690	105.40303
19600.00000	105.43914	-619.47438	105.43914
19650.00000	105.35040	-621.56778	105.35040
19700.00000	105.19952	-624.27151	105.19952
19750.00000	105.15028	-626.42692	105.15028
19800.00000	105.17936	-629.89210	105.17936
19850.00000	105.15126	-632.32765	105.15126
19900.00000	105.05943	-635.51950	105.05943
19950.00000	104.97394	-637.95550	104.97394
20000.00000	104.92321	-640.75885	104.92321
20050.00000	104.84915	-643.29955	104.84915
20100.00000	104.68694	-646.13662	104.68694
20150.00000	104.66281	-647.73171	104.66281
20200.00000	104.53497	-651.25380	104.53497
20250.00000	104.39858	-653.62696	104.39858
20300.00000	104.20056	-656.07066	104.20056
20350.00000	104.16885	-658.79137	104.16885
20400.00000	103.95616	-660.30076	103.95616
20450.00000	103.75459	-662.65499	103.75459
20500.00000	103.67916	-665.00727	103.67916
20550.00000	103.29911	-666.36963	103.29911
20600.00000	103.26047	-668.04979	103.26047
20650.00000	103.09241	-669.75573	103.09241
20700.00000	102.90969	-671.21879	102.90969
20750.00000	102.82750	-672.35944	102.82750
20800.00000	102.65612	-673.32005	102.65612
20850.00000	102.61785	-674.33646	102.61785
20900.00000	102.47336	-675.28293	102.47336
20950.00000	102.42247	-675.47066	102.42247
21000.00000	102.38364	-676.02477	102.38364
21050.00000	102.55247	-676.26726	102.55247
21100.00000	102.60131	-676.57111	102.60131
21150.00000	102.78477	-677.58364	102.78477
21200.00000	102.98694	-678.00629	102.98694
21250.00000	103.16195	-680.38565	103.16195
21300.00000	103.43008	-681.16316	103.43008
21350.00000	103.61389	-682.81073	103.61389
21400.00000	103.82091	-685.09521	103.82091
21450.00000	104.03845	-687.39825	104.03845
21500.00000	104.24187	-690.29516	104.24187
21550.00000	104.30911	-692.58887	104.30911
21600.00000	104.52133	-695.66051	104.52133
21650.00000	104.58150	-698.61096	104.58150
21700.00000	104.64356	-701.37565	104.64356
21750.00000	104.71146	-704.27123	104.71146
21800.00000	104.72566	-707.29658	104.72566
21850.00000	104.70504	-709.89528	104.70504
21900.00000	104.69562	-712.66634	104.69562
21950.00000	104.67880	-715.16753	104.67880
22000.00000	104.68375	-717.63458	104.68375
22050.00000	104.65803	-719.88876	104.65803
22100.00000	104.58059	-722.32990	104.58059
22150.00000	104.53489	-724.60660	104.53489
22200.00000	104.58173	-726.94229	104.58173
22250.00000	104.48716	-728.82513	104.48716
22300.00000	104.38204	-730.94594	104.38204
22350.00000	104.44091	-733.35909	104.44091
22400.00000	104.47877	-735.53048	104.47877
22450.00000	104.35248	-737.49308	104.35248
22500.00000	104.30541	-738.51211	104.30541
22550.00000	104.26484	-740.96937	104.26484
22600.00000	104.26467	-743.88331	104.26467
22650.00000	104.23451	-745.64740	104.23451
22700.00000	104.19441	-747.63272	104.19441
22750.00000	104.18667	-747.42484	104.18667
22800.00000	104.17201	-751.95945	104.17201
22850.00000	104.23036	-754.43013	104.23036
22900.00000	104.19523	-755.05208	104.19523
22950.00000	104.23947	-757.08598	104.23947
23000.00000	104.19517	-758.40254	104.19517
23050.00000	104.18212	-761.34861	104.18212
23100.00000	104.24162	-762.37097	104.24162
23150.00000	104.08714	-763.79832	104.08714
23200.00000	104.22697	-766.51122	104.22697
23250.00000	104.10657	-769.53934	104.10657
23300.00000	104.32612	-771.74643	104.32612
23350.00000	104.04059	-773.88645	104.04059
23400.00000	104.03747	-775.41959	104.03747
23450.00000	104.11262	-777.85847	104.11262
23500.00000	103.99261	-779.18663	103.99261
23550.00000	103.97905	-779.94048	103.97905
23600.00000	103.91650	-783.50146	103.91650
23650.00000	103.94847	-785.34584	103.94847
23700.00000	104.16443	-789.10619	104.16443
23750.00000	104.00174	-790.46720	104.00174
23800.00000	103.80988	-790.63042	103.80988
23850.00000	103.90971	-792.89882	103.90971
23900.00000	104.32250	-794.77357	104.32250
23950.00000	103.88495	-798.04307	103.88495
24000.00000	103.80376	-801.14826	103.80376
24050.00000	103.85904	-801.72171	103.85904
24100.00000	104.17424	-804.88775	104.17424
24150.00000	104.11256	-807.20422	104.11256
24200.00000	104.09600	-810.93831	104.09600
24250.00000	103.67662	-811.12971	103.67662
24300.00000	104.17271	-814.16894	104.17271
24350.00000	103.84725	-816.66865	103.84725
24400.00000	103.78980	-819.47136	103.78980
24450.00000	103.43639	-821.71586	103.43639
24500.00000	103.95684	-823.01095	103.95684
24550.00000	103.67979	-827.46252	103.67979
24600.00000	104.09398	-468.78799	104.09398
24650.00000	103.70265	-113.34469	103.70265
24700.00000	103.49784	-112.11514	103.49784
24750.00000	103.44949	242.07370	103.44949
24800.00000	103.46928	600.17227	103.46928
24850.00000	103.03973	958.75797	103.03973
24900.00000	103.09917	1318.79209	103.09917
24950.00000	103.24289	1674.16819	103.24289
25000.00000	103.15413	1666.54856	103.15413
25050.00000	103.00216	1666.75094	103.00216
25100.00000	102.60688	1664.60139	102.60688
25150.00000	102.79627	1664.23870	102.79627
25200.00000	102.47257	1661.04453	102.47257
25250.00000	102.48332	1660.16839	102.48332
25300.00000	102.56212	1657.94521	102.56212
25350.00000	102.33913	1651.67572	102.33913
25400.00000	102.28025	1649.37514	102.28025
25450.00000	102.24457	1648.11569	102.24457
25500.00000	102.07272	1646.96315	102.07272
25550.00000	101.90480	1643.08841	101.90480
25600.00000	101.97758	1642.88055	101.97758
25650.00000	101.89651	1640.83416	101.89651
25700.00000	101.81127	1638.12942	101.81127
25750.00000	101.55044	1635.64063	101.55044
25800.00000	101.43322	1633.24334	101.43322
25850.00000	101.42984	1630.74233	101.42984
25900.00000	101.35515	1627.07464	101.35515
25950.00000	101.12554	1628.76959	101.12554
26000.00000	101.05334	1625.10730	101.05334
26050.00000	101.13145	1623.04594	101.13145
26100.00000	100.83305	1621.03002	100.83305
26150.00000	100.82233	1618.40456	100.82233
26200.00000	100.92991	1616.59994	100.92991
26250.00000	100.84722	1614.21734	100.84722
26300.00000	100.85808	1610.67296	100.85808
26350.00000	100.44863	1610.88975	100.44863
26400.00000	100.33251	1607.91257	100.33251
26450.00000	100.59176	1604.88520	100.59176
26500.00000	100.43146	1602.31535	100.43146
26550.00000	100.25363	1598.05735	100.25363
26600.00000	100.06966	1595.29312	100.06966
26650.00000	100.11829	1596.90801	100.11829
26700.00000	100.10903	1593.03741	100.10903
26750.00000	99.80694	1590.88892	99.80694
26800.00000	99.76530	1585.25621	99.76530
26850.00000	99.80578	1585.63788	99.80578
26900.00000	99.88625	1584.93350	99.88625
26950.00000	99.70879	1580.45291	99.70879
27000.00000	99.39966	1579.78499	99.39966
27050.00000	99.69621	1576.06387	99.69621
27100.00000	99.12534	1575.79176	99.12534
27150.00000	99.10833	1572.23685	99.10833
27200.00000	99.04321	1571.21844	99.04321
27250.00000	98.67818	1569.97669	98.67818
27300.00000	98.25610	1566.54942	98.25610
27350.00000	98.55733	1567.06438	98.55733
27400.00000	98.08478	1563.89732	98.08478
27450.00000	97.96724	1563.77565	97.96724
27500.00000	97.76874	1560.94254	97.76874
27550.00000	97.78872	1560.07753	97.78872
27600.00000	97.92377	1557.31373	97.92377
27650.00000	97.53511	1558.71216	97.53511
27700.00000	97.44059	1553.80465	97.44059
27750.00000	97.30304	1552.83091	97.30304
27800.00000	97.57769	1549.90169	97.57769
27850.00000	97.62381	1552.01813	97.62381
27900.00000	97.09689	1551.24846	97.09689
27950.00000	96.14728	1548.91282	96.14728
28000.00000	96.72149	1549.10635	96.72149
28050.00000	97.27574	1545.82418	97.27574
28100.00000	96.53181	1546.56521	96.53181
28150.00000	96.62553	1545.07618	96.62553
28200.00000	96.75307	1541.02287	96.75307
28250.00000	96.54599	1539.99932	96.54599
28300.00000	96.11403	1540.82918	96.11403
28350.00000	96.53133	1541.63513	96.53133
28400.00000	96.49358	1540.70155	96.49358
28450.00000	96.94468	1539.20914	96.94468
28500.00000	96.60013	1539.07369	96.60013
28550.00000	96.48027	1540.27511	96.48027
28600.00000	96.59582	1538.80066	96.59582
28650.00000	96.94133	1534.65471	96.94133
28700.00000	96.89728	1537.98728	96.89728
28750.00000	97.69480	1536.59103	97.69480
28800.00000	97.36545	1535.60406	97.36545
28850.00000	97.06162	1530.68481	97.06162
28900.00000	97.24780	1531.14006	97.24780
28950.00000	97.19964	1532.30042	97.19964
29000.00000	97.62723	1528.93448	97.62723
29050.00000	97.36326	1530.62586	97.36326
29100.00000	97.61186	1529.76486	97.61186
29150.00000	97.52963	1529.36528	97.52963
29200.00000	97.69731	1526.53273	97.69731
29250.00000	98.06357	1525.71132	98.06357
29300.00000	97.81329	1525.14101	97.81329
29350.00000	98.46284	1521.94145	98.46284
29400.00000	98.28064	1521.69952	98.28064
29450.00000	98.25133	1520.65121	98.25133
29500.00000	98.84825	1519.07338	98.84825
29550.00000	98.72925	1515.32625	98.72925
29600.00000	98.71871	1514.63870	98.71871
29650.00000	98.94360	1511.88503	98.94360
29700.00000	99.02753	1513.73323	99.02753
29750.00000	98.87715	1512.91253	98.87715
29800.00000	98.99759	1510.25534	98.99759
29850.00000	99.08491	1507.57382	99.08491
29900.00000	99.49336	1507.65829	99.49336
29950.00000	98.83208	1507.70399	98.83208
30000.00000	99.18134	1506.88699	99.18134
30050.00000	99.43193	1504.49593	99.43193
30100.00000	99.27707	1505.24300	99.27707
30150.00000	99.40658	1501.40811	99.40658
30200.00000	99.41499	1500.71790	99.41499
30250.00000	99.24692	1500.13822	99.24692
30300.00000	99.04166	1501.11152	99.04166
30350.00000	99.33153	1502.55879	99.33153
30400.00000	99.32575	1500.13589	99.32575
30450.00000	99.04954	1500.51849	99.04954
30500.00000	99.19660	1499.68955	99.19660
30550.00000	99.21452	1501.79204	99.21452
30600.00000	99.34639	1502.48012	99.34639
30650.00000	99.51010	1503.20761	99.51010
30700.00000	99.59245	1502.75238	99.59245
30750.00000	99.63250	1504.79347	99.63250
30800.00000	99.85945	1505.26052	99.85945
30850.00000	100.20147	1507.57658	100.20147
30900.00000	100.26994	1509.40369	100.26994
30950.00000	100.73767	1509.24545	100.73767
31000.00000	101.14443	1509.53590	101.14443
31050.00000	101.63693	1510.90430	101.63693
31100.00000	102.21031	1511.80936	102.21031
31150.00000	102.45427	1511.63818	102.45427
31200.00000	103.33495	1510.93300	103.33495
31250.00000	103.81692	1511.01698	103.81692
31300.00000	104.42107	1509.61114	104.42107
31350.00000	105.12583	1508.67771	105.12583
31400.00000	105.54788	1506.97500	105.54788
31450.00000	106.27781	1504.71007	106.27781
31500.00000	106.72156	1501.10228	106.72156
31550.00000	107.33250	1499.42663	107.33250
31600.00000	108.06081	1495.15157	108.06081
31650.00000	108.44024	1492.06805	108.44024
31700.00000	108.98736	1489.68449	108.98736
31750.00000	109.51099	1486.40617	109.51099
31800.00000	109.83207	1481.92277	109.83207
31850.00000	110.40928	1477.29788	110.40928
31900.00000	110.55364	1473.28620	110.55364
31950.00000	110.98380	1469.46621	110.98380
32000.00000	111.36095	1464.82238	111.36095
32050.00000	111.61933	1460.89783	111.61933
32100.00000	111.85487	1455.67549	111.85487
32150.00000	112.15212	1451.72389	112.15212
32200.00000	112.41711	1446.84487	112.41711
32250.00000	112.54906	1441.85011	112.54906
32300.00000	112.73860	1437.63998	112.73860
32350.00000	112.79223	1433.56900	112.79223
32400.00000	113.02119	1429.24897	113.02119
32450.00000	113.09795	1424.41223	113.09795
32500.00000	113.26994	1420.33555	113.26994
32550.00000	113.40979	1415.33068	113.40979
32600.00000	113.46618	1410.94316	113.46618
32650.00000	113.59060	1406.43203	113.59060
32700.00000	113.48367	1401.76092	113.48367
32750.00000	113.58781	1396.73935	113.58781
32800.00000	113.73933	1392.70394	113.73933
32850.00000	113.81672	1388.02813	113.81672
32900.00000	113.74533	1382.38351	113.74533
32950.00000	113.61676	1377.13866	113.61676
33000.00000	113.55027	1374.67735	113.55027
33050.00000	113.51684	1368.57529	113.51684
33100.00000	113.49740	1364.12971	113.49740
33150.00000	113.36547	1359.89738	113.36547
33200.00000	113.45258	1356.95387	113.45258
33250.00000	113.15815	1352.09611	113.15815
33300.00000	112.94332	1347.03659	112.94332
33350.00000	112.82421	1342.58044	112.82421
33400.00000	112.60948	1339.15448	112.60948
33450.00000	112.45013	1334.36587	112.45013
33500.00000	112.50562	1332.00878	112.50562
33550.00000	111.90335	1326.19961	111.90335
33600.00000	111.98421	1323.18949	111.98421
33650.00000	111.72324	1319.52036	111.72324
33700.00000	111.42929	1316.07705	111.42929
33750.00000	111.13562	1312.82806	111.13562
33800.00000	111.05399	1309.77723	111.05399
33850.00000	110.51722	1305.94031	110.51722
33900.00000	110.47464	1302.66471	110.47464
33950.00000	110.21900	1300.93181	110.21900
34000.00000	110.10681	1297.01758	110.10681
34050.00000	109.67269	1293.89259	109.67269
34100.00000	109.34691	1293.22401	109.34691
34150.00000	109.28348	1288.86384	109.28348
34200.00000	108.92519	1288.19087	108.92519
34250.00000	108.75443	1285.70549	108.75443
34300.00000	108.54320	1282.60587	108.54320
34350.00000	108.40420	1280.33367	108.40420
34400.00000	107.74089	1279.91851	107.74089
34450.00000	107.82482	1276.26186	107.82482
34500.00000	107.39183	1274.46827	107.39183
34550.00000	107.28016	1273.89179	107.28016
34600.00000	106.94529	1273.08652	106.94529
34650.00000	107.05597	1273.44849	107.05597
34700.00000	106.41800	1273.27703	106.41800
34750.00000	106.72043	1269.58875	106.72043
34800.00000	106.84490	1270.26799	106.84490
34850.00000	106.58230	1269.84835	106.58230
34900.00000	106.56210	1266.82951	106.56210
34950.00000	106.52656	1268.34961	106.52656
35000.00000	106.55862	1265.68743	106.55862
35050.00000	106.62737	1266.10417	106.62737
35100.00000	106.58578	1264.70762	106.58578
35150.00000	106.52092	1264.69445	106.52092
35200.00000	106.46523	1262.39510	106.46523
35250.00000	106.62039	1261.15501	106.62039
35300.00000	106.72433	1259.99552	106.72433
35350.00000	106.94925	1259.49182	106.94925
35400.00000	106.97269	1257.74956	106.97269
35450.00000	107.24803	1258.14550	107.24803
35500.00000	107.11284	1255.25051	107.11284
35550.00000	107.33376	1254.47971	107.33376
35600.00000	107.31520	1252.07791	107.31520
35650.00000	107.63073	1252.37546	107.63073
35700.00000	107.70506	1249.54176	107.70506
35750.00000	107.65767	1249.18998	107.65767
35800.00000	107.86364	1248.15849	107.86364
35850.00000	108.25584	1245.26100	108.25584
35900.00000	108.44811	1242.70645	108.44811
35950.00000	108.47443	1241.89483	108.47443
36000.00000	108.76749	1240.78293	108.76749
36050.00000	108.78921	1236.84219	108.78921
36100.00000	108.86935	1236.88036	108.86935
36150.00000	109.10765	1235.09147	109.10765
36200.00000	109.16192	1234.35679	109.16192
36250.00000	109.10655	1232.75081	109.10655
36300.00000	109.17654	1230.37141	109.17654
36350.00000	109.76871	1228.11162	109.76871
36400.00000	109.85472	1226.28879	109.85472
36450.00000	109.71774	1222.72758	109.71774
36500.00000	109.83607	1221.54844	109.83607
36550.00000	109.86962	1220.51026	109.86962
36600.00000	110.15308	1219.03216	110.15308
36650.00000	110.36145	1217.29031	110.36145
36700.00000	110.50176	1216.04106	110.50176
36750.00000	110.85493	1213.11937	110.85493
36800.00000	110.95032	1211.90893	110.95032
36850.00000	110.84330	1208.81831	110.84330
36900.00000	111.05564	1207.92692	111.05564
36950.00000	111.21428	1204.52537	111.21428
37000.00000	110.93393	1202.48354	110.93393
37050.00000	111.00611	1202.67400	111.00611
37100.00000	111.37669	1201.03707	111.37669
37150.00000	111.63381	1198.12239	111.63381
37200.00000	112.03746	1198.29498	112.03746
37250.00000	111.76245	1194.93642	111.76245
37300.00000	111.97647	1193.38750	111.97647
37350.00000	112.45035	1191.24103	112.45035
37400.00000	112.30693	1189.72718	112.30693
37450.00000	112.30741	1188.23596	112.30741
37500.00000	112.80109	1186.30495	112.80109
37550.00000	112.93350	1185.04293	112.93350
37600.00000	113.02781	1182.61002	113.02781
37650.00000	113.09959	1181.52391	113.09959
37700.00000	113.55041	1178.81268	113.55041
37750.00000	113.85598	1178.69474	113.85598
37800.00000	114.04491	1174.96687	114.04491
37850.00000	114.33982	1171.41352	114.33982
37900.00000	114.60430	1169.86132	114.60430
37950.00000	114.86738	1167.76020	114.86738
38000.00000	115.14649	1165.19975	115.14649
38050.00000	115.40959	1161.81344	115.40959
38100.00000	115.68934	1158.41579	115.68934
38150.00000	115.82826	1155.17621	115.82826
38200.00000	116.18448	1151.93604	116.18448
38250.00000	116.43190	1149.14081	116.43190
38300.00000	116.75379	1145.16409	116.75379
38350.00000	116.92447	1142.56122	116.92447
38400.00000	117.25572	1139.19288	117.25572
38450.00000	117.67009	1134.43300	117.67009
38500.00000	117.93690	1129.25777	117.93690
38550.00000	118.21452	1125.37859	118.21452
38600.00000	118.36774	1120.63811	118.36774
38650.00000	118.52717	1115.78379	118.52717
38700.00000	118.69190	1110.99955	118.69190
38750.00000	118.83833	1106.62358	118.83833
38800.00000	119.04570	1102.13027	119.04570
38850.00000	119.19773	1096.97094	119.19773
38900.00000	119.38873	1092.27635	119.38873
38950.00000	119.46816	1086.44986	119.46816
39000.00000	119.53879	1080.81591	119.53879
39050.00000	119.59561	1075.99137	119.59561
39100.00000	119.51227	1070.74539	119.51227
39150.00000	119.48800	1065.64032	119.48800
39200.00000	119.55680	1060.39608	119.55680
39250.00000	119.49479	1054.82311	119.49479
39300.00000	119.42867	1049.68906	119.42867
39350.00000	119.33765	1044.98215	119.33765
39400.00000	119.28131	1039.21696	119.28131
39450.00000	119.09953	1034.38299	119.09953
39500.00000	118.93134	1028.87337	118.93134
39550.00000	118.68901	1023.92696	118.68901
39600.00000	118.40977	1019.10312	118.40977
39650.00000	118.23647	1015.08503	118.23647
39700.00000	117.98079	1010.25290	117.98079
39750.00000	117.73952	1005.30704	117.73952
39800.00000	117.45043	1001.39639	117.45043
39850.00000	117.13548	997.23422	117.13548
39900.00000	116.87063	993.15849	116.87063
39950.00000	116.54584	989.41276	116.54584
40000.00000	116.05620	986.93016	116.05620
40050.00000	115.84246	982.45795	115.84246
40100.00000	115.52248	979.37413	115.52248
40150.00000	115.21351	976.21305	115.21351
40200.00000	114.94002	973.09939	114.94002
40250.00000	114.56588	970.43636	114.56588
40300.00000	114.32631	967.70966	114.32631
40350.00000	113.90690	965.52743	113.90690
40400.00000	113.54388	963.24463	113.54388
40450.00000	113.27995	961.53421	113.27995
40500.00000	113.16089	959.85923	113.16089
40550.00000	112.82847	956.74975	112.82847
40600.00000	112.50715	955.50076	112.50715
40650.00000	112.22607	954.46329	112.22607
40700.00000	111.89916	953.50009	111.89916
40750.00000	111.85812	951.72711	111.85812
40800.00000	111.64642	950.28693	111.64642
40850.00000	111.34151	949.73471	111.34151
40900.00000	111.27062	948.11209	111.27062
40950.00000	110.96405	948.63042	110.96405
41000.00000	110.71324	947.93422	110.71324
41050.00000	110.74732	947.00902	110.74732
41100.00000	110.74030	946.32313	110.74030
41150.00000	110.75630	946.74875	110.75630
41200.00000	110.76026	946.12727	110.76026
41250.00000	110.58740	944.05572	110.58740
41300.00000	110.38751	945.60044	110.38751
41350.00000	110.69900	946.40491	110.69900
41400.00000	110.55245	941.27242	110.55245
41450.00000	110.82033	943.14755	110.82033
41500.00000	110.67662	942.39446	110.67662
41550.00000	110.69337	945.41920	110.69337
41600.00000	110.36836	943.38151	110.36836
41650.00000	110.97629	941.38885	110.97629
41700.00000	111.18981	941.22605	111.18981
41750.00000	111.17898	944.96493	111.17898
41800.00000	110.36365	938.80031	110.36365
41850.00000	110.41300	939.86698	110.41300
41900.00000	110.43061	940.33346	110.43061
41950.00000	111.74222	944.04276	111.74222
42000.00000	110.80868	938.48747	110.80868
42050.00000	110.05611	937.70594	110.05611
42100.00000	110.65129	936.73484	110.65129
42150.00000	110.17755	931.32120	110.17755
42200.00000	110.17090	938.37381	110.17090
42250.00000	110.48340	936.99381	110.48340
42300.00000	109.54208	934.01221	109.54208
42350.00000	110.11214	934.91107	110.11214
42400.00000	110.01779	934.31231	110.01779
42450.00000	110.73609	928.71083	110.73609
42500.00000	110.08788	928.23390	110.08788
42550.00000	110.14384	938.17616	110.14384
42600.00000	109.75321	928.85528	109.75321
42650.00000	109.44289	931.71476	109.44289
42700.00000	109.51270	928.16870	109.51270
42750.00000	110.42570	927.60801	110.42570
42800.00000	110.16027	920.74114	110.16027
42850.00000	109.56974	917.65247	109.56974
42900.00000	110.53189	922.88770	110.53189
42950.00000	109.65524	917.86800	109.65524
43000.00000	110.59065	907.67217	110.59065
43050.00000	109.66949	906.34909	109.66949
43100.00000	110.39660	909.16969	110.39660
43150.00000	109.51451	906.35387	109.51451
43200.00000	109.80421	898.84569	109.80421
43250.00000	110.09962	896.59499	110.09962
43300.00000	110.15120	894.26403	110.15120
43350.00000	110.32935	890.45141	110.32935
43400.00000	110.13986	888.38306	110.13986
43450.00000	110.96259	888.81729	110.96259
43500.00000	109.73771	879.41691	109.73771
43550.00000	110.29965	874.61253	110.29965
43600.00000	110.10800	870.98338	110.10800
43650.00000	110.50264	862.54053	110.50264
43700.00000	110.07374	861.98364	110.07374
43750.00000	109.56264	860.33140	109.56264
43800.00000	110.12494	852.89960	110.12494
43850.00000	110.60828	847.22335	110.60828
43900.00000	110.69351	845.13622	110.69351
43950.00000	110.61673	840.01316	110.61673
44000.00000	110.06297	834.83851	110.06297
44050.00000	110.31160	830.87926	110.31160
44100.00000	110.38709	817.66228	110.38709
44150.00000	110.15414	819.93395	110.15414
44200.00000	110.14466	818.26048	110.14466
44250.00000	110.12227	809.94547	110.12227
44300.00000	110.24661	802.98267	110.24661
44350.00000	109.36126	798.80311	109.36126
44400.00000	110.04248	795.67316	110.04248
44450.00000	110.30002	791.44202	110.30002
44500.00000	109.90210	786.95768	109.90210
44550.00000	111.06124	774.45852	111.06124
44600.00000	109.87750	778.34972	109.87750
44650.00000	109.39300	766.75672	109.39300
44700.00000	109.06197	763.49549	109.06197
44750.00000	109.00829	762.67019	109.00829
44800.00000	109.52568	756.55194	109.52568
44850.00000	108.96232	750.22189	108.96232
44900.00000	108.78216	747.88776	108.78216
44950.00000	108.71532	742.64689	108.71532
45000.00000	108.63448	731.22148	108.63448
45050.00000	107.29110	737.12871	107.29110
45100.00000	107.71064	727.20618	107.71064
45150.00000	107.73787	714.48162	107.73787
45200.00000	106.72543	718.86818	106.72543
45250.00000	106.75948	713.23717	106.75948
45300.00000	106.11780	708.52670	106.11780
45350.00000	105.59711	701.06220	105.59711
45400.00000	105.84380	700.36040	105.84380
45450.00000	105.68223	693.81677	105.68223
45500.00000	103.92291	688.38497	103.92291
45550.00000	103.94571	689.41553	103.94571
45600.00000	104.93167	681.65980	104.93167
45650.00000	103.18904	673.77276	103.18904
45700.00000	102.46427	671.56280	102.46427
45750.00000	103.55055	672.54549	103.55055
45800.00000	101.46916	666.15812	101.46916
45850.00000	101.30847	664.73595	101.30847
45900.00000	100.71171	666.16220	100.71171
45950.00000	99.86866	663.36846	99.86866
46000.00000	98.87776	649.05857	98.87776
46050.00000	99.17391	650.56570	99.17391
46100.00000	97.35310	651.92909	97.35310
46150.00000	96.68102	654.33241	96.68102
46200.00000	95.34296	641.95406	95.34296
46250.00000	96.73542	642.94438	96.73542
46300.00000	95.25791	641.60952	95.25791
46350.00000	96.22195	640.07268	96.22195
46400.00000	93.84672	637.16607	93.84672
46450.00000	91.81315	634.86090	91.81315
46500.00000	92.79429	642.46804	92.79429
46550.00000	92.21526	650.37306	92.21526
46600.00000	92.08286	649.87448	92.08286
46650.00000	88.75655	647.31732	88.75655
46700.00000	90.64472	656.98458	90.64472
46750.00000	90.34576	669.67593	90.34576
46800.00000	89.26384	663.11015	89.26384
46850.00000	91.01636	311.52962	91.01636
46900.00000	91.79129	306.64274	91.79129
46950.00000	91.72749	308.49839	91.72749
47000.00000	90.94508	317.38467	90.94508
47050.00000	92.51314	305.68509	92.51314
47100.00000	91.46594	297.82737	91.46594
47150.00000	92.44281	300.69767	92.44281
47200.00000	90.67759	302.29399	90.67759
47250.00000	92.74367	301.49708	92.74367
47300.00000	92.37911	292.30054	92.37911
47350.00000	92.32590	-59.60444	92.32590
47400.00000	90.90290	-57.42236	90.90290
47450.00000	93.03273	-60.32986	93.03273
47500.00000	90.60215	-75.72697	90.60215
47550.00000	90.46068	-421.00759	90.46068
47600.00000	90.59775	-434.34900	90.59775
47650.00000	92.89451	-430.85401	92.89451
47700.00000	91.31244	-435.44419	91.31244
47750.00000	89.02530	-426.49777	89.02530
47800.00000	90.54284	-444.31442	90.54284
47850.00000	91.25801	-794.97962	91.25801
47900.00000	91.31916	-1148.64517	91.31916
47950.00000	89.75285	-1149.44802	89.75285
48000.00000	89.79114	-1145.31530	89.79114
48050.00000	92.22298	-1152.08576	92.22298
48100.00000	90.40678	-1161.50616	90.40678
48150.00000	91.09086	-1515.45343	91.09086
48200.00000	90.77299	-1513.60937	90.77299
48250.00000	89.77228	-1519.24287	89.77228
48300.00000	91.22196	-1516.45528	91.22196
48350.00000	91.17497	-1523.43600	91.17497
48400.00000	90.55449	-1871.05960	90.55449
48450.00000	92.13475	-1879.04991	92.13475
48500.00000	91.12956	-1877.99268	91.12956
48550.00000	88.57620	-1885.37600	88.57620
48600.00000	91.05120	-2237.51726	91.05120
48650.00000	92.07178	-2239.60897	92.07178
48700.00000	93.24579	-2259.61200	93.24579
48750.00000	90.76984	-2604.29082	90.76984
48800.00000	91.61614	-2614.58898	91.61614
48850.00000	92.98057	-2620.33688	92.98057
48900.00000	91.03304	-2973.63046	91.03304
48950.00000	91.29278	-2989.43801	91.29278
49000.00000	91.24888	-2981.62719	91.24888
49050.00000	90.56157	-2992.59474	90.56157
49100.00000	89.79871	-3346.53544	89.79871
49150.00000	91.50296	-3707.87505	91.50296
49200.00000	90.89192	-3718.51572	90.89192
49250.00000	90.29622	-4063.38490	90.29622
49300.00000	90.51850	-3728.53333	90.51850
49350.00000	88.43270	-3711.86103	88.43270
49400.00000	89.91215	-3362.56885	89.91215
49450.00000	86.87831	-3001.98271	86.87831
49500.00000	86.20514	-2649.99831	86.20514
49550.00000	87.87843	-2309.16025	87.87843
49600.00000	86.27472	-2276.71903	86.27472
49650.00000	88.78835	-2288.23975	88.78835
49700.00000	87.04150	-1960.99361	87.04150
49750.00000	84.94557	-1943.36981	84.94557
49800.00000	84.53640	-1922.42898	84.53640
49850.00000	80.11899	-1948.20040	80.11899
49900.00000	82.34946	-1547.97148	82.34946
49950.00000	81.96781	-1251.28394	81.96781
