---ACOUSTIC CALIBRATION---
Filename: C:\Data\AZH DATA\AZH61\RightSecondary.calib
Date: 8/27/2019 3:32:33 PM
Format: 4
Probe Tube Correction File: C:\Data\Probe Tube Calibrations\50_ProbeTube.calib
Experiment VIs: 850
EPL_CFTS.exe V12.0.1 (2012)
DAQmx V9.6

Attenuation (dB): 40.000000
Min Freq (Hz): 50.000000
Max Freq (Hz): 49950.000000
Freq Step (Hz): 50.000000
Sample Rate (Hz): 100000.000000
[Smoothing]
Method=None
MA.Iterations=0
MA.Length=0
Loess.Length=0
Loess.Type=Linear
Loess.Robust=FALSE


Freq(Hz)	Mag(dB)	Phase(deg)	Unsmoothed(dB)

50.00000	91.45489	350.55008	91.45489
100.00000	74.27933	246.88199	74.27933
150.00000	63.98314	215.13127	63.98314
200.00000	73.43003	210.85473	73.43003
250.00000	65.60935	390.71558	65.60935
300.00000	78.96397	206.60102	78.96397
350.00000	61.17092	219.20794	61.17092
400.00000	69.12507	192.03373	69.12507
450.00000	63.62535	205.91971	63.62535
500.00000	74.73241	237.71872	74.73241
550.00000	68.92726	228.59444	68.92726
600.00000	77.37286	255.39080	77.37286
650.00000	71.45187	222.75854	71.45187
700.00000	76.96657	234.98145	76.96657
750.00000	71.86634	196.25602	71.86634
800.00000	74.11958	212.83336	74.11958
850.00000	67.72647	175.10234	67.72647
900.00000	71.02525	167.69015	71.02525
950.00000	58.84826	137.66178	58.84826
1000.00000	71.19333	226.58430	71.19333
1050.00000	59.42956	190.40283	59.42956
1100.00000	67.07045	266.00253	67.07045
1150.00000	65.04364	230.67420	65.04364
1200.00000	67.26883	327.87393	67.26883
1250.00000	67.08070	252.87672	67.08070
1300.00000	52.12188	284.40538	52.12188
1350.00000	67.63954	185.10959	67.63954
1400.00000	62.41086	205.11560	62.41086
1450.00000	69.04814	178.99214	69.04814
1500.00000	63.02546	347.25427	63.02546
1550.00000	72.73818	529.99502	72.73818
1600.00000	74.90609	479.19570	74.90609
1650.00000	70.67321	537.52102	70.67321
1700.00000	74.53150	461.66416	74.53150
1750.00000	68.54262	484.29477	68.54262
1800.00000	75.04022	500.05985	75.04022
1850.00000	68.44547	489.52645	68.44547
1900.00000	71.93710	475.60493	71.93710
1950.00000	69.90976	473.88686	69.90976
2000.00000	76.00540	504.32022	76.00540
2050.00000	66.57755	468.20381	66.57755
2100.00000	73.61777	474.07868	73.61777
2150.00000	70.51123	438.70446	70.51123
2200.00000	61.50128	546.71296	61.50128
2250.00000	72.75528	427.69595	72.75528
2300.00000	58.69471	455.50741	58.69471
2350.00000	72.57719	438.77252	72.57719
2400.00000	68.77176	403.01557	68.77176
2450.00000	69.62432	433.32911	69.62432
2500.00000	68.62182	399.32071	68.62182
2550.00000	71.14884	422.70266	71.14884
2600.00000	69.87106	419.08170	69.87106
2650.00000	66.76356	429.91203	66.76356
2700.00000	67.61354	399.88470	67.61354
2750.00000	61.36657	435.26284	61.36657
2800.00000	63.10156	449.75333	63.10156
2850.00000	58.79242	438.40948	58.79242
2900.00000	63.87913	422.09018	63.87913
2950.00000	61.46056	397.86195	61.46056
3000.00000	51.54016	306.07337	51.54016
3050.00000	57.96422	402.36755	57.96422
3100.00000	57.91722	402.77771	57.91722
3150.00000	53.89568	399.35995	53.89568
3200.00000	60.35934	358.64995	60.35934
3250.00000	58.23915	443.34511	58.23915
3300.00000	55.49098	413.92377	55.49098
3350.00000	58.82122	459.35218	58.82122
3400.00000	55.15648	482.45228	55.15648
3450.00000	58.39624	464.37869	58.39624
3500.00000	63.72283	471.54230	63.72283
3550.00000	63.44235	484.37244	63.44235
3600.00000	65.68064	457.53978	65.68064
3650.00000	70.04075	471.67501	70.04075
3700.00000	69.96875	463.75751	69.96875
3750.00000	71.02523	453.30672	71.02523
3800.00000	74.41241	455.92609	74.41241
3850.00000	73.93877	455.63344	73.93877
3900.00000	74.48237	447.22429	74.48237
3950.00000	72.56032	435.47097	72.56032
4000.00000	73.88432	431.01304	73.88432
4050.00000	76.04613	416.27438	76.04613
4100.00000	77.81930	419.13252	77.81930
4150.00000	78.32940	403.85400	78.32940
4200.00000	78.07626	386.16610	78.07626
4250.00000	79.68402	387.45370	79.68402
4300.00000	78.74656	369.63001	78.74656
4350.00000	80.08497	368.75626	80.08497
4400.00000	80.44997	361.57207	80.44997
4450.00000	78.58887	345.04225	78.58887
4500.00000	79.25780	332.79786	79.25780
4550.00000	78.06838	323.91424	78.06838
4600.00000	78.01990	311.80348	78.01990
4650.00000	77.69881	310.36509	77.69881
4700.00000	76.85539	300.56180	76.85539
4750.00000	76.40557	301.64065	76.40557
4800.00000	76.08773	290.28534	76.08773
4850.00000	74.44610	280.28821	74.44610
4900.00000	73.30499	277.38230	73.30499
4950.00000	72.02870	273.38139	72.02870
5000.00000	69.10951	274.87510	69.10951
5050.00000	69.71050	272.55726	69.71050
5100.00000	68.42677	274.91982	68.42677
5150.00000	67.14597	277.92021	67.14597
5200.00000	67.04657	285.06820	67.04657
5250.00000	68.91878	297.36051	68.91878
5300.00000	71.23428	288.63560	71.23428
5350.00000	71.27435	277.64629	71.27435
5400.00000	70.35763	270.31653	70.35763
5450.00000	70.72678	273.06455	70.72678
5500.00000	69.56672	262.72868	69.56672
5550.00000	69.32536	265.70738	69.32536
5600.00000	68.76013	262.23765	68.76013
5650.00000	68.82159	254.36402	68.82159
5700.00000	69.15505	259.79954	69.15505
5750.00000	68.99717	258.30636	68.99717
5800.00000	68.76320	252.83823	68.76320
5850.00000	67.68857	256.07786	67.68857
5900.00000	68.03213	252.58701	68.03213
5950.00000	68.09772	246.90420	68.09772
6000.00000	67.76872	252.91882	67.76872
6050.00000	67.74869	247.01466	67.74869
6100.00000	68.23456	240.78447	68.23456
6150.00000	67.93453	241.18439	67.93453
6200.00000	67.98134	240.58310	67.98134
6250.00000	67.73725	238.56240	67.73725
6300.00000	67.27001	228.60185	67.27001
6350.00000	67.76517	231.85517	67.76517
6400.00000	67.58003	228.07539	67.58003
6450.00000	68.23619	223.40868	68.23619
6500.00000	67.04267	222.97332	67.04267
6550.00000	68.05727	220.07293	68.05727
6600.00000	67.32262	218.12647	67.32262
6650.00000	66.83042	218.18472	66.83042
6700.00000	66.43837	213.32992	66.43837
6750.00000	67.40707	208.30483	67.40707
6800.00000	66.66448	205.39135	66.66448
6850.00000	67.56185	209.27427	67.56185
6900.00000	67.69737	204.26786	67.69737
6950.00000	67.24187	201.25155	67.24187
7000.00000	66.67841	198.08456	66.67841
7050.00000	67.08454	193.42121	67.08454
7100.00000	67.08215	191.67469	67.08215
7150.00000	68.24246	188.42367	68.24246
7200.00000	67.79077	191.03378	67.79077
7250.00000	66.74625	183.05655	66.74625
7300.00000	67.27645	176.33840	67.27645
7350.00000	67.11327	176.57082	67.11327
7400.00000	67.75418	176.67988	67.75418
7450.00000	67.24272	165.08598	67.24272
7500.00000	67.58496	162.97065	67.58496
7550.00000	67.60050	160.17255	67.60050
7600.00000	67.15911	160.00748	67.15911
7650.00000	66.28659	149.18184	66.28659
7700.00000	66.45345	145.01078	66.45345
7750.00000	67.17752	143.27643	67.17752
7800.00000	65.79557	142.58581	65.79557
7850.00000	66.62401	143.20230	66.62401
7900.00000	66.25869	132.54661	66.25869
7950.00000	64.33737	126.00406	64.33737
8000.00000	64.44910	131.84594	64.44910
8050.00000	64.71659	115.66769	64.71659
8100.00000	65.27389	125.89951	65.27389
8150.00000	65.38187	117.62323	65.38187
8200.00000	63.49562	116.55076	63.49562
8250.00000	63.21459	105.39312	63.21459
8300.00000	64.44489	99.77557	64.44489
8350.00000	63.57305	106.63819	63.57305
8400.00000	62.98534	105.49602	62.98534
8450.00000	62.60698	110.84768	62.60698
8500.00000	63.23256	101.70031	63.23256
8550.00000	61.13045	92.74488	61.13045
8600.00000	61.18802	101.94241	61.18802
8650.00000	61.60895	94.71276	61.60895
8700.00000	60.88115	88.49788	60.88115
8750.00000	59.96265	90.87309	59.96265
8800.00000	58.61656	83.02408	58.61656
8850.00000	58.95705	85.13208	58.95705
8900.00000	57.37027	81.02819	57.37027
8950.00000	59.42097	82.07272	59.42097
9000.00000	58.33831	97.02018	58.33831
9050.00000	58.39145	81.26709	58.39145
9100.00000	58.99535	77.43547	58.99535
9150.00000	58.62212	69.35591	58.62212
9200.00000	59.45153	75.29438	59.45153
9250.00000	56.86649	73.78681	56.86649
9300.00000	57.82369	72.72270	57.82369
9350.00000	54.91911	68.09935	54.91911
9400.00000	55.32156	72.04636	55.32156
9450.00000	57.85897	67.79360	57.85897
9500.00000	56.79517	75.91944	56.79517
9550.00000	55.25096	66.24488	55.25096
9600.00000	55.67359	67.93980	55.67359
9650.00000	54.93411	62.88845	54.93411
9700.00000	57.29649	62.10338	57.29649
9750.00000	57.51252	68.96493	57.51252
9800.00000	55.81636	61.76049	55.81636
9850.00000	56.35898	61.50096	56.35898
9900.00000	55.80283	55.44704	55.80283
9950.00000	56.71454	62.45560	56.71454
10000.00000	54.58172	68.68828	54.58172
10050.00000	54.23991	58.25763	54.23991
10100.00000	54.81966	53.02568	54.81966
10150.00000	55.92383	46.57412	55.92383
10200.00000	56.13756	56.66825	56.13756
10250.00000	54.48681	50.06012	54.48681
10300.00000	53.57626	45.55710	53.57626
10350.00000	55.13464	44.00321	55.13464
10400.00000	53.68175	49.90924	53.68175
10450.00000	54.80459	46.04741	54.80459
10500.00000	52.63865	54.10826	52.63865
10550.00000	53.09154	42.52586	53.09154
10600.00000	53.87865	41.13273	53.87865
10650.00000	53.51849	44.41643	53.51849
10700.00000	52.69522	33.01050	52.69522
10750.00000	53.19669	38.57711	53.19669
10800.00000	52.66138	25.66848	52.66138
10850.00000	53.44963	30.43463	53.44963
10900.00000	53.47572	27.25570	53.47572
10950.00000	53.24200	34.67459	53.24200
11000.00000	53.29659	18.05979	53.29659
11050.00000	52.89571	24.84806	52.89571
11100.00000	53.34820	16.72447	53.34820
11150.00000	51.25683	20.77581	51.25683
11200.00000	51.30857	19.19525	51.30857
11250.00000	51.83300	 6.62646	51.83300
11300.00000	52.77042	 8.60440	52.77042
11350.00000	51.84989	15.98177	51.84989
11400.00000	50.74550	 8.85483	50.74550
11450.00000	51.25249	 4.95488	51.25249
11500.00000	52.25428	 4.40311	52.25428
11550.00000	50.02336	 6.22558	50.02336
11600.00000	49.93638	-5.66973	49.93638
11650.00000	49.72327	-3.21279	49.72327
11700.00000	51.64891	 3.97456	51.64891
11750.00000	49.76169	-0.03893	49.76169
11800.00000	49.43817	 6.43553	49.43817
11850.00000	50.22056	 0.92102	50.22056
11900.00000	49.76862	 0.95577	49.76862
11950.00000	49.01112	-6.90145	49.01112
12000.00000	47.14426	-8.01568	47.14426
12050.00000	48.87488	-19.18261	48.87488
12100.00000	49.28700	 2.94716	49.28700
12150.00000	50.36787	-11.93964	50.36787
12200.00000	47.36495	-28.13877	47.36495
12250.00000	48.09777	-10.15028	48.09777
12300.00000	52.17124	-1.91034	52.17124
12350.00000	46.86120	 1.36462	46.86120
12400.00000	50.20640	 3.83918	50.20640
12450.00000	47.68728	-28.16822	47.68728
12500.00000	51.05058	15.39886	51.05058
12550.00000	43.87120	-3.46544	43.87120
12600.00000	50.49214	-5.26130	50.49214
12650.00000	48.47739	-28.49981	48.47739
12700.00000	46.89396	-13.11550	46.89396
12750.00000	48.47286	-21.53434	48.47286
12800.00000	48.12724	-23.56447	48.12724
12850.00000	48.27669	-29.14348	48.27669
12900.00000	49.61640	-18.54868	49.61640
12950.00000	45.96604	-27.67282	45.96604
13000.00000	48.25097	-50.76735	48.25097
13050.00000	45.38934	-26.36670	45.38934
13100.00000	42.74595	-36.55137	42.74595
13150.00000	29.94771	-0.66807	29.94771
13200.00000	45.24690	-22.96226	45.24690
13250.00000	41.42221	-10.58427	41.42221
13300.00000	39.82571	234.35782	39.82571
13350.00000	38.29408	333.41332	38.29408
13400.00000	47.52888	269.60723	47.52888
13450.00000	49.97321	359.05440	49.97321
13500.00000	44.01068	289.59874	44.01068
13550.00000	37.05992	464.55592	37.05992
13600.00000	45.84629	693.01638	45.84629
13650.00000	45.55336	680.12676	45.55336
13700.00000	38.28709	669.96814	38.28709
13750.00000	51.13374	632.06918	51.13374
13800.00000	42.99388	741.29359	42.99388
13850.00000	32.62918	716.98186	32.62918
13900.00000	47.70775	917.32290	47.70775
13950.00000	52.65976	1039.71440	52.65976
14000.00000	46.44557	1056.78361	46.44557
14050.00000	45.78547	1053.57154	45.78547
14100.00000	41.19611	1015.58150	41.19611
14150.00000	49.58599	1044.08672	49.58599
14200.00000	42.33015	1127.98418	42.33015
14250.00000	44.70481	1271.20902	44.70481
14300.00000	45.95075	1418.03299	45.95075
14350.00000	46.00084	1468.59976	46.00084
14400.00000	35.40961	1727.98444	35.40961
14450.00000	36.26981	1875.15594	36.26981
14500.00000	43.88877	1822.94606	43.88877
14550.00000	42.81329	1762.77813	42.81329
14600.00000	50.16196	1800.98171	50.16196
14650.00000	42.04213	1854.23799	42.04213
14700.00000	42.61052	1834.96948	42.61052
14750.00000	41.04776	1892.91256	41.04776
14800.00000	47.60141	2122.76228	47.60141
14850.00000	47.04341	2111.06016	47.04341
14900.00000	45.47761	2188.17922	45.47761
14950.00000	36.38389	2307.60135	36.38389
15000.00000	50.32215	2503.61937	50.32215
15050.00000	44.81380	2604.28143	44.81380
15100.00000	43.56027	2569.59474	43.56027
15150.00000	50.17754	2848.33831	50.17754
15200.00000	35.64187	2840.54500	35.64187
15250.00000	52.72592	2862.93606	52.72592
15300.00000	55.87256	2846.18979	55.87256
15350.00000	54.04577	2910.28751	54.04577
15400.00000	52.05445	2874.85915	52.05445
15450.00000	32.58082	2985.00487	32.58082
15500.00000	56.24692	3247.47627	56.24692
15550.00000	50.70875	3261.74660	50.70875
15600.00000	51.53883	3530.99098	51.53883
15650.00000	56.90271	3594.09789	56.90271
15700.00000	50.92516	3620.06399	50.92516
15750.00000	50.67985	3581.90141	50.67985
15800.00000	54.60465	3604.37973	54.60465
15850.00000	58.68243	3628.25146	58.68243
15900.00000	48.67772	3875.21204	48.67772
15950.00000	56.79251	3971.83747	56.79251
16000.00000	47.39520	3945.29596	47.39520
16050.00000	48.34422	3922.49307	48.34422
16100.00000	59.77986	3962.76388	59.77986
16150.00000	58.39596	3953.97336	58.39596
16200.00000	44.50131	3951.35298	44.50131
16250.00000	57.90732	3959.77281	57.90732
16300.00000	56.46161	3905.25392	56.46161
16350.00000	53.83415	3861.87542	53.83415
16400.00000	55.83130	3898.05570	55.83130
16450.00000	56.84365	3924.49588	56.84365
16500.00000	58.88572	3931.71261	58.88572
16550.00000	60.82621	3919.55108	60.82621
16600.00000	59.18359	3944.26734	59.18359
16650.00000	62.20658	4242.84900	62.20658
16700.00000	57.51764	4243.17184	57.51764
16750.00000	56.46553	4283.64439	56.46553
16800.00000	57.01329	4271.99470	57.01329
16850.00000	62.51947	4261.74213	62.51947
16900.00000	51.87985	4273.94480	51.87985
16950.00000	61.67242	4236.16920	61.67242
17000.00000	56.98781	4247.83234	56.98781
17050.00000	60.12112	4257.42688	60.12112
17100.00000	60.79303	4256.34807	60.79303
17150.00000	64.15492	4253.53368	64.15492
17200.00000	59.93301	4229.25708	59.93301
17250.00000	60.67450	4229.57805	60.67450
17300.00000	60.01933	4251.88657	60.01933
17350.00000	59.67822	4221.37484	59.67822
17400.00000	60.79962	4214.02236	60.79962
17450.00000	60.04872	4225.55354	60.04872
17500.00000	58.86346	4207.95347	58.86346
17550.00000	63.39334	4218.14101	63.39334
17600.00000	62.40786	4243.16061	62.40786
17650.00000	60.37182	4208.14151	60.37182
17700.00000	62.07271	4205.18665	62.07271
17750.00000	60.63759	4198.11952	60.63759
17800.00000	58.49216	4179.05673	58.49216
17850.00000	62.06229	4202.87936	62.06229
17900.00000	59.84833	4197.73450	59.84833
17950.00000	58.49374	4168.61857	58.49374
18000.00000	63.80171	4191.19886	63.80171
18050.00000	58.01095	4182.33764	58.01095
18100.00000	60.64134	4166.14345	60.64134
18150.00000	62.70065	4169.84966	62.70065
18200.00000	61.67216	4153.45156	61.67216
18250.00000	60.62784	4175.89922	60.62784
18300.00000	62.22752	4173.32670	62.22752
18350.00000	64.00925	4171.18337	64.00925
18400.00000	60.58612	4185.76259	60.58612
18450.00000	61.91213	4142.38444	61.91213
18500.00000	60.75092	4154.45140	60.75092
18550.00000	62.03623	4157.18563	62.03623
18600.00000	60.57904	4152.79110	60.57904
18650.00000	59.87505	4158.91303	59.87505
18700.00000	64.32900	4150.31947	64.32900
18750.00000	63.60229	4145.49687	63.60229
18800.00000	60.38873	4146.90553	60.38873
18850.00000	65.85461	4122.74510	65.85461
18900.00000	61.73282	4153.18623	61.73282
18950.00000	60.16123	4115.26503	60.16123
19000.00000	59.01921	4119.39539	59.01921
19050.00000	58.03161	4141.01673	58.03161
19100.00000	63.23054	4123.20089	63.23054
19150.00000	60.71827	4111.98490	60.71827
19200.00000	59.79732	4134.04904	59.79732
19250.00000	59.30996	4101.60822	59.30996
19300.00000	61.41531	4118.95271	61.41531
19350.00000	60.05823	4099.79958	60.05823
19400.00000	61.16796	4098.89445	61.16796
19450.00000	60.33091	4118.88804	60.33091
19500.00000	62.32591	4086.28273	62.32591
19550.00000	61.68925	4112.65201	61.68925
19600.00000	60.63081	4078.73028	60.63081
19650.00000	62.25539	4102.83561	62.25539
19700.00000	62.84911	4098.80184	62.84911
19750.00000	59.98539	4087.81412	59.98539
19800.00000	60.96432	4092.84035	60.96432
19850.00000	62.17959	4083.22189	62.17959
19900.00000	64.29147	4080.35286	64.29147
19950.00000	59.79944	4083.48921	59.79944
20000.00000	62.43708	4076.40818	62.43708
20050.00000	59.88584	4084.45145	59.88584
20100.00000	61.55095	4072.39163	61.55095
20150.00000	61.51665	4080.26680	61.51665
20200.00000	59.88521	4071.58773	59.88521
20250.00000	60.93352	4066.80779	60.93352
20300.00000	59.02363	4066.54723	59.02363
20350.00000	61.75236	4055.69152	61.75236
20400.00000	61.56723	4052.76639	61.56723
20450.00000	60.35316	4048.74531	60.35316
20500.00000	59.53062	4064.50967	59.53062
20550.00000	57.73749	4055.80964	57.73749
20600.00000	59.72722	4050.71964	59.72722
20650.00000	58.13560	4047.98040	58.13560
20700.00000	60.52155	4046.18148	60.52155
20750.00000	60.25106	4055.57195	60.25106
20800.00000	59.41386	4029.99484	59.41386
20850.00000	59.49360	4058.02193	59.49360
20900.00000	58.68805	4047.36650	58.68805
20950.00000	58.80862	4045.02571	58.80862
21000.00000	58.53966	4038.34217	58.53966
21050.00000	59.78404	4040.65379	59.78404
21100.00000	59.38161	4047.86677	59.38161
21150.00000	59.34074	4045.74913	59.34074
21200.00000	57.66486	4044.10631	57.66486
21250.00000	58.00870	4047.07479	58.00870
21300.00000	59.69677	4042.28496	59.69677
21350.00000	60.14600	4037.91101	60.14600
21400.00000	59.78345	4025.88447	59.78345
21450.00000	58.26234	4039.21955	58.26234
21500.00000	61.66133	4022.87651	61.66133
21550.00000	59.62115	4021.07999	59.62115
21600.00000	58.89977	4030.23005	58.89977
21650.00000	63.57858	4022.16882	63.57858
21700.00000	58.89428	4021.12145	58.89428
21750.00000	61.31539	4004.14610	61.31539
21800.00000	61.39870	3998.14203	61.39870
21850.00000	60.65479	4001.27167	60.65479
21900.00000	60.93803	4013.70843	60.93803
21950.00000	59.48974	4001.38648	59.48974
22000.00000	63.12915	4022.47527	63.12915
22050.00000	59.28969	4003.58210	59.28969
22100.00000	63.44840	4005.56807	63.44840
22150.00000	58.15854	4009.12484	58.15854
22200.00000	63.66212	4002.11649	63.66212
22250.00000	58.55126	3988.29572	58.55126
22300.00000	65.10818	3990.52283	65.10818
22350.00000	60.96157	4325.49619	60.96157
22400.00000	63.57499	4334.62851	63.57499
22450.00000	62.11985	4355.28054	62.11985
22500.00000	61.36320	4672.66005	61.36320
22550.00000	60.54142	4716.07236	60.54142
22600.00000	56.14316	5028.18002	56.14316
22650.00000	61.44506	5052.28109	61.44506
22700.00000	55.89997	5076.52106	55.89997
22750.00000	57.37047	5404.13975	57.37047
22800.00000	54.98402	5428.74307	54.98402
22850.00000	61.02575	5766.77676	61.02575
22900.00000	59.70378	5790.71692	59.70378
22950.00000	59.06540	6120.45711	59.06540
23000.00000	62.57633	6115.50234	62.57633
23050.00000	65.73053	6125.55318	65.73053
23100.00000	60.63536	6143.00039	60.63536
23150.00000	61.42417	6455.53871	61.42417
23200.00000	60.98411	6488.52507	60.98411
23250.00000	59.37716	6801.24975	59.37716
23300.00000	64.42997	6835.92155	64.42997
23350.00000	59.10908	6828.21046	59.10908
23400.00000	65.27611	6821.78051	65.27611
23450.00000	60.71577	6831.62760	60.71577
23500.00000	62.90844	7166.06092	62.90844
23550.00000	65.06981	7179.84158	65.06981
23600.00000	64.36484	7197.61838	64.36484
23650.00000	55.21845	7195.74972	55.21845
23700.00000	61.82024	7509.11276	61.82024
23750.00000	52.21372	7629.24429	52.21372
23800.00000	64.38303	7884.21123	64.38303
23850.00000	59.91205	7940.73359	59.91205
23900.00000	67.19821	8242.00648	67.19821
23950.00000	63.55505	8298.50976	63.55505
24000.00000	68.97557	8617.03458	68.97557
24050.00000	63.29181	8970.68262	63.29181
24100.00000	64.85910	9262.07817	64.85910
24150.00000	52.60928	9596.70329	52.60928
24200.00000	67.17326	9661.24033	67.17326
24250.00000	52.78158	9737.41822	52.78158
24300.00000	68.97438	10033.03924	68.97438
24350.00000	62.25474	10032.04671	62.25474
24400.00000	65.05654	10041.51600	65.05654
24450.00000	64.63188	10075.57060	64.63188
24500.00000	66.29741	10377.67169	66.29741
24550.00000	61.26856	10391.74116	61.26856
24600.00000	65.72976	10745.65577	65.72976
24650.00000	52.37803	10795.31918	52.37803
24700.00000	66.85131	11099.44940	66.85131
24750.00000	59.07516	11104.80775	59.07516
24800.00000	66.86303	11427.18734	66.86303
24850.00000	57.25983	11466.18891	57.25983
24900.00000	71.19279	11734.53193	71.19279
24950.00000	61.19904	11823.98887	61.19904
25000.00000	63.12533	11794.36942	63.12533
25050.00000	70.75674	11534.72995	70.75674
25100.00000	62.76591	11450.20808	62.76591
25150.00000	71.53411	11379.47876	71.53411
25200.00000	62.45734	11048.33565	62.45734
25250.00000	63.24684	11044.61855	63.24684
25300.00000	63.50763	11028.55621	63.50763
25350.00000	57.42029	10761.65302	57.42029
25400.00000	66.29816	10644.58137	66.29816
25450.00000	59.71592	10411.23777	59.71592
25500.00000	66.73946	10298.25202	66.73946
25550.00000	61.79513	9963.33404	61.79513
25600.00000	58.30734	9661.17163	58.30734
25650.00000	62.94608	9603.73776	62.94608
25700.00000	62.30874	9335.83798	62.30874
25750.00000	59.90817	9286.03891	59.90817
25800.00000	54.63684	8957.23981	54.63684
25850.00000	62.34488	8908.71255	62.34488
25900.00000	60.12900	8894.28279	60.12900
25950.00000	63.08202	8858.57259	63.08202
26000.00000	57.31099	8859.07671	57.31099
26050.00000	61.93127	8845.19454	61.93127
26100.00000	61.83261	8528.91558	61.83261
26150.00000	57.04446	8496.05838	57.04446
26200.00000	62.35411	8173.13456	62.35411
26250.00000	66.60691	8147.92903	66.60691
26300.00000	58.75179	7874.03155	58.75179
26350.00000	59.84222	7755.76623	59.84222
26400.00000	50.66957	7553.46738	50.66957
26450.00000	62.17451	7412.97804	62.17451
26500.00000	49.07337	7276.34261	49.07337
26550.00000	65.67903	7055.47263	65.67903
26600.00000	60.64137	6718.33243	60.64137
26650.00000	54.18180	6403.20326	54.18180
26700.00000	52.07477	6063.76199	52.07477
26750.00000	65.32972	6032.69559	65.32972
26800.00000	62.59037	5958.08677	62.59037
26850.00000	56.22830	5792.89093	56.22830
26900.00000	58.48932	5551.24515	58.48932
26950.00000	59.11224	5457.97631	59.11224
27000.00000	54.37843	5287.61139	54.37843
27050.00000	55.71887	5266.24722	55.71887
27100.00000	66.74040	5254.10981	66.74040
27150.00000	62.66116	5209.48892	62.66116
27200.00000	55.09407	4910.23523	55.09407
27250.00000	59.42121	4867.64973	59.42121
27300.00000	45.24990	4796.33462	45.24990
27350.00000	55.48147	4764.41642	55.48147
27400.00000	56.80989	4543.64091	56.80989
27450.00000	61.13929	4454.08444	61.13929
27500.00000	53.33326	4154.82464	53.33326
27550.00000	60.47806	3830.34159	60.47806
27600.00000	56.18109	3686.55946	56.18109
27650.00000	58.94520	3438.26673	58.94520
27700.00000	48.43407	3413.43065	48.43407
27750.00000	59.11266	3175.25383	59.11266
27800.00000	61.46444	3076.02051	61.46444
27850.00000	54.85402	3070.60966	54.85402
27900.00000	57.46313	2990.40248	57.46313
27950.00000	61.40657	2990.50024	61.40657
28000.00000	63.20767	2660.32451	63.20767
28050.00000	64.97429	2328.92003	64.97429
28100.00000	56.97302	2004.04473	56.97302
28150.00000	52.31676	1931.36653	52.31676
28200.00000	59.52884	1905.75981	59.52884
28250.00000	57.97906	1874.19480	57.97906
28300.00000	37.29543	1897.82738	37.29543
28350.00000	65.41125	1677.93405	65.41125
28400.00000	66.69470	1494.18324	66.69470
28450.00000	59.79909	1302.53649	59.79909
28500.00000	56.80474	1183.98843	56.80474
28550.00000	59.87400	1006.21612	59.87400
28600.00000	55.59382	862.00698	55.59382
28650.00000	57.97033	708.72242	57.97033
28700.00000	60.55196	560.46784	60.55196
28750.00000	57.50202	496.92566	57.50202
28800.00000	61.42567	224.65325	61.42567
28850.00000	61.36252	111.73701	61.36252
28900.00000	55.71461	-65.88117	55.71461
28950.00000	58.59016	-162.17093	58.59016
29000.00000	58.70514	-259.48901	58.70514
29050.00000	40.95298	-533.48323	40.95298
29100.00000	58.79743	-602.90280	58.79743
29150.00000	52.11626	-738.27022	52.11626
29200.00000	63.61638	-949.90570	63.61638
29250.00000	60.34564	-967.40374	60.34564
29300.00000	54.56932	-945.91253	54.56932
29350.00000	59.31597	-917.80877	59.31597
29400.00000	51.60313	-933.21501	51.60313
29450.00000	55.94580	-905.89320	55.94580
29500.00000	48.37064	-963.08197	48.37064
29550.00000	54.67977	-979.31076	54.67977
29600.00000	37.74265	-1254.95255	37.74265
29650.00000	57.96892	-1273.74252	57.96892
29700.00000	52.60736	-1331.28050	52.60736
29750.00000	62.91959	-1307.24695	62.91959
29800.00000	60.51296	-1467.46982	60.51296
29850.00000	55.83906	-1716.02326	55.83906
29900.00000	56.69325	-1971.52099	56.69325
29950.00000	60.01500	-2034.77979	60.01500
30000.00000	60.84889	-2077.12857	60.84889
30050.00000	62.65447	-2350.74582	62.65447
30100.00000	58.91602	-2451.26005	58.91602
30150.00000	61.47947	-2743.34583	61.47947
30200.00000	61.42880	-2767.45324	61.42880
30250.00000	54.91262	-3074.40192	54.91262
30300.00000	60.81797	-3106.36542	60.81797
30350.00000	59.81778	-3164.95708	59.81778
30400.00000	50.74755	-3344.54570	50.74755
30450.00000	49.88517	-3471.60105	49.88517
30500.00000	52.30456	-3471.24501	52.30456
30550.00000	56.54788	-3490.31690	56.54788
30600.00000	53.14388	-3480.23544	53.14388
30650.00000	55.52434	-3525.19456	55.52434
30700.00000	57.67471	-3826.09637	57.67471
30750.00000	61.53017	-3862.28504	61.53017
30800.00000	49.26884	-3866.35927	49.26884
30850.00000	60.26015	-3856.46203	60.26015
30900.00000	56.70599	-3842.13207	56.70599
30950.00000	55.69695	-4125.63066	55.69695
31000.00000	60.70464	-4205.73111	60.70464
31050.00000	61.56130	-4252.13463	61.56130
31100.00000	62.48196	-4523.35367	62.48196
31150.00000	63.16636	-4559.67896	63.16636
31200.00000	58.76845	-4592.88214	58.76845
31250.00000	64.18399	-4890.11082	64.18399
31300.00000	67.61500	-4941.45087	67.61500
31350.00000	66.65640	-4917.50090	66.65640
31400.00000	68.22110	-4919.67183	68.22110
31450.00000	67.66874	-4940.65725	67.66874
31500.00000	62.44275	-4947.77292	62.44275
31550.00000	61.67172	-4925.68879	61.67172
31600.00000	66.62845	-4951.66636	66.62845
31650.00000	65.20727	-4919.71875	65.20727
31700.00000	66.91173	-4951.40944	66.91173
31750.00000	67.56546	-4946.57961	67.56546
31800.00000	70.51133	-4936.17532	70.51133
31850.00000	71.34274	-4943.52647	71.34274
31900.00000	65.77251	-4959.92207	65.77251
31950.00000	72.41994	-4946.19155	72.41994
32000.00000	69.46869	-4943.84332	69.46869
32050.00000	71.22447	-4977.30148	71.22447
32100.00000	70.37110	-4974.82220	70.37110
32150.00000	69.13208	-4999.89693	69.13208
32200.00000	71.06474	-4971.11454	71.06474
32250.00000	73.40987	-4987.28599	73.40987
32300.00000	72.92333	-4994.10729	72.92333
32350.00000	71.80077	-4991.56129	71.80077
32400.00000	73.67410	-4967.54848	73.67410
32450.00000	72.91033	-4999.62069	72.91033
32500.00000	67.48599	-4965.68343	67.48599
32550.00000	74.29244	-4991.52786	74.29244
32600.00000	69.01801	-5027.48633	69.01801
32650.00000	65.49810	-5007.56016	65.49810
32700.00000	75.24903	-4989.47247	75.24903
32750.00000	77.35980	-5037.67849	77.35980
32800.00000	71.08894	-5012.46514	71.08894
32850.00000	76.00001	-5010.16773	76.00001
32900.00000	74.62851	-5055.27098	74.62851
32950.00000	63.00288	-5020.73061	63.00288
33000.00000	74.55154	-5026.57234	74.55154
33050.00000	72.50687	-5052.45439	72.50687
33100.00000	73.62614	-5065.77864	73.62614
33150.00000	73.08167	-5049.07690	73.08167
33200.00000	72.82436	-5058.13623	72.82436
33250.00000	67.14394	-5095.98984	67.14394
33300.00000	74.49299	-5048.14506	74.49299
33350.00000	73.06994	-5102.20621	73.06994
33400.00000	70.18092	-5083.91194	70.18092
33450.00000	72.63152	-5046.25011	72.63152
33500.00000	75.40421	-5096.73432	75.40421
33550.00000	62.47376	-5091.26880	62.47376
33600.00000	70.22775	-5065.52748	70.22775
33650.00000	73.60489	-5104.23123	73.60489
33700.00000	60.90317	-5100.34110	60.90317
33750.00000	73.62989	-5093.19603	73.62989
33800.00000	53.77244	-5200.51930	53.77244
33850.00000	65.78707	-5479.52543	65.78707
33900.00000	68.75518	-5752.06043	68.75518
33950.00000	67.54280	-5853.98975	67.54280
34000.00000	72.59989	-5840.80211	72.59989
34050.00000	63.82627	-5938.90037	63.82627
34100.00000	71.79261	-6204.23445	71.79261
34150.00000	66.75071	-6223.93050	66.75071
34200.00000	71.64974	-6482.86166	71.64974
34250.00000	67.22631	-6496.60446	67.22631
34300.00000	65.10771	-6532.40728	65.10771
34350.00000	67.96059	-6681.37342	67.96059
34400.00000	67.24979	-6927.03902	67.24979
34450.00000	64.70801	-6866.76767	64.70801
34500.00000	66.47660	-7011.90838	66.47660
34550.00000	60.89067	-7207.86232	60.89067
34600.00000	70.38975	-7310.75443	70.38975
34650.00000	63.89845	-7426.62003	63.89845
34700.00000	71.68849	-7543.21974	71.68849
34750.00000	70.14241	-7647.85714	70.14241
34800.00000	72.06188	-7740.54574	72.06188
34850.00000	76.33731	-7795.83280	76.33731
34900.00000	68.77672	-7974.21754	68.77672
34950.00000	65.41843	-8033.19132	65.41843
35000.00000	65.87819	-8130.27665	65.87819
35050.00000	69.42964	-8332.68599	69.42964
35100.00000	75.33672	-8398.88459	75.33672
35150.00000	61.16797	-8360.49366	61.16797
35200.00000	59.80119	-8561.41948	59.80119
35250.00000	64.77816	-8769.64502	64.77816
35300.00000	75.46953	-8822.19266	75.46953
35350.00000	70.14509	-8821.45102	70.14509
35400.00000	72.66721	-8987.43617	72.66721
35450.00000	67.59024	-9052.76301	67.59024
35500.00000	72.04068	-9192.63355	72.04068
35550.00000	67.19666	-9408.07769	67.19666
35600.00000	60.70262	-9507.73487	60.70262
35650.00000	67.10680	-9449.95787	67.10680
35700.00000	69.79868	-9667.41504	69.79868
35750.00000	55.14371	-9666.12803	55.14371
35800.00000	78.05950	-9869.18652	78.05950
35850.00000	74.92772	-9838.62113	74.92772
35900.00000	74.60583	-9850.78427	74.60583
35950.00000	74.75558	-9850.51635	74.75558
36000.00000	72.18754	-9848.15738	72.18754
36050.00000	73.69427	-9902.98477	73.69427
36100.00000	64.08472	-10111.35049	64.08472
36150.00000	61.38156	-10227.86585	61.38156
36200.00000	54.64242	-10233.80357	54.64242
36250.00000	65.59975	-10180.96842	65.59975
36300.00000	70.53844	-10248.51732	70.53844
36350.00000	66.21423	-10221.52753	66.21423
36400.00000	66.70550	-10316.40156	66.70550
36450.00000	71.67300	-10287.09956	71.67300
36500.00000	65.17031	-10451.15013	65.17031
36550.00000	64.94169	-10668.29600	64.94169
36600.00000	76.39521	-10665.69632	76.39521
36650.00000	69.14555	-10669.87066	69.14555
36700.00000	65.42545	-10618.49337	65.42545
36750.00000	75.31875	-10611.38686	75.31875
36800.00000	57.71132	-10685.29527	57.71132
36850.00000	62.31068	-10644.67470	62.31068
36900.00000	73.48595	-10615.20026	73.48595
36950.00000	73.35434	-10597.93430	73.35434
37000.00000	75.11968	-10675.32917	75.11968
37050.00000	64.95743	-10605.80410	64.95743
37100.00000	76.83942	-10603.94320	76.83942
37150.00000	78.09865	-10601.41692	78.09865
37200.00000	63.34869	-10836.70263	63.34869
37250.00000	75.60312	-10984.30761	75.60312
37300.00000	79.68744	-10982.37642	79.68744
37350.00000	80.13001	-11009.57812	80.13001
37400.00000	76.53511	-11018.58714	76.53511
37450.00000	77.14267	-11042.85205	77.14267
37500.00000	67.09512	-11008.06136	67.09512
37550.00000	75.73810	-11071.59763	75.73810
37600.00000	74.72480	-11049.78430	74.72480
37650.00000	74.45735	-11032.95265	74.45735
37700.00000	77.90079	-11291.84841	77.90079
37750.00000	77.09518	-11362.33788	77.09518
37800.00000	73.43832	-11354.58433	73.43832
37850.00000	58.37822	-11509.00053	58.37822
37900.00000	77.36714	-11545.69485	77.36714
37950.00000	70.58896	-11738.58885	70.58896
38000.00000	74.39932	-11791.68325	74.39932
38050.00000	77.58513	-11787.21579	77.58513
38100.00000	77.37191	-11756.58051	77.37191
38150.00000	77.26757	-11751.69927	77.26757
38200.00000	73.56977	-11775.41542	73.56977
38250.00000	75.16173	-11798.08842	75.16173
38300.00000	72.75018	-12013.02268	72.75018
38350.00000	77.77234	-12115.68006	77.77234
38400.00000	76.14225	-12156.32162	76.14225
38450.00000	79.89766	-12125.26671	79.89766
38500.00000	83.47690	-12129.15167	83.47690
38550.00000	80.76310	-12127.17974	80.76310
38600.00000	77.33341	-12160.37891	77.33341
38650.00000	80.32313	-12146.41877	80.32313
38700.00000	81.90551	-12166.70490	81.90551
38750.00000	79.08913	-12145.67119	79.08913
38800.00000	81.40653	-12151.40006	81.40653
38850.00000	73.88231	-12169.89822	73.88231
38900.00000	81.92320	-12169.55950	81.92320
38950.00000	79.85112	-12190.25329	79.85112
39000.00000	77.93459	-12183.29278	77.93459
39050.00000	78.00736	-12180.62669	78.00736
39100.00000	81.44667	-12203.17512	81.44667
39150.00000	80.39135	-12191.12342	80.39135
39200.00000	79.85898	-12206.80008	79.85898
39250.00000	75.55572	-12194.72017	75.55572
39300.00000	77.91650	-12195.50999	77.91650
39350.00000	78.77528	-12197.28452	78.77528
39400.00000	78.55624	-12226.50218	78.55624
39450.00000	80.80698	-12225.50463	80.80698
39500.00000	77.94529	-12246.15500	77.94529
39550.00000	78.56632	-12218.46071	78.56632
39600.00000	76.03306	-12238.16145	76.03306
39650.00000	78.47171	-12250.69680	78.47171
39700.00000	78.64429	-12254.37068	78.64429
39750.00000	79.99491	-12256.50062	79.99491
39800.00000	74.45349	-12274.78488	74.45349
39850.00000	81.37225	-12263.86533	81.37225
39900.00000	79.30424	-12269.01178	79.30424
39950.00000	76.14475	-12310.78418	76.14475
40000.00000	77.41524	-12299.60524	77.41524
40050.00000	73.45051	-12284.82305	73.45051
40100.00000	75.46121	-12283.92951	75.46121
40150.00000	75.59733	-12285.71222	75.59733
40200.00000	73.82736	-12264.81916	73.82736
40250.00000	71.50825	-12339.23264	71.50825
40300.00000	71.41915	-12313.84497	71.41915
40350.00000	73.19343	-12284.86909	73.19343
40400.00000	76.40044	-12304.37038	76.40044
40450.00000	77.58393	-12300.47999	77.58393
40500.00000	70.05308	-12303.38480	70.05308
40550.00000	72.18261	-12323.89645	72.18261
40600.00000	75.32752	-12289.47924	75.32752
40650.00000	65.27792	-12279.52873	65.27792
40700.00000	75.17807	-12306.13381	75.17807
40750.00000	70.54795	-12283.24409	70.54795
40800.00000	67.00548	-12242.84135	67.00548
40850.00000	73.62092	-12331.22072	73.62092
40900.00000	73.19817	-12310.68424	73.19817
40950.00000	73.59992	-12276.38124	73.59992
41000.00000	74.22975	-12280.37238	74.22975
41050.00000	69.25637	-12280.61500	69.25637
41100.00000	65.45967	-12358.72312	65.45967
41150.00000	73.05672	-12321.60158	73.05672
41200.00000	67.78632	-12341.75433	67.78632
41250.00000	73.76403	-12326.28480	73.76403
41300.00000	71.93625	-12334.30513	71.93625
41350.00000	75.90558	-12302.29478	75.90558
41400.00000	69.68760	-12389.76307	69.68760
41450.00000	71.72060	-12293.72242	71.72060
41500.00000	71.52728	-12367.89154	71.52728
41550.00000	71.91604	-12355.27115	71.91604
41600.00000	61.16663	-12469.01196	61.16663
41650.00000	75.67610	-12690.21731	75.67610
41700.00000	77.86188	-12699.96347	77.86188
41750.00000	71.95797	-12676.06246	71.95797
41800.00000	65.47903	-12632.63620	65.47903
41850.00000	77.64191	-12718.95245	77.64191
41900.00000	70.15117	-12791.82549	70.15117
41950.00000	68.55727	-12699.90241	68.55727
42000.00000	76.80933	-12712.45395	76.80933
42050.00000	78.22374	-12748.55811	78.22374
42100.00000	76.97235	-12679.79240	76.97235
42150.00000	65.42003	-12702.10280	65.42003
42200.00000	79.16130	-12701.27824	79.16130
42250.00000	73.85679	-12657.38979	73.85679
42300.00000	73.30487	-12614.78821	73.30487
42350.00000	74.01905	-12738.09837	74.01905
42400.00000	77.56927	-12739.62724	77.56927
42450.00000	72.71788	-12694.39268	72.71788
42500.00000	72.65347	-12640.45073	72.65347
42550.00000	71.30638	-12670.88037	71.30638
42600.00000	67.72289	-12616.47156	67.72289
42650.00000	72.55413	-12610.88395	72.55413
42700.00000	72.48896	-12658.87076	72.48896
42750.00000	78.18401	-12671.78767	78.18401
42800.00000	81.54730	-12788.43658	81.54730
42850.00000	68.42435	-12716.06156	68.42435
42900.00000	78.76259	-12621.88779	78.76259
42950.00000	76.22021	-12788.17185	76.22021
43000.00000	75.67588	-12984.05489	75.67588
43050.00000	79.81365	-13057.49271	79.81365
43100.00000	81.56623	-13098.85079	81.56623
43150.00000	70.59900	-12972.13373	70.59900
43200.00000	77.45381	-13092.55064	77.45381
43250.00000	75.42216	-13036.44017	75.42216
43300.00000	76.50379	-12970.76193	76.50379
43350.00000	80.23104	-13067.33811	80.23104
43400.00000	75.69461	-13011.59843	75.69461
43450.00000	85.96937	-13077.04317	85.96937
43500.00000	81.93887	-13109.65855	81.93887
43550.00000	75.40468	-13112.63817	75.40468
43600.00000	82.11068	-13125.05934	82.11068
43650.00000	65.20471	-13092.89217	65.20471
43700.00000	81.89190	-13116.41010	81.89190
43750.00000	70.49798	-13023.40538	70.49798
43800.00000	75.74899	-13139.09737	75.74899
43850.00000	81.24098	-13063.25799	81.24098
43900.00000	82.07337	-13105.55917	82.07337
43950.00000	79.60475	-13141.39454	79.60475
44000.00000	65.01800	-13151.64005	65.01800
44050.00000	77.76455	-13191.77312	77.76455
44100.00000	75.03301	-13125.25851	75.03301
44150.00000	79.93165	-13321.37732	79.93165
44200.00000	72.83256	-13450.49861	72.83256
44250.00000	63.76880	-13459.44929	63.76880
44300.00000	80.81534	-13514.71625	80.81534
44350.00000	75.24303	-13484.69292	75.24303
44400.00000	68.32931	-13583.74196	68.32931
44450.00000	78.22901	-13569.70673	78.22901
44500.00000	72.04902	-13437.27464	72.04902
44550.00000	76.59678	-13536.59195	76.59678
44600.00000	75.02935	-13462.60614	75.02935
44650.00000	71.29829	-13653.92736	71.29829
44700.00000	80.20700	-13538.52227	80.20700
44750.00000	62.81074	-13614.33704	62.81074
44800.00000	64.84160	-13539.20132	64.84160
44850.00000	74.98652	-13544.46383	74.98652
44900.00000	72.71015	-13503.62407	72.71015
44950.00000	73.47282	-13596.29221	73.47282
45000.00000	80.32020	-13573.43485	80.32020
45050.00000	53.12442	-13617.74969	53.12442
45100.00000	74.69250	-13604.06185	74.69250
45150.00000	72.69043	-13574.00267	72.69043
45200.00000	77.52230	-13514.85953	77.52230
45250.00000	74.61998	-13457.00515	74.61998
45300.00000	81.92450	-13500.33311	81.92450
45350.00000	71.57408	-13498.89462	71.57408
45400.00000	69.17307	-13583.51553	69.17307
45450.00000	67.16143	-13624.55865	67.16143
45500.00000	77.90482	-13716.68853	77.90482
45550.00000	75.63100	-13629.30985	75.63100
45600.00000	74.95804	-13685.11482	74.95804
45650.00000	70.60006	-13820.86163	70.60006
45700.00000	66.68893	-13869.75392	66.68893
45750.00000	76.36156	-13828.84591	76.36156
45800.00000	71.06797	-14009.42427	71.06797
45850.00000	73.06002	-13898.34770	73.06002
45900.00000	67.78859	-14030.72214	67.78859
45950.00000	77.31233	-14226.03522	77.31233
46000.00000	64.84719	-14242.21720	64.84719
46050.00000	63.39967	-14359.96991	63.39967
46100.00000	68.90275	-14559.88430	68.90275
46150.00000	67.77981	-14471.39675	67.77981
46200.00000	66.65894	-14363.48164	66.65894
46250.00000	75.54909	-14220.11978	75.54909
46300.00000	61.37694	-14327.83442	61.37694
46350.00000	72.80468	-14305.19515	72.80468
46400.00000	57.00925	-14461.64974	57.00925
46450.00000	73.92556	-14638.78641	73.92556
46500.00000	67.66462	-14754.73586	67.66462
46550.00000	70.46602	-14922.12060	70.46602
46600.00000	70.76934	-14985.46923	70.76934
46650.00000	68.22497	-14956.39625	68.22497
46700.00000	61.87792	-14880.94657	61.87792
46750.00000	70.72161	-14778.94120	70.72161
46800.00000	66.10979	-14661.88271	66.10979
46850.00000	64.81905	-14932.38668	64.81905
46900.00000	70.87952	-14833.45351	70.87952
46950.00000	68.89463	-14976.00166	68.89463
47000.00000	61.62559	-14958.37301	61.62559
47050.00000	71.28650	-14972.03449	71.28650
47100.00000	65.90120	-14979.62838	65.90120
47150.00000	72.18845	-15012.07875	72.18845
47200.00000	63.23160	-15087.63946	63.23160
47250.00000	71.09787	-15270.51088	71.09787
47300.00000	70.03120	-15249.60198	70.03120
47350.00000	72.39978	-15624.65931	72.39978
47400.00000	68.77605	-15587.25773	68.77605
47450.00000	65.28227	-15569.83090	65.28227
47500.00000	64.90794	-15689.35552	64.90794
47550.00000	65.76612	-16097.22272	65.76612
47600.00000	60.61740	-16253.46302	60.61740
47650.00000	69.28554	-16144.40378	69.28554
47700.00000	70.85592	-16053.70770	70.85592
47750.00000	64.78028	-16102.72615	64.78028
47800.00000	61.06457	-16046.70016	61.06457
47850.00000	71.51906	-16472.48202	71.51906
47900.00000	60.52221	-16883.94412	60.52221
47950.00000	69.09340	-17070.13000	69.09340
48000.00000	67.96874	-17034.79252	67.96874
48050.00000	63.85000	-17204.72224	63.85000
48100.00000	50.95916	-17231.90899	50.95916
48150.00000	63.54126	-17439.05319	63.54126
48200.00000	69.23627	-17386.88121	69.23627
48250.00000	67.61664	-17261.03100	67.61664
48300.00000	65.35698	-17336.49532	65.35698
48350.00000	64.55048	-17366.17729	64.55048
48400.00000	64.41347	-17857.22050	64.41347
48450.00000	69.51887	-17862.81163	69.51887
48500.00000	60.66669	-17860.76931	60.66669
48550.00000	66.17209	-17937.37299	66.17209
48600.00000	62.21550	-18172.76133	62.21550
48650.00000	60.83221	-18233.13695	60.83221
48700.00000	70.35426	-18332.45280	70.35426
48750.00000	67.56575	-18775.68044	67.56575
48800.00000	69.80690	-18648.51084	69.80690
48850.00000	71.73340	-18687.22760	71.73340
48900.00000	72.18248	-18961.56675	72.18248
48950.00000	69.90206	-18893.59430	69.90206
49000.00000	71.79292	-18764.16155	71.79292
49050.00000	64.23490	-18656.47192	64.23490
49100.00000	70.30825	-19001.40808	70.30825
49150.00000	73.32714	-19441.46985	73.32714
49200.00000	67.67736	-19555.54197	67.67736
49250.00000	73.63309	-19801.33361	73.63309
49300.00000	74.16104	-19497.71478	74.16104
49350.00000	70.31110	-19509.71426	70.31110
49400.00000	76.78744	-19292.12804	76.78744
49450.00000	69.26717	-18842.04001	69.26717
49500.00000	76.55363	-18643.26633	76.55363
49550.00000	66.92417	-18462.34089	66.92417
49600.00000	63.82782	-18432.19230	63.82782
49650.00000	76.50962	-18413.15873	76.50962
49700.00000	69.27660	-17985.42207	69.27660
49750.00000	66.31769	-18149.82557	66.31769
49800.00000	71.60804	-18326.08558	71.60804
49850.00000	64.51130	-18363.72237	64.51130
49900.00000	73.87977	-18044.46365	73.87977
49950.00000	78.65795	-17739.92157	78.65795
