---ACOUSTIC CALIBRATION---
Filename: C:\Data\AZH DATA\AZH61\RightPrimary.calib
Date: 8/27/2019 3:08:43 PM
Format: 4
Probe Tube Correction File: C:\Data\Probe Tube Calibrations\50_ProbeTube.calib
Experiment VIs: 850
EPL_CFTS.exe V12.0.1 (2012)
DAQmx V9.6

Attenuation (dB): 40.000000
Min Freq (Hz): 50.000000
Max Freq (Hz): 49950.000000
Freq Step (Hz): 50.000000
Sample Rate (Hz): 100000.000000
[Smoothing]
Method=None
MA.Iterations=0
MA.Length=0
Loess.Length=0
Loess.Type=Linear
Loess.Robust=FALSE


Freq(Hz)	Mag(dB)	Phase(deg)	Unsmoothed(dB)

50.00000	100.57525	517.94807	100.57525
100.00000	76.22290	667.45303	76.22290
150.00000	73.90945	789.75389	73.90945
200.00000	83.71602	774.58709	83.71602
250.00000	88.96911	806.88407	88.96911
300.00000	80.18547	743.31083	80.18547
350.00000	81.93969	740.69009	81.93969
400.00000	83.86116	749.23638	83.86116
450.00000	88.40368	727.28735	88.40368
500.00000	77.40541	786.20722	77.40541
550.00000	92.18519	729.58066	92.18519
600.00000	93.90246	717.77165	93.90246
650.00000	96.81642	713.43775	96.81642
700.00000	99.23805	691.61383	99.23805
750.00000	101.24024	675.02208	101.24024
800.00000	101.58780	650.04739	101.58780
850.00000	100.83929	636.84653	100.83929
900.00000	99.57600	617.86292	99.57600
950.00000	97.49199	617.37175	97.49199
1000.00000	96.32903	616.78207	96.32903
1050.00000	93.56593	633.32981	93.56593
1100.00000	95.58956	653.75344	95.58956
1150.00000	98.79622	659.51290	98.79622
1200.00000	101.78852	656.76756	101.78852
1250.00000	103.22520	649.45061	103.22520
1300.00000	105.03607	644.17250	105.03607
1350.00000	106.01573	633.96328	106.01573
1400.00000	107.01799	627.50602	107.01799
1450.00000	108.05388	620.56734	108.05388
1500.00000	109.09671	614.26006	109.09671
1550.00000	109.79494	605.01455	109.79494
1600.00000	111.22584	595.82116	111.22584
1650.00000	112.31295	579.58333	112.31295
1700.00000	111.05595	569.38972	111.05595
1750.00000	110.83163	563.29223	110.83163
1800.00000	110.51803	558.69451	110.51803
1850.00000	110.63285	557.83720	110.63285
1900.00000	111.73823	553.72084	111.73823
1950.00000	112.49718	540.77548	112.49718
2000.00000	111.59047	528.45649	111.59047
2050.00000	110.24788	533.10718	110.24788
2100.00000	112.05573	532.61953	112.05573
2150.00000	112.69494	521.37142	112.69494
2200.00000	112.68051	511.68065	112.68051
2250.00000	112.05323	504.48577	112.05323
2300.00000	112.18373	498.86792	112.18373
2350.00000	111.90387	492.51628	111.90387
2400.00000	111.60489	487.17317	111.60489
2450.00000	111.34265	480.42213	111.34265
2500.00000	111.02819	475.36161	111.02819
2550.00000	110.53858	469.79548	110.53858
2600.00000	109.94797	465.33944	109.94797
2650.00000	109.49761	461.73212	109.49761
2700.00000	108.94553	458.28327	108.94553
2750.00000	108.44068	454.92201	108.44068
2800.00000	107.85898	452.19347	107.85898
2850.00000	107.21242	450.00395	107.21242
2900.00000	106.56015	447.60983	106.56015
2950.00000	105.94425	447.15443	105.94425
3000.00000	105.23711	445.70815	105.23711
3050.00000	104.41000	445.28501	104.41000
3100.00000	103.54951	446.43146	103.54951
3150.00000	102.41009	447.65298	102.41009
3200.00000	101.14159	454.90876	101.14159
3250.00000	100.54787	463.75149	100.54787
3300.00000	100.13888	476.70620	100.13888
3350.00000	100.51494	493.24927	100.51494
3400.00000	102.36382	508.31027	102.36382
3450.00000	104.93189	515.41406	104.93189
3500.00000	107.44123	516.39848	107.44123
3550.00000	109.42584	512.81764	109.42584
3600.00000	111.16350	509.25771	111.16350
3650.00000	112.62840	503.85890	112.62840
3700.00000	113.94729	498.79433	113.94729
3750.00000	115.27742	493.09335	115.27742
3800.00000	116.44446	486.43409	116.44446
3850.00000	117.44987	479.18966	117.44987
3900.00000	118.35325	472.34987	118.35325
3950.00000	119.25064	465.16412	119.25064
4000.00000	120.06476	457.69434	120.06476
4050.00000	120.83032	450.27020	120.83032
4100.00000	121.64369	442.74452	121.64369
4150.00000	122.61621	434.25555	122.61621
4200.00000	123.30285	424.20181	123.30285
4250.00000	123.94373	413.13541	123.94373
4300.00000	124.36070	401.14810	124.36070
4350.00000	124.43618	388.76457	124.43618
4400.00000	124.27333	377.31309	124.27333
4450.00000	123.93637	366.79333	123.93637
4500.00000	123.52910	357.29218	123.52910
4550.00000	123.08966	348.43852	123.08966
4600.00000	122.60525	340.14821	122.60525
4650.00000	122.15904	332.28063	122.15904
4700.00000	121.66147	324.00242	121.66147
4750.00000	121.03776	315.53082	121.03776
4800.00000	120.21107	307.00222	120.21107
4850.00000	119.11091	299.43100	119.11091
4900.00000	117.79322	293.79582	117.79322
4950.00000	116.42342	290.75979	116.42342
5000.00000	115.19448	290.05977	115.19448
5050.00000	114.14314	290.46010	114.14314
5100.00000	112.97850	293.88650	112.97850
5150.00000	112.91187	299.46049	112.91187
5200.00000	112.15208	303.61906	112.15208
5250.00000	113.50712	316.09233	113.50712
5300.00000	115.83743	308.05948	115.83743
5350.00000	116.02013	295.40078	116.02013
5400.00000	115.49944	287.95504	115.49944
5450.00000	114.98077	283.66472	114.98077
5500.00000	114.57043	280.38979	114.57043
5550.00000	114.27129	277.80735	114.27129
5600.00000	114.01410	275.28754	114.01410
5650.00000	113.81381	273.02660	113.81381
5700.00000	113.60035	270.45768	113.60035
5750.00000	113.45205	268.10843	113.45205
5800.00000	113.29149	265.71720	113.29149
5850.00000	113.17388	263.33959	113.17388
5900.00000	113.04604	261.05736	113.04604
5950.00000	112.92022	258.82924	112.92022
6000.00000	112.81921	256.62792	112.81921
6050.00000	112.72896	254.51135	112.72896
6100.00000	112.68815	252.32667	112.68815
6150.00000	112.63515	249.80017	112.63515
6200.00000	112.61196	247.31879	112.61196
6250.00000	112.57559	244.56527	112.57559
6300.00000	112.54317	241.71717	112.54317
6350.00000	112.45321	238.86694	112.45321
6400.00000	112.37202	236.21344	112.37202
6450.00000	112.31749	233.55916	112.31749
6500.00000	112.22303	230.63201	112.22303
6550.00000	112.16734	228.02632	112.16734
6600.00000	112.07938	225.47402	112.07938
6650.00000	112.01591	223.02487	112.01591
6700.00000	111.95180	220.06490	111.95180
6750.00000	111.93267	217.47065	111.93267
6800.00000	111.88193	215.08277	111.88193
6850.00000	111.82553	212.17610	111.82553
6900.00000	111.81515	209.54778	111.81515
6950.00000	111.77249	206.88542	111.77249
7000.00000	111.76166	204.15733	111.76166
7050.00000	111.75233	201.27967	111.75233
7100.00000	111.74496	198.13222	111.74496
7150.00000	111.70366	195.28178	111.70366
7200.00000	111.70623	192.01568	111.70623
7250.00000	111.65711	188.99918	111.65711
7300.00000	111.66395	185.43546	111.66395
7350.00000	111.59060	182.41985	111.59060
7400.00000	111.52772	178.99062	111.52772
7450.00000	111.48870	175.52182	111.48870
7500.00000	111.42355	172.02655	111.42355
7550.00000	111.34884	168.51523	111.34884
7600.00000	111.22994	164.99984	111.22994
7650.00000	111.13807	161.47881	111.13807
7700.00000	111.05322	158.11435	111.05322
7750.00000	110.90624	154.39126	110.90624
7800.00000	110.75249	150.77641	110.75249
7850.00000	110.59191	147.37243	110.59191
7900.00000	110.44306	143.83714	110.44306
7950.00000	110.28290	140.26915	110.28290
8000.00000	110.10129	136.89131	110.10129
8050.00000	109.90805	133.03514	109.90805
8100.00000	109.71832	130.01855	109.71832
8150.00000	109.44463	126.73406	109.44463
8200.00000	109.21429	123.67080	109.21429
8250.00000	108.95045	120.26776	108.95045
8300.00000	108.68250	117.14306	108.68250
8350.00000	108.39118	114.30570	108.39118
8400.00000	108.08741	110.94390	108.08741
8450.00000	107.71885	107.74761	107.71885
8500.00000	107.40673	104.67713	107.40673
8550.00000	107.11343	102.03128	107.11343
8600.00000	106.78134	98.87403	106.78134
8650.00000	106.46197	96.22114	106.46197
8700.00000	106.17725	93.22779	106.17725
8750.00000	105.80566	91.59015	105.80566
8800.00000	105.55030	89.15386	105.55030
8850.00000	105.22550	87.17630	105.22550
8900.00000	104.89260	85.47035	104.89260
8950.00000	104.58315	83.43057	104.58315
9000.00000	104.19328	81.64413	104.19328
9050.00000	103.85286	79.36784	103.85286
9100.00000	103.51720	77.41144	103.51720
9150.00000	103.21492	75.39672	103.21492
9200.00000	102.96333	73.04867	102.96333
9250.00000	102.71243	71.14310	102.71243
9300.00000	102.53165	69.04652	102.53165
9350.00000	102.39205	67.44961	102.39205
9400.00000	102.15101	66.29128	102.15101
9450.00000	102.00224	65.36879	102.00224
9500.00000	101.90353	65.64336	101.90353
9550.00000	101.84467	65.48549	101.84467
9600.00000	101.81190	64.11012	101.81190
9650.00000	101.62414	62.51900	101.62414
9700.00000	101.39175	61.49917	101.39175
9750.00000	101.23763	59.25296	101.23763
9800.00000	101.04419	57.71036	101.04419
9850.00000	100.93757	56.09213	100.93757
9900.00000	100.71215	54.17239	100.71215
9950.00000	100.63022	52.77318	100.63022
10000.00000	100.60063	50.78956	100.60063
10050.00000	100.52085	49.39084	100.52085
10100.00000	100.39568	48.17321	100.39568
10150.00000	100.20140	46.53608	100.20140
10200.00000	100.05621	44.97233	100.05621
10250.00000	99.82171	43.01733	99.82171
10300.00000	99.73259	40.85757	99.73259
10350.00000	99.53258	38.87687	99.53258
10400.00000	99.33414	36.34411	99.33414
10450.00000	99.30445	33.71264	99.30445
10500.00000	99.30559	31.37740	99.30559
10550.00000	99.27878	29.02913	99.27878
10600.00000	99.22871	27.30996	99.22871
10650.00000	99.11754	25.84681	99.11754
10700.00000	99.04133	23.25274	99.04133
10750.00000	98.98607	21.32150	98.98607
10800.00000	98.75915	19.50326	98.75915
10850.00000	98.58216	16.44133	98.58216
10900.00000	98.41116	14.31300	98.41116
10950.00000	98.25701	12.03185	98.25701
11000.00000	98.11916	 9.54872	98.11916
11050.00000	97.82120	 7.42863	97.82120
11100.00000	97.61096	 4.86711	97.61096
11150.00000	97.30780	 2.95823	97.30780
11200.00000	97.14559	 1.22401	97.14559
11250.00000	96.80287	-0.94770	96.80287
11300.00000	96.45749	-3.01389	96.45749
11350.00000	96.15541	-4.56668	96.15541
11400.00000	95.77395	-6.40627	95.77395
11450.00000	95.49998	-8.62778	95.49998
11500.00000	95.34724	-9.57155	95.34724
11550.00000	95.00684	-10.91400	95.00684
11600.00000	94.85920	-12.73435	94.85920
11650.00000	94.57919	-12.89716	94.57919
11700.00000	94.41105	-13.65836	94.41105
11750.00000	94.26968	-14.66614	94.26968
11800.00000	94.07235	-16.06449	94.07235
11850.00000	93.93009	-16.01389	93.93009
11900.00000	93.60298	-17.34375	93.60298
11950.00000	93.47609	-17.93034	93.47609
12000.00000	93.26178	-18.40770	93.26178
12050.00000	93.00290	-19.23602	93.00290
12100.00000	92.91502	-20.98084	92.91502
12150.00000	92.81252	-22.38219	92.81252
12200.00000	92.75371	-23.75301	92.75371
12250.00000	92.62335	-24.47621	92.62335
12300.00000	93.66407	-25.84784	93.66407
12350.00000	92.43108	-26.71468	92.43108
12400.00000	92.36398	-26.84333	92.36398
12450.00000	92.13579	-28.24302	92.13579
12500.00000	91.95606	-30.04238	91.95606
12550.00000	91.84241	-31.44509	91.84241
12600.00000	91.62208	-33.31021	91.62208
12650.00000	91.69850	-34.88196	91.69850
12700.00000	91.50919	-36.32065	91.50919
12750.00000	91.25311	-38.34527	91.25311
12800.00000	91.07548	-39.21588	91.07548
12850.00000	90.63268	-40.22313	90.63268
12900.00000	90.42990	-42.16526	90.42990
12950.00000	90.22437	-43.06104	90.22437
13000.00000	89.90241	-44.61075	89.90241
13050.00000	89.71725	-44.67398	89.71725
13100.00000	89.34190	-46.88200	89.34190
13150.00000	89.21834	-48.36410	89.21834
13200.00000	88.87128	-46.68745	88.87128
13250.00000	88.70063	-46.71577	88.70063
13300.00000	88.37672	-45.50187	88.37672
13350.00000	88.11996	-46.02855	88.11996
13400.00000	87.90028	-46.17552	87.90028
13450.00000	87.55137	-45.53321	87.55137
13500.00000	87.68312	-43.99932	87.68312
13550.00000	87.28127	-44.27612	87.28127
13600.00000	87.15070	-43.64887	87.15070
13650.00000	87.00350	-42.21882	87.00350
13700.00000	86.80612	-42.65877	86.80612
13750.00000	86.66910	-41.73325	86.66910
13800.00000	86.43200	-42.98783	86.43200
13850.00000	86.42548	-43.75034	86.42548
13900.00000	86.40168	-43.01346	86.40168
13950.00000	86.36202	-42.36366	86.36202
14000.00000	86.43424	-40.43956	86.43424
14050.00000	86.49310	-39.51234	86.49310
14100.00000	86.07263	-38.07780	86.07263
14150.00000	86.28280	-37.57272	86.28280
14200.00000	86.47025	-37.47614	86.47025
14250.00000	86.75612	-34.94481	86.75612
14300.00000	86.81334	-34.55353	86.81334
14350.00000	86.66345	-32.32784	86.66345
14400.00000	86.41461	-32.24456	86.41461
14450.00000	86.49858	-29.46180	86.49858
14500.00000	86.40656	-30.94960	86.40656
14550.00000	86.71899	-29.97751	86.71899
14600.00000	86.80141	-29.25350	86.80141
14650.00000	87.21670	-26.72223	87.21670
14700.00000	87.25759	-29.39616	87.25759
14750.00000	87.50361	-27.50123	87.50361
14800.00000	87.59849	-25.76761	87.59849
14850.00000	87.91698	-24.74268	87.91698
14900.00000	88.33536	-24.58690	88.33536
14950.00000	88.59257	-24.65746	88.59257
15000.00000	88.97934	-24.46092	88.97934
15050.00000	89.18086	-21.99521	89.18086
15100.00000	89.48410	-20.75566	89.48410
15150.00000	89.87486	-21.40196	89.87486
15200.00000	90.06933	-20.88321	90.06933
15250.00000	90.38890	-21.53767	90.38890
15300.00000	90.97194	-21.58019	90.97194
15350.00000	91.40820	-22.30097	91.40820
15400.00000	91.57862	-21.32887	91.57862
15450.00000	91.91102	-21.79713	91.91102
15500.00000	92.50039	-22.24325	92.50039
15550.00000	92.91628	-23.33367	92.91628
15600.00000	93.36579	-24.49627	93.36579
15650.00000	93.93363	-23.73392	93.93363
15700.00000	94.30277	-26.14381	94.30277
15750.00000	94.82292	-26.93459	94.82292
15800.00000	95.28934	-27.34564	95.28934
15850.00000	95.69440	-28.65506	95.69440
15900.00000	96.05397	-31.15439	96.05397
15950.00000	96.53666	-33.16931	96.53666
16000.00000	96.99367	-34.53293	96.99367
16050.00000	97.55758	-36.47575	97.55758
16100.00000	97.80281	-38.81268	97.80281
16150.00000	98.16268	-40.63746	98.16268
16200.00000	98.59775	-44.04366	98.59775
16250.00000	99.01254	-46.06323	99.01254
16300.00000	99.58235	-48.71537	99.58235
16350.00000	99.99968	-51.36709	99.99968
16400.00000	100.33251	-53.77143	100.33251
16450.00000	100.63151	-56.27742	100.63151
16500.00000	100.95464	-59.28514	100.95464
16550.00000	101.33154	-62.93764	101.33154
16600.00000	101.73264	-66.08726	101.73264
16650.00000	102.00231	-68.90377	102.00231
16700.00000	102.32676	-71.57156	102.32676
16750.00000	102.51835	-75.46528	102.51835
16800.00000	102.80727	-78.98659	102.80727
16850.00000	103.12887	-82.45784	103.12887
16900.00000	103.36785	-85.77039	103.36785
16950.00000	103.59828	-89.10189	103.59828
17000.00000	103.70262	-92.67394	103.70262
17050.00000	103.98772	-95.32099	103.98772
17100.00000	104.06009	-97.83456	104.06009
17150.00000	104.37037	-101.98011	104.37037
17200.00000	104.53313	-105.10539	104.53313
17250.00000	104.62881	-108.93029	104.62881
17300.00000	104.87093	-112.37372	104.87093
17350.00000	104.87614	-115.21055	104.87614
17400.00000	105.11068	-118.57711	105.11068
17450.00000	105.17408	-122.31720	105.17408
17500.00000	105.31783	-125.36760	105.31783
17550.00000	105.47412	-128.85874	105.47412
17600.00000	105.70106	-131.72161	105.70106
17650.00000	105.74743	-135.83023	105.74743
17700.00000	105.85538	-139.45827	105.85538
17750.00000	106.07678	-142.22730	106.07678
17800.00000	106.06068	-146.29692	106.06068
17850.00000	106.17719	-149.22154	106.17719
17900.00000	106.24080	-152.98199	106.24080
17950.00000	106.40075	-156.50897	106.40075
18000.00000	106.42211	-160.74549	106.42211
18050.00000	106.61184	-163.69304	106.61184
18100.00000	106.57627	-167.93487	106.57627
18150.00000	106.60658	-170.75320	106.60658
18200.00000	106.54690	-174.96861	106.54690
18250.00000	106.62501	-177.75740	106.62501
18300.00000	106.68461	-181.29275	106.68461
18350.00000	106.66411	-184.70751	106.66411
18400.00000	106.58296	-188.38758	106.58296
18450.00000	106.53411	-192.81900	106.53411
18500.00000	106.51317	-196.19187	106.51317
18550.00000	106.47384	-198.97723	106.47384
18600.00000	106.51599	-202.73968	106.51599
18650.00000	106.29971	-205.73147	106.29971
18700.00000	106.23891	-209.16288	106.23891
18750.00000	106.22423	-212.24931	106.22423
18800.00000	106.27921	-214.72163	106.27921
18850.00000	106.07791	-218.11663	106.07791
18900.00000	105.99331	-220.79648	105.99331
18950.00000	105.95547	-224.25299	105.95547
19000.00000	105.72963	-226.74123	105.72963
19050.00000	105.80364	-229.51280	105.80364
19100.00000	105.67987	-232.21953	105.67987
19150.00000	105.73766	-234.81372	105.73766
19200.00000	105.67765	-237.09458	105.67765
19250.00000	105.57691	-240.85280	105.57691
19300.00000	105.45507	-242.84149	105.45507
19350.00000	105.43067	-245.55466	105.43067
19400.00000	105.36059	-248.15290	105.36059
19450.00000	105.39549	-250.31995	105.39549
19500.00000	105.26859	-253.82367	105.26859
19550.00000	105.24371	-256.29503	105.24371
19600.00000	105.27047	-259.51164	105.27047
19650.00000	105.16279	-261.70191	105.16279
19700.00000	105.02403	-264.62884	105.02403
19750.00000	104.96216	-266.64404	104.96216
19800.00000	104.98741	-270.21456	104.98741
19850.00000	104.94229	-272.68225	104.94229
19900.00000	104.81547	-276.04652	104.81547
19950.00000	104.73312	-278.60045	104.73312
20000.00000	104.67022	-281.42475	104.67022
20050.00000	104.59505	-284.01580	104.59505
20100.00000	104.43185	-286.86616	104.43185
20150.00000	104.38513	-288.62581	104.38513
20200.00000	104.24305	-292.01560	104.24305
20250.00000	104.07422	-294.50387	104.07422
20300.00000	103.88977	-296.95339	103.88977
20350.00000	103.82222	-299.67345	103.82222
20400.00000	103.64140	-301.22615	103.64140
20450.00000	103.40197	-303.62627	103.40197
20500.00000	103.32198	-306.14875	103.32198
20550.00000	102.94781	-307.48142	102.94781
20600.00000	102.86267	-309.16503	102.86267
20650.00000	102.71602	-310.89848	102.71602
20700.00000	102.49025	-312.32719	102.49025
20750.00000	102.40292	-313.71130	102.40292
20800.00000	102.22043	-314.68703	102.22043
20850.00000	102.15399	-315.91547	102.15399
20900.00000	102.00499	-316.78285	102.00499
20950.00000	101.90114	-317.08610	101.90114
21000.00000	101.86937	-317.78085	101.86937
21050.00000	101.99499	-318.08181	101.99499
21100.00000	102.00539	-318.56919	102.00539
21150.00000	102.14090	-319.49107	102.14090
21200.00000	102.28818	-320.10607	102.28818
21250.00000	102.42588	-322.25091	102.42588
21300.00000	102.64153	-323.20911	102.64153
21350.00000	102.79371	-324.61965	102.79371
21400.00000	102.94284	-326.89348	102.94284
21450.00000	103.12086	-328.99947	103.12086
21500.00000	103.26679	-331.64625	103.26679
21550.00000	103.27903	-333.79659	103.27903
21600.00000	103.47106	-336.50515	103.47106
21650.00000	103.52189	-339.19756	103.52189
21700.00000	103.53001	-341.52247	103.53001
21750.00000	103.56507	-344.25551	103.56507
21800.00000	103.59453	-347.03199	103.59453
21850.00000	103.51063	-349.42521	103.51063
21900.00000	103.53855	-352.01197	103.53855
21950.00000	103.50299	-353.99373	103.50299
22000.00000	103.52635	-356.33890	103.52635
22050.00000	103.44663	-358.24762	103.44663
22100.00000	103.40149	-360.55514	103.40149
22150.00000	103.34108	-362.48918	103.34108
22200.00000	103.37928	-364.77582	103.37928
22250.00000	103.30232	-366.18541	103.30232
22300.00000	103.15263	-368.42099	103.15263
22350.00000	103.28026	-370.50320	103.28026
22400.00000	103.28317	-372.70287	103.28317
22450.00000	103.18683	-374.57408	103.18683
22500.00000	103.10432	-375.24563	103.10432
22550.00000	103.12212	-377.69713	103.12212
22600.00000	103.08812	-380.31690	103.08812
22650.00000	103.06448	-382.34991	103.06448
22700.00000	103.05541	-383.89492	103.05541
22750.00000	103.01989	-384.07827	103.01989
22800.00000	103.06265	-388.04856	103.06265
22850.00000	103.07534	-390.75223	103.07534
22900.00000	103.12815	-390.91925	103.12815
22950.00000	103.10697	-392.96049	103.10697
23000.00000	103.07770	-394.47960	103.07770
23050.00000	103.05460	-396.83435	103.05460
23100.00000	103.11371	-398.05729	103.11371
23150.00000	102.92187	-399.43388	102.92187
23200.00000	103.13989	-402.61578	103.13989
23250.00000	102.91710	-405.14160	102.91710
23300.00000	103.20733	-407.40796	103.20733
23350.00000	102.93575	-408.85493	102.93575
23400.00000	102.93835	-411.35354	102.93835
23450.00000	103.08455	-413.34621	103.08455
23500.00000	102.96391	-414.55292	102.96391
23550.00000	102.95356	-414.78872	102.95356
23600.00000	102.83998	-419.11310	102.83998
23650.00000	102.94378	-419.93826	102.94378
23700.00000	103.05154	-424.14562	103.05154
23750.00000	103.03270	-424.59724	103.03270
23800.00000	102.73502	-425.82931	102.73502
23850.00000	102.96067	-426.73555	102.96067
23900.00000	103.23911	-429.43832	103.23911
23950.00000	103.00616	-432.15778	103.00616
24000.00000	102.93426	-435.44126	102.93426
24050.00000	103.01914	-435.48431	103.01914
24100.00000	103.30022	-439.03883	103.30022
24150.00000	103.24963	-441.12516	103.24963
24200.00000	103.26172	-444.32261	103.26172
24250.00000	102.94176	-445.04718	102.94176
24300.00000	103.32972	-448.89647	103.32972
24350.00000	103.20273	-449.97729	103.20273
24400.00000	103.16065	-453.28993	103.16065
24450.00000	102.97480	-454.92427	102.97480
24500.00000	103.39855	-456.62202	103.39855
24550.00000	103.33524	-461.77519	103.33524
24600.00000	103.72796	-462.70627	103.72796
24650.00000	103.38336	-106.87153	103.38336
24700.00000	103.26488	252.88435	103.26488
24750.00000	103.33514	608.10333	103.33514
24800.00000	103.23371	965.49563	103.23371
24850.00000	102.90634	1324.96631	102.90634
24900.00000	103.17706	1682.90705	103.17706
24950.00000	103.07093	2037.83710	103.07093
25000.00000	103.06539	2031.30216	103.06539
25050.00000	103.43024	2031.67230	103.43024
25100.00000	102.54845	2028.90746	102.54845
25150.00000	103.07750	2028.45094	103.07750
25200.00000	102.63752	2024.15204	102.63752
25250.00000	102.79189	2023.28697	102.79189
25300.00000	102.69590	2021.99667	102.69590
25350.00000	102.68948	2015.34386	102.68948
25400.00000	102.62393	2012.32231	102.62393
25450.00000	102.52554	2011.29451	102.52554
25500.00000	102.21952	2009.14690	102.21952
25550.00000	102.29363	2006.49919	102.29363
25600.00000	102.31186	2004.10432	102.31186
25650.00000	102.20506	2002.80182	102.20506
25700.00000	102.12980	1999.66395	102.12980
25750.00000	101.96136	1997.49290	101.96136
25800.00000	101.94026	1994.32244	101.94026
25850.00000	101.94265	1992.23257	101.94265
25900.00000	101.84128	1988.66789	101.84128
25950.00000	101.55975	1990.39252	101.55975
26000.00000	101.73827	1985.36661	101.73827
26050.00000	101.56368	1983.74656	101.56368
26100.00000	101.58144	1981.23106	101.58144
26150.00000	101.49526	1978.94908	101.49526
26200.00000	101.58802	1977.01472	101.58802
26250.00000	101.42703	1974.59921	101.42703
26300.00000	101.49122	1971.86330	101.49122
26350.00000	101.06730	1970.98702	101.06730
26400.00000	101.07337	1968.96542	101.07337
26450.00000	101.26224	1965.15540	101.26224
26500.00000	101.12178	1963.14213	101.12178
26550.00000	100.97915	1957.87252	100.97915
26600.00000	100.82550	1956.69897	100.82550
26650.00000	100.98559	1957.12072	100.98559
26700.00000	100.80531	1953.94753	100.80531
26750.00000	100.66063	1951.31797	100.66063
26800.00000	100.50012	1946.02495	100.50012
26850.00000	100.75637	1946.15681	100.75637
26900.00000	100.77009	1944.43487	100.77009
26950.00000	100.81248	1940.60048	100.81248
27000.00000	100.25228	1939.44668	100.25228
27050.00000	100.52815	1936.99253	100.52815
27100.00000	100.16569	1935.84029	100.16569
27150.00000	100.19469	1932.20164	100.19469
27200.00000	100.19036	1930.70557	100.19036
27250.00000	99.71409	1929.59720	99.71409
27300.00000	99.45651	1925.59826	99.45651
27350.00000	99.61413	1926.33512	99.61413
27400.00000	99.23007	1923.52597	99.23007
27450.00000	99.08683	1922.11543	99.08683
27500.00000	99.03449	1920.51437	99.03449
27550.00000	99.13134	1918.81343	99.13134
27600.00000	99.24324	1916.09650	99.24324
27650.00000	98.71987	1916.36717	98.71987
27700.00000	98.63412	1911.63413	98.63412
27750.00000	98.66682	1909.78048	98.66682
27800.00000	98.63216	1906.95822	98.63216
27850.00000	98.81410	1910.11956	98.81410
27900.00000	98.44251	1907.20998	98.44251
27950.00000	97.61573	1906.37389	97.61573
28000.00000	97.94218	1905.24480	97.94218
28050.00000	98.40826	1902.82611	98.40826
28100.00000	97.70232	1901.80677	97.70232
28150.00000	97.67310	1901.30156	97.67310
28200.00000	98.00676	1897.95099	98.00676
28250.00000	97.50773	1895.87911	97.50773
28300.00000	97.39219	1897.49487	97.39219
28350.00000	97.52528	1896.54927	97.52528
28400.00000	97.39203	1896.85205	97.39203
28450.00000	98.07296	1894.07986	98.07296
28500.00000	97.34013	1893.24443	97.34013
28550.00000	97.47391	1895.47076	97.47391
28600.00000	97.61288	1893.15408	97.61288
28650.00000	97.85779	1889.69315	97.85779
28700.00000	97.71374	1890.66257	97.71374
28750.00000	98.25829	1891.24855	98.25829
28800.00000	98.19256	1889.11219	98.19256
28850.00000	97.56774	1886.08092	97.56774
28900.00000	97.80261	1884.35960	97.80261
28950.00000	97.84131	1885.19229	97.84131
29000.00000	98.01770	1883.23331	98.01770
29050.00000	97.85323	1883.89788	97.85323
29100.00000	97.89988	1883.17850	97.89988
29150.00000	97.82487	1881.84666	97.82487
29200.00000	97.80116	1879.35479	97.80116
29250.00000	98.25750	1878.93380	98.25750
29300.00000	98.24156	1876.55019	98.24156
29350.00000	98.40929	1874.02941	98.40929
29400.00000	98.44356	1873.39824	98.44356
29450.00000	98.33081	1872.16379	98.33081
29500.00000	98.68590	1872.59645	98.68590
29550.00000	98.60746	1867.29631	98.60746
29600.00000	98.50873	1867.89133	98.50873
29650.00000	98.76056	1866.14285	98.76056
29700.00000	98.51103	1866.30895	98.51103
29750.00000	98.57094	1866.28219	98.57094
29800.00000	98.39144	1862.74854	98.39144
29850.00000	98.51716	1860.99852	98.51716
29900.00000	98.83104	1861.50057	98.83104
29950.00000	97.94307	1860.28947	97.94307
30000.00000	98.50421	1861.14231	98.50421
30050.00000	98.56404	1858.43000	98.56404
30100.00000	98.28674	1860.03826	98.28674
30150.00000	98.51428	1856.31317	98.51428
30200.00000	98.55974	1854.70632	98.55974
30250.00000	98.29667	1855.58866	98.29667
30300.00000	98.08621	1856.43977	98.08621
30350.00000	98.22515	1857.75605	98.22515
30400.00000	98.28800	1855.74918	98.28800
30450.00000	97.99051	1856.19063	97.99051
30500.00000	98.11515	1855.30210	98.11515
30550.00000	98.11961	1857.29353	98.11961
30600.00000	98.26691	1858.40127	98.26691
30650.00000	98.48939	1858.78573	98.48939
30700.00000	98.65829	1858.48708	98.65829
30750.00000	98.53157	1860.65139	98.53157
30800.00000	98.81883	1861.44343	98.81883
30850.00000	99.20059	1863.11450	99.20059
30900.00000	99.24617	1865.06934	99.24617
30950.00000	99.77821	1864.84044	99.77821
31000.00000	100.21417	1864.58045	100.21417
31050.00000	100.70350	1866.38091	100.70350
31100.00000	101.35411	1866.85916	101.35411
31150.00000	101.50836	1867.31798	101.50836
31200.00000	102.49849	1866.80591	102.49849
31250.00000	102.93131	1866.00268	102.93131
31300.00000	103.55639	1864.76357	103.55639
31350.00000	104.28990	1863.52602	104.28990
31400.00000	104.72254	1861.06814	104.72254
31450.00000	105.45232	1859.42280	105.45232
31500.00000	105.98175	1855.78646	105.98175
31550.00000	106.55562	1853.45954	106.55562
31600.00000	107.33962	1849.57099	107.33962
31650.00000	107.81145	1846.25125	107.81145
31700.00000	108.30931	1843.03168	108.30931
31750.00000	108.88550	1840.38855	108.88550
31800.00000	109.29801	1835.35494	109.29801
31850.00000	109.73529	1830.48269	109.73529
31900.00000	109.98289	1826.98893	109.98289
31950.00000	110.40443	1822.39180	110.40443
32000.00000	110.78645	1817.75916	110.78645
32050.00000	111.08874	1813.65623	111.08874
32100.00000	111.34334	1808.52150	111.34334
32150.00000	111.62114	1804.95026	111.62114
32200.00000	111.92864	1800.05194	111.92864
32250.00000	112.13621	1794.80436	112.13621
32300.00000	112.30539	1790.55685	112.30539
32350.00000	112.42502	1786.83587	112.42502
32400.00000	112.64079	1782.28293	112.64079
32450.00000	112.72790	1777.33560	112.72790
32500.00000	112.96561	1773.50865	112.96561
32550.00000	113.17226	1767.89649	113.17226
32600.00000	113.24983	1764.00534	113.24983
32650.00000	113.42918	1759.23729	113.42918
32700.00000	113.35648	1753.93460	113.35648
32750.00000	113.43115	1749.31753	113.43115
32800.00000	113.62790	1745.24955	113.62790
32850.00000	113.71949	1740.39962	113.71949
32900.00000	113.60529	1734.74070	113.60529
32950.00000	113.54776	1729.55206	113.54776
33000.00000	113.48731	1726.85158	113.48731
33050.00000	113.37468	1720.58280	113.37468
33100.00000	113.41271	1716.51693	113.41271
33150.00000	113.31217	1712.04598	113.31217
33200.00000	113.28548	1708.57877	113.28548
33250.00000	113.05304	1704.26362	113.05304
33300.00000	112.87176	1699.08784	112.87176
33350.00000	112.62995	1694.76564	112.62995
33400.00000	112.45910	1691.73712	112.45910
33450.00000	112.32168	1686.80675	112.32168
33500.00000	112.22349	1684.80288	112.22349
33550.00000	111.87933	1679.45073	111.87933
33600.00000	111.83846	1676.19584	111.83846
33650.00000	111.54272	1672.17500	111.54272
33700.00000	111.26027	1669.44547	111.26027
33750.00000	110.99261	1666.01177	110.99261
33800.00000	110.84400	1662.70160	110.84400
33850.00000	110.28729	1659.76229	110.28729
33900.00000	110.27343	1656.75155	110.27343
33950.00000	109.98587	1654.67797	109.98587
34000.00000	109.67841	1652.22036	109.67841
34050.00000	109.37312	1649.05490	109.37312
34100.00000	109.08078	1648.02084	109.08078
34150.00000	108.81767	1645.00685	108.81767
34200.00000	108.60989	1644.36578	108.60989
34250.00000	108.39847	1641.97614	108.39847
34300.00000	108.20139	1639.99739	108.20139
34350.00000	108.08942	1638.27499	108.08942
34400.00000	107.56942	1637.73318	107.56942
34450.00000	107.44215	1634.15171	107.44215
34500.00000	107.27391	1634.04898	107.27391
34550.00000	107.19735	1633.30100	107.19735
34600.00000	106.74364	1630.22141	106.74364
34650.00000	106.91786	1632.89098	106.91786
34700.00000	106.38268	1632.93140	106.38268
34750.00000	106.59081	1626.93932	106.59081
34800.00000	106.53037	1629.68999	106.53037
34850.00000	106.43905	1630.76287	106.43905
34900.00000	106.66481	1627.81882	106.66481
34950.00000	106.44907	1627.32290	106.44907
35000.00000	106.53212	1626.69913	106.53212
35050.00000	106.73787	1626.70787	106.73787
35100.00000	106.68248	1625.74701	106.68248
35150.00000	106.42788	1625.28227	106.42788
35200.00000	106.91270	1623.56449	106.91270
35250.00000	106.88188	1621.72502	106.88188
35300.00000	106.95273	1619.53066	106.95273
35350.00000	107.17730	1619.90918	107.17730
35400.00000	107.28517	1617.10278	107.28517
35450.00000	107.34104	1617.09381	107.34104
35500.00000	107.07415	1615.67748	107.07415
35550.00000	107.53995	1615.25494	107.53995
35600.00000	107.52050	1612.10593	107.52050
35650.00000	107.64251	1610.77530	107.64251
35700.00000	107.83151	1610.39884	107.83151
35750.00000	107.76982	1609.85012	107.76982
35800.00000	108.08844	1607.76718	108.08844
35850.00000	108.26342	1604.66162	108.26342
35900.00000	108.36937	1602.84759	108.36937
35950.00000	108.67542	1600.45522	108.67542
36000.00000	108.69024	1601.18577	108.69024
36050.00000	109.17024	1599.79725	109.17024
36100.00000	109.31689	1595.46783	109.31689
36150.00000	109.18588	1593.09178	109.18588
36200.00000	109.28040	1591.30016	109.28040
36250.00000	109.20744	1588.64424	109.20744
36300.00000	109.19819	1588.18977	109.19819
36350.00000	109.57371	1586.47585	109.57371
36400.00000	109.81387	1584.57251	109.81387
36450.00000	109.62928	1580.94709	109.62928
36500.00000	110.01488	1578.37386	110.01488
36550.00000	109.74276	1575.17600	109.74276
36600.00000	109.98654	1573.91205	109.98654
36650.00000	110.02627	1571.83728	110.02627
36700.00000	110.31113	1568.85907	110.31113
36750.00000	110.49240	1566.12869	110.49240
36800.00000	110.37391	1564.61320	110.37391
36850.00000	110.29718	1562.17726	110.29718
36900.00000	110.76094	1560.03275	110.76094
36950.00000	110.59609	1557.05364	110.59609
37000.00000	110.63151	1554.77693	110.63151
37050.00000	110.58723	1553.24428	110.58723
37100.00000	110.77227	1549.14339	110.77227
37150.00000	110.94029	1547.62358	110.94029
37200.00000	111.14284	1545.54515	111.14284
37250.00000	110.82728	1542.04984	110.82728
37300.00000	111.07960	1540.85850	111.07960
37350.00000	111.54029	1538.13058	111.54029
37400.00000	111.18849	1536.82701	111.18849
37450.00000	111.30480	1536.75553	111.30480
37500.00000	112.01817	1533.42353	112.01817
37550.00000	111.93312	1529.88278	111.93312
37600.00000	111.99088	1527.89543	111.99088
37650.00000	112.13580	1526.04213	112.13580
37700.00000	112.54679	1522.52701	112.54679
37750.00000	112.60828	1521.55739	112.60828
37800.00000	112.65761	1517.78661	112.65761
37850.00000	112.79637	1516.34837	112.79637
37900.00000	113.22606	1512.57188	113.22606
37950.00000	113.40944	1511.27923	113.40944
38000.00000	113.62863	1507.65566	113.62863
38050.00000	113.78634	1504.82718	113.78634
38100.00000	114.31374	1501.56674	114.31374
38150.00000	114.27653	1497.76569	114.27653
38200.00000	114.76431	1494.59967	114.76431
38250.00000	114.96683	1491.92742	114.96683
38300.00000	115.35674	1487.96724	115.35674
38350.00000	115.62253	1484.44297	115.62253
38400.00000	115.77199	1479.78489	115.77199
38450.00000	116.01952	1476.08536	116.01952
38500.00000	116.38449	1471.98426	116.38449
38550.00000	116.59640	1468.44989	116.59640
38600.00000	116.93789	1463.87921	116.93789
38650.00000	117.16378	1459.28652	117.16378
38700.00000	117.30963	1454.43486	117.30963
38750.00000	117.54972	1449.84899	117.54972
38800.00000	117.75607	1445.21894	117.75607
38850.00000	117.92600	1439.53110	117.92600
38900.00000	118.10077	1435.36526	118.10077
38950.00000	118.23236	1429.71105	118.23236
39000.00000	118.34604	1424.40995	118.34604
39050.00000	118.47090	1419.34863	118.47090
39100.00000	118.45386	1414.11302	118.45386
39150.00000	118.45531	1408.32207	118.45531
39200.00000	118.41383	1403.35869	118.41383
39250.00000	118.37853	1398.36083	118.37853
39300.00000	118.34276	1392.56524	118.34276
39350.00000	118.18986	1387.85107	118.18986
39400.00000	118.04328	1382.29755	118.04328
39450.00000	117.84879	1377.62769	117.84879
39500.00000	117.73613	1372.32137	117.73613
39550.00000	117.46210	1367.06635	117.46210
39600.00000	117.12304	1362.51737	117.12304
39650.00000	116.91818	1358.82921	116.91818
39700.00000	116.57660	1354.41583	116.57660
39750.00000	116.33796	1349.97342	116.33796
39800.00000	116.05234	1346.12031	116.05234
39850.00000	115.69379	1342.20487	115.69379
39900.00000	115.46481	1338.83354	115.46481
39950.00000	115.09055	1335.54484	115.09055
40000.00000	114.56208	1333.41576	114.56208
40050.00000	114.36485	1329.20874	114.36485
40100.00000	114.10146	1326.43809	114.10146
40150.00000	113.71458	1323.17472	113.71458
40200.00000	113.43900	1320.36673	113.43900
40250.00000	113.15114	1317.90157	113.15114
40300.00000	112.85748	1316.16113	112.85748
40350.00000	112.41098	1314.11845	112.41098
40400.00000	111.99975	1311.61692	111.99975
40450.00000	111.76627	1309.70791	111.76627
40500.00000	111.57037	1308.85188	111.57037
40550.00000	111.27423	1306.10103	111.27423
40600.00000	110.94813	1304.92033	110.94813
40650.00000	110.63890	1303.98557	110.63890
40700.00000	110.28257	1302.88277	110.28257
40750.00000	110.31557	1302.55358	110.31557
40800.00000	109.97831	1300.49867	109.97831
40850.00000	109.72811	1300.35563	109.72811
40900.00000	109.45272	1298.76650	109.45272
40950.00000	109.14582	1298.31368	109.14582
41000.00000	108.95528	1298.41499	108.95528
41050.00000	108.96666	1297.54450	108.96666
41100.00000	108.97211	1296.83517	108.97211
41150.00000	108.86543	1297.73373	108.86543
41200.00000	108.91789	1296.99022	108.91789
41250.00000	108.63635	1294.43034	108.63635
41300.00000	108.51479	1295.33435	108.51479
41350.00000	108.58616	1295.71039	108.58616
41400.00000	108.46689	1290.61342	108.46689
41450.00000	108.66005	1293.12618	108.66005
41500.00000	108.46572	1292.94798	108.46572
41550.00000	108.38947	1294.21136	108.38947
41600.00000	108.12085	1291.15752	108.12085
41650.00000	108.63210	1289.53917	108.63210
41700.00000	108.61043	1288.96883	108.61043
41750.00000	108.67535	1293.56441	108.67535
41800.00000	107.66201	1287.59308	107.66201
41850.00000	108.04793	1287.50214	108.04793
41900.00000	107.71457	1286.05255	107.71457
41950.00000	108.91054	1290.75414	108.91054
42000.00000	107.95953	1283.05238	107.95953
42050.00000	107.10122	1282.39841	107.10122
42100.00000	107.77214	1280.15836	107.77214
42150.00000	107.40448	1276.21361	107.40448
42200.00000	107.24332	1282.47665	107.24332
42250.00000	107.41439	1279.82476	107.41439
42300.00000	106.51393	1272.96309	106.51393
42350.00000	106.99120	1271.96724	106.99120
42400.00000	107.03582	1275.00905	107.03582
42450.00000	107.24439	1266.04921	107.24439
42500.00000	106.53194	1267.75889	106.53194
42550.00000	107.46077	1278.01761	107.46077
42600.00000	106.84890	1266.80540	106.84890
42650.00000	106.54459	1267.13370	106.54459
42700.00000	106.31487	1262.03471	106.31487
42750.00000	107.21736	1262.07263	107.21736
42800.00000	106.67222	1253.83850	106.67222
42850.00000	106.22150	1254.85727	106.22150
42900.00000	107.71881	1257.03369	107.71881
42950.00000	106.88958	1251.36390	106.88958
43000.00000	107.44045	1240.82126	107.44045
43050.00000	106.84836	1240.22026	106.84836
43100.00000	107.71758	1240.89615	107.71758
43150.00000	106.98785	1234.91842	106.98785
43200.00000	107.01758	1233.30471	107.01758
43250.00000	107.48734	1231.84860	107.48734
43300.00000	107.57681	1229.82253	107.57681
43350.00000	108.48541	1224.30440	108.48541
43400.00000	107.97116	1220.53220	107.97116
43450.00000	108.96141	1218.75736	108.96141
43500.00000	107.79156	1210.93469	107.79156
43550.00000	108.49066	1208.51422	108.49066
43600.00000	108.13626	1206.24801	108.13626
43650.00000	108.88968	1197.79518	108.88968
43700.00000	108.45370	1198.70048	108.45370
43750.00000	108.32052	1195.56532	108.32052
43800.00000	108.82031	1189.74591	108.82031
43850.00000	109.53471	1184.23454	109.53471
43900.00000	109.73116	1182.63834	109.73116
43950.00000	109.72093	1176.18297	109.72093
44000.00000	109.33223	1172.42395	109.33223
44050.00000	109.71817	1167.81460	109.71817
44100.00000	109.90593	1157.98011	109.90593
44150.00000	109.62342	1159.18140	109.62342
44200.00000	109.69315	1156.24810	109.69315
44250.00000	110.09885	1150.32024	110.09885
44300.00000	110.17833	1141.93173	110.17833
44350.00000	109.19779	1137.18951	109.19779
44400.00000	109.95853	1134.65494	109.95853
44450.00000	110.03489	1132.13052	110.03489
44500.00000	109.58631	1127.44077	109.58631
44550.00000	110.85925	1118.48990	110.85925
44600.00000	109.55901	1119.50420	109.55901
44650.00000	109.31923	1110.58938	109.31923
44700.00000	109.16952	1107.00381	109.16952
44750.00000	109.15894	1105.88900	109.15894
44800.00000	109.82363	1099.56301	109.82363
44850.00000	109.34677	1092.73753	109.34677
44900.00000	108.39739	1091.92251	108.39739
44950.00000	108.69247	1085.71842	108.69247
45000.00000	108.53567	1077.15794	108.53567
45050.00000	107.43369	1082.59396	107.43369
45100.00000	107.50139	1074.91538	107.50139
45150.00000	107.38880	1065.23412	107.38880
45200.00000	106.83436	1067.30347	106.83436
45250.00000	106.73835	1063.10064	106.73835
45300.00000	106.29781	1060.60423	106.29781
45350.00000	105.49915	1052.25897	105.49915
45400.00000	105.54305	1052.84025	105.54305
45450.00000	105.40257	1046.90169	105.40257
45500.00000	103.72268	1040.11799	103.72268
45550.00000	103.67035	1045.70019	103.67035
45600.00000	104.45736	1036.81971	104.45736
45650.00000	102.77825	1031.41663	102.77825
45700.00000	102.82579	1034.47881	102.82579
45750.00000	103.10340	1036.23481	103.10340
45800.00000	101.90603	1029.49944	101.90603
45850.00000	101.71531	1028.08805	101.71531
45900.00000	101.50995	1027.40997	101.50995
45950.00000	101.04556	1029.69519	101.04556
46000.00000	99.59052	1012.99187	99.59052
46050.00000	99.89865	1015.73674	99.89865
46100.00000	98.62599	1020.76109	98.62599
46150.00000	98.77491	1021.58707	98.77491
46200.00000	96.12706	1012.14207	96.12706
46250.00000	97.63301	1011.62747	97.63301
46300.00000	96.97700	1013.77290	96.97700
46350.00000	97.86975	1008.89916	97.86975
46400.00000	96.42629	1007.90359	96.42629
46450.00000	94.58601	1010.49290	94.58601
46500.00000	95.53848	1010.56271	95.53848
46550.00000	95.34624	1015.05908	95.34624
46600.00000	96.25184	1015.85142	96.25184
46650.00000	92.92348	1011.84268	92.92348
46700.00000	92.87810	1022.22187	92.87810
46750.00000	93.83979	1029.81316	93.83979
46800.00000	92.27577	1016.55793	92.27577
46850.00000	93.01749	674.25023	93.01749
46900.00000	93.19203	665.93647	93.19203
46950.00000	94.58193	664.80315	94.58193
47000.00000	94.00717	672.20383	94.00717
47050.00000	95.44935	663.34367	95.44935
47100.00000	94.26792	663.25378	94.26792
47150.00000	95.29668	662.59357	95.29668
47200.00000	94.01157	664.42055	94.01157
47250.00000	95.85527	664.03099	95.85527
47300.00000	95.21398	650.77726	95.21398
47350.00000	95.22203	300.94255	95.22203
47400.00000	94.26669	300.03926	94.26669
47450.00000	95.40379	300.64043	95.40379
47500.00000	94.08111	286.23130	94.08111
47550.00000	93.03206	-62.44719	93.03206
47600.00000	93.87353	-66.29828	93.87353
47650.00000	95.36998	-73.07133	95.36998
47700.00000	94.77714	-69.92351	94.77714
47750.00000	92.26443	-69.56115	92.26443
47800.00000	93.17632	-81.54960	93.17632
47850.00000	93.50237	-436.42344	93.50237
47900.00000	93.25586	-787.33945	93.25586
47950.00000	92.26403	-786.15915	92.26403
48000.00000	93.55968	-784.00939	93.55968
48050.00000	94.02329	-794.66116	94.02329
48100.00000	92.62924	-796.62329	92.62924
48150.00000	92.95373	-1151.06531	92.95373
48200.00000	93.75146	-1146.83688	93.75146
48250.00000	93.08790	-1158.80805	93.08790
48300.00000	92.92440	-1154.13849	92.92440
48350.00000	93.18208	-1162.62609	93.18208
48400.00000	94.08106	-1505.28662	94.08106
48450.00000	95.22983	-1513.78074	95.22983
48500.00000	93.51096	-1515.73334	93.51096
48550.00000	92.51871	-1520.63443	92.51871
48600.00000	94.41627	-1874.93461	94.41627
48650.00000	94.83693	-1878.48564	94.83693
48700.00000	95.11814	-1884.87803	95.11814
48750.00000	93.51176	-2238.65440	93.51176
48800.00000	94.62831	-2246.98917	94.62831
48850.00000	94.32048	-2248.36482	94.32048
48900.00000	93.58468	-2604.99307	93.58468
48950.00000	93.25132	-2618.15702	93.25132
49000.00000	95.09564	-2619.41733	95.09564
49050.00000	94.61006	-2619.95535	94.61006
49100.00000	93.71263	-2982.19037	93.71263
49150.00000	94.17572	-3339.98632	94.17572
49200.00000	93.82022	-3347.01509	93.82022
49250.00000	94.20942	-3694.36735	94.20942
49300.00000	94.22030	-3348.54419	94.22030
49350.00000	91.57819	-3330.98951	91.57819
49400.00000	92.79547	-2987.53197	92.79547
49450.00000	91.82912	-2630.11544	91.82912
49500.00000	91.27431	-2280.77053	91.27431
49550.00000	92.49038	-1920.66260	92.49038
49600.00000	91.88777	-1905.15922	91.88777
49650.00000	92.44560	-1902.18136	92.44560
49700.00000	92.27628	-1571.37005	92.27628
49750.00000	94.15457	-1558.39620	94.15457
49800.00000	90.21873	-1543.80908	90.21873
49850.00000	91.42056	-1544.71330	91.42056
49900.00000	91.44569	-1193.28558	91.44569
49950.00000	93.27039	-843.43245	93.27039
