---ACOUSTIC CALIBRATION---
Filename: C:\Data\AZH DATA\AZH61\RightSecondary.calib
Date: 8/27/2019 3:31:47 PM
Format: 4
Probe Tube Correction File: C:\Data\Probe Tube Calibrations\50_ProbeTube.calib
Experiment VIs: 850
EPL_CFTS.exe V12.0.1 (2012)
DAQmx V9.6

Attenuation (dB): 40.000000
Min Freq (Hz): 50.000000
Max Freq (Hz): 49950.000000
Freq Step (Hz): 50.000000
Sample Rate (Hz): 100000.000000
[Smoothing]
Method=None
MA.Iterations=0
MA.Length=0
Loess.Length=0
Loess.Type=Linear
Loess.Robust=FALSE


Freq(Hz)	Mag(dB)	Phase(deg)	Unsmoothed(dB)

50.00000	97.45764	581.54296	97.45764
100.00000	74.77364	574.95581	74.77364
150.00000	73.77191	543.07023	73.77191
200.00000	75.49554	556.20367	75.49554
250.00000	81.31842	562.21426	81.31842
300.00000	82.31393	559.82291	82.31393
350.00000	68.75543	578.32576	68.75543
400.00000	76.97104	569.20683	76.97104
450.00000	63.52975	559.64921	63.52975
500.00000	77.40983	580.47368	77.40983
550.00000	71.36099	569.63794	71.36099
600.00000	81.38603	583.64928	81.38603
650.00000	70.83028	564.89125	70.83028
700.00000	81.96456	571.09168	81.96456
750.00000	73.95816	559.21999	73.95816
800.00000	82.52167	554.32751	82.52167
850.00000	68.86550	520.60094	68.86550
900.00000	75.52283	534.73210	75.52283
950.00000	62.01510	513.80786	62.01510
1000.00000	74.07835	588.32658	74.07835
1050.00000	56.10962	577.11186	56.10962
1100.00000	71.36537	616.66498	71.36537
1150.00000	66.63148	579.26413	66.63148
1200.00000	73.15852	652.43771	73.15852
1250.00000	69.28198	568.10187	69.28198
1300.00000	72.11837	637.59378	72.11837
1350.00000	70.86385	552.84498	70.86385
1400.00000	71.21250	687.57615	71.21250
1450.00000	71.09364	543.83284	71.09364
1500.00000	65.59181	598.75368	65.59181
1550.00000	70.97163	533.91224	70.97163
1600.00000	73.71726	435.24149	73.71726
1650.00000	74.73371	531.65235	74.73371
1700.00000	70.89840	424.97304	70.89840
1750.00000	71.14280	509.77649	71.14280
1800.00000	75.09958	455.59868	75.09958
1850.00000	70.05264	498.88167	70.05264
1900.00000	74.35713	476.30975	74.35713
1950.00000	67.80371	486.74981	67.80371
2000.00000	77.53127	491.41586	77.53127
2050.00000	66.90660	462.92019	66.90660
2100.00000	76.03104	478.50488	76.03104
2150.00000	69.23930	435.79838	69.23930
2200.00000	70.52760	494.17898	70.52760
2250.00000	69.01307	428.10425	69.01307
2300.00000	69.91826	469.28644	69.91826
2350.00000	70.56983	408.70129	70.56983
2400.00000	60.61412	378.08139	60.61412
2450.00000	71.30243	406.74081	71.30243
2500.00000	59.20583	429.30344	59.20583
2550.00000	70.79170	420.45128	70.79170
2600.00000	68.73478	382.56894	68.73478
2650.00000	69.64778	424.81882	69.64778
2700.00000	61.44668	394.91095	61.44668
2750.00000	68.09626	423.70596	68.09626
2800.00000	66.30699	395.77732	66.30699
2850.00000	66.43174	420.18270	66.43174
2900.00000	64.45925	385.60056	64.45925
2950.00000	48.45382	270.47327	48.45382
3000.00000	59.40866	458.51394	59.40866
3050.00000	51.67211	589.74041	51.67211
3100.00000	54.84231	509.53174	54.84231
3150.00000	60.94284	622.44122	60.94284
3200.00000	45.14939	602.77237	45.14939
3250.00000	48.63115	555.22807	48.63115
3300.00000	57.98041	725.62337	57.98041
3350.00000	62.50417	798.67405	62.50417
3400.00000	60.09683	867.62542	60.09683
3450.00000	60.85692	782.83771	60.85692
3500.00000	66.14306	842.90509	66.14306
3550.00000	66.25866	833.01095	66.25866
3600.00000	67.64330	865.94192	67.64330
3650.00000	59.66595	861.81470	59.66595
3700.00000	69.70581	834.10624	69.70581
3750.00000	69.65636	848.47734	69.65636
3800.00000	72.90266	819.60410	72.90266
3850.00000	71.54204	803.28735	71.54204
3900.00000	73.03261	799.96682	73.03261
3950.00000	75.02622	788.06494	75.02622
4000.00000	74.03863	782.23579	74.03863
4050.00000	76.97492	780.16863	76.97492
4100.00000	77.01325	771.99837	77.01325
4150.00000	78.24967	766.31924	78.24967
4200.00000	79.10964	755.55993	79.10964
4250.00000	79.47139	751.18635	79.47139
4300.00000	79.75384	734.00979	79.75384
4350.00000	78.96192	724.33436	78.96192
4400.00000	78.89694	720.47681	78.89694
4450.00000	78.85720	702.81600	78.85720
4500.00000	78.02782	694.89499	78.02782
4550.00000	77.55270	684.51029	77.55270
4600.00000	78.01548	670.87784	78.01548
4650.00000	78.71617	672.15256	78.71617
4700.00000	76.87214	663.51656	76.87214
4750.00000	76.52169	658.80856	76.52169
4800.00000	76.14393	648.29044	76.14393
4850.00000	74.61778	641.92893	74.61778
4900.00000	72.94991	632.55686	72.94991
4950.00000	72.46283	636.55595	72.46283
5000.00000	72.68681	622.38328	72.68681
5050.00000	69.79021	639.93098	69.79021
5100.00000	67.53312	638.43144	67.53312
5150.00000	65.92572	653.93982	65.92572
5200.00000	66.07874	645.54234	66.07874
5250.00000	69.68782	660.53155	69.68782
5300.00000	70.30419	647.23875	70.30419
5350.00000	71.64560	637.45667	71.64560
5400.00000	70.16305	629.90721	70.16305
5450.00000	70.61851	628.86459	70.61851
5500.00000	70.70669	622.02284	70.70669
5550.00000	70.49810	629.74407	70.49810
5600.00000	66.42949	626.28223	66.42949
5650.00000	71.99733	593.69148	71.99733
5700.00000	69.09733	631.52104	69.09733
5750.00000	69.70363	623.16361	69.70363
5800.00000	67.70185	619.24773	67.70185
5850.00000	69.92429	603.79427	69.92429
5900.00000	68.21463	599.21956	68.21463
5950.00000	67.09795	617.65311	67.09795
6000.00000	65.83520	638.23008	65.83520
6050.00000	69.59315	597.45247	69.59315
6100.00000	64.61223	589.75926	64.61223
6150.00000	68.85397	602.75811	68.85397
6200.00000	68.25531	611.16026	68.25531
6250.00000	68.97745	580.91778	68.97745
6300.00000	69.83227	592.32640	69.83227
6350.00000	65.19950	603.81047	65.19950
6400.00000	67.98627	591.80581	67.98627
6450.00000	69.23754	579.63626	69.23754
6500.00000	66.98136	578.47474	66.98136
6550.00000	66.94687	573.66721	66.94687
6600.00000	69.85565	586.82248	69.85565
6650.00000	65.06706	577.43462	65.06706
6700.00000	68.63760	575.74842	68.63760
6750.00000	65.11036	580.73716	65.11036
6800.00000	67.77826	575.80174	67.77826
6850.00000	67.23502	565.36366	67.23502
6900.00000	65.63815	563.08524	65.63815
6950.00000	68.29939	565.01287	68.29939
7000.00000	67.72136	556.89260	67.72136
7050.00000	65.97848	558.28945	65.97848
7100.00000	66.84605	555.17392	66.84605
7150.00000	69.32381	546.08844	69.32381
7200.00000	67.86479	549.26640	67.86479
7250.00000	69.61155	533.09659	69.61155
7300.00000	67.40241	531.29915	67.40241
7350.00000	67.15945	533.92316	67.15945
7400.00000	67.88150	518.36464	67.88150
7450.00000	65.29470	533.48269	65.29470
7500.00000	66.44404	538.51578	66.44404
7550.00000	68.26727	533.59472	68.26727
7600.00000	61.76190	529.07442	61.76190
7650.00000	66.81698	515.23703	66.81698
7700.00000	67.08081	512.05662	67.08081
7750.00000	67.35764	500.78984	67.35764
7800.00000	67.86758	492.39027	67.86758
7850.00000	66.39173	500.89154	66.39173
7900.00000	65.38724	501.28140	65.38724
7950.00000	65.47861	493.82243	65.47861
8000.00000	65.62011	487.34315	65.62011
8050.00000	63.32955	480.38368	63.32955
8100.00000	65.64163	479.84118	65.64163
8150.00000	63.94934	484.35725	63.94934
8200.00000	63.45547	472.58133	63.45547
8250.00000	63.43049	477.49709	63.43049
8300.00000	62.62690	456.21530	62.62690
8350.00000	63.35009	457.02760	63.35009
8400.00000	64.32376	476.48578	64.32376
8450.00000	63.14487	474.94979	63.14487
8500.00000	61.73515	461.25581	61.73515
8550.00000	61.59113	448.94128	61.59113
8600.00000	60.81409	450.75401	60.81409
8650.00000	62.69195	450.67553	62.69195
8700.00000	59.90504	443.82986	59.90504
8750.00000	60.73587	459.48940	60.73587
8800.00000	58.75920	454.98089	58.75920
8850.00000	58.29276	438.74475	58.29276
8900.00000	61.21254	433.96131	61.21254
8950.00000	61.56822	435.30794	61.56822
9000.00000	59.49865	448.28384	59.49865
9050.00000	56.94286	469.13194	56.94286
9100.00000	51.41683	428.93350	51.41683
9150.00000	57.79295	424.30281	57.79295
9200.00000	61.31520	442.86982	61.31520
9250.00000	57.47379	427.73692	57.47379
9300.00000	54.63018	437.87366	54.63018
9350.00000	52.79230	416.41389	52.79230
9400.00000	58.30070	422.60417	58.30070
9450.00000	54.30649	429.05179	54.30649
9500.00000	58.74914	449.13777	58.74914
9550.00000	53.80928	442.40836	53.80928
9600.00000	53.36253	435.28891	53.36253
9650.00000	56.67497	411.36033	56.67497
9700.00000	56.91022	437.84131	56.91022
9750.00000	57.48890	431.82671	57.48890
9800.00000	52.86758	429.95587	52.86758
9850.00000	53.03213	439.70252	53.03213
9900.00000	55.02267	416.13833	55.02267
9950.00000	56.87217	425.19982	56.87217
10000.00000	50.52650	422.60743	50.52650
10050.00000	53.46770	424.22610	53.46770
10100.00000	53.76131	406.32278	53.76131
10150.00000	56.45202	416.38698	56.45202
10200.00000	56.54492	416.06076	56.54492
10250.00000	51.84673	411.18495	51.84673
10300.00000	53.10782	421.18992	53.10782
10350.00000	52.84729	393.34246	52.84729
10400.00000	55.76256	405.47934	55.76256
10450.00000	54.72709	405.98300	54.72709
10500.00000	53.56010	399.78281	53.56010
10550.00000	53.25803	381.68986	53.25803
10600.00000	54.80082	402.01000	54.80082
10650.00000	55.39506	404.51280	55.39506
10700.00000	55.20931	404.45172	55.20931
10750.00000	52.10527	390.44625	52.10527
10800.00000	53.75162	383.71477	53.75162
10850.00000	53.15943	378.73521	53.15943
10900.00000	54.71796	392.29280	54.71796
10950.00000	52.91308	392.25963	52.91308
11000.00000	51.74833	374.30039	51.74833
11050.00000	53.82872	380.78072	53.82872
11100.00000	54.17405	376.17914	54.17405
11150.00000	52.48500	392.06361	52.48500
11200.00000	49.19590	374.39241	49.19590
11250.00000	53.00772	370.37963	53.00772
11300.00000	52.82077	378.42843	52.82077
11350.00000	52.31746	381.30286	52.31746
11400.00000	46.94610	361.82082	46.94610
11450.00000	50.60722	361.90521	50.60722
11500.00000	49.62608	370.26743	49.62608
11550.00000	51.60448	365.37087	51.60448
11600.00000	47.83143	368.39827	47.83143
11650.00000	50.64699	357.27820	50.64699
11700.00000	50.03921	367.00835	50.03921
11750.00000	50.31769	378.85641	50.31769
11800.00000	50.28409	364.14717	50.28409
11850.00000	50.53575	346.90065	50.53575
11900.00000	51.90892	363.47581	51.90892
11950.00000	47.73425	351.78541	47.73425
12000.00000	48.72356	371.40731	48.72356
12050.00000	50.40469	357.13872	50.40469
12100.00000	50.99674	337.66825	50.99674
12150.00000	48.71327	358.97615	48.71327
12200.00000	47.78004	362.74467	47.78004
12250.00000	49.33530	325.19900	49.33530
12300.00000	49.85447	355.96352	49.85447
12350.00000	46.43190	375.31063	46.43190
12400.00000	48.07638	353.02839	48.07638
12450.00000	49.22646	338.85268	49.22646
12500.00000	50.09553	347.03643	50.09553
12550.00000	48.20649	358.68993	48.20649
12600.00000	45.52537	331.99860	45.52537
12650.00000	51.12922	322.76256	51.12922
12700.00000	52.97370	346.52521	52.97370
12750.00000	49.56149	319.90106	49.56149
12800.00000	47.91292	298.81155	47.91292
12850.00000	15.91452	290.03402	15.91452
12900.00000	47.06253	318.53542	47.06253
12950.00000	34.85980	345.43357	34.85980
13000.00000	48.37222	261.71382	48.37222
13050.00000	43.03383	317.73129	43.03383
13100.00000	46.65942	359.77537	46.65942
13150.00000	44.46772	342.75489	44.46772
13200.00000	47.05988	612.02146	47.05988
13250.00000	43.81407	675.45363	43.81407
13300.00000	43.70714	749.96728	43.70714
13350.00000	45.15786	867.86630	45.15786
13400.00000	46.14198	1024.43410	46.14198
13450.00000	48.43066	1086.66569	48.43066
13500.00000	46.44089	1118.28196	46.44089
13550.00000	48.39311	1360.54253	48.39311
13600.00000	39.95541	1403.26879	39.95541
13650.00000	49.70660	1484.71804	49.70660
13700.00000	42.39516	1514.91890	42.39516
13750.00000	43.79127	1742.57114	43.79127
13800.00000	51.80642	1792.50244	51.80642
13850.00000	47.74155	1808.79183	47.74155
13900.00000	45.37863	2057.47807	45.37863
13950.00000	51.86708	2137.41865	51.86708
14000.00000	36.69474	2224.10487	36.69474
14050.00000	48.69066	2249.85342	48.69066
14100.00000	49.57173	2464.47950	49.57173
14150.00000	51.79696	2472.32519	51.79696
14200.00000	42.03950	2573.78374	42.03950
14250.00000	47.10439	2810.89092	47.10439
14300.00000	45.72857	2848.80719	45.72857
14350.00000	52.16113	2900.28390	52.16113
14400.00000	42.54744	2869.92685	42.54744
14450.00000	44.29380	3146.50718	44.29380
14500.00000	49.62248	3228.43355	49.62248
14550.00000	43.88425	3302.88178	43.88425
14600.00000	41.30410	3273.39185	41.30410
14650.00000	45.55355	3211.92820	45.55355
14700.00000	52.62023	3266.22674	52.62023
14750.00000	34.11148	3543.70624	34.11148
14800.00000	42.67764	3543.89498	42.67764
14850.00000	56.03621	3587.96816	56.03621
14900.00000	49.65218	3630.91590	49.65218
14950.00000	48.23960	3583.79440	48.23960
15000.00000	48.48934	3525.41381	48.48934
15050.00000	51.26234	3675.21677	51.26234
15100.00000	47.96245	3944.29929	47.96245
15150.00000	52.61451	3922.86731	52.61451
15200.00000	50.51491	3985.52543	50.51491
15250.00000	42.09971	4079.89322	42.09971
15300.00000	49.17911	4270.35192	49.17911
15350.00000	51.87977	4357.00999	51.87977
15400.00000	53.17875	4421.65512	53.17875
15450.00000	48.12036	4390.55414	48.12036
15500.00000	55.08701	4329.19397	55.08701
15550.00000	51.01482	4443.42945	51.01482
15600.00000	53.33062	4579.09888	53.33062
15650.00000	46.20577	4691.15835	46.20577
15700.00000	57.69373	4726.14446	57.69373
15750.00000	48.79464	4996.97663	48.79464
15800.00000	57.33687	5021.44085	57.33687
15850.00000	53.21601	5089.12407	53.21601
15900.00000	42.57560	5229.32951	42.57560
15950.00000	56.06051	5389.60417	56.06051
16000.00000	55.73529	5391.63392	55.73529
16050.00000	49.96982	5420.73698	49.96982
16100.00000	55.74679	5385.10705	55.74679
16150.00000	55.05882	5387.46889	55.05882
16200.00000	54.43113	5352.35746	54.43113
16250.00000	59.00330	5376.25274	59.00330
16300.00000	53.21320	5431.81089	53.21320
16350.00000	58.13027	5377.78745	58.13027
16400.00000	55.50147	5351.93059	55.50147
16450.00000	55.02280	5395.77002	55.02280
16500.00000	55.78104	5347.67825	55.78104
16550.00000	60.85548	5339.71404	60.85548
16600.00000	61.16707	5373.07400	61.16707
16650.00000	50.40715	5633.72529	50.40715
16700.00000	60.21318	5706.20090	60.21318
16750.00000	57.39232	5704.57343	57.39232
16800.00000	57.86045	5672.88779	57.86045
16850.00000	61.32347	5690.95433	61.32347
16900.00000	56.20333	5689.65587	56.20333
16950.00000	57.66839	5660.57587	57.66839
17000.00000	58.53613	5677.91767	58.53613
17050.00000	53.11850	5721.27311	53.11850
17100.00000	58.98858	5671.31570	58.98858
17150.00000	61.88344	5690.28372	61.88344
17200.00000	58.03183	5670.26746	58.03183
17250.00000	63.15039	5657.25598	63.15039
17300.00000	59.19789	5676.38893	59.19789
17350.00000	59.51033	5660.96846	59.51033
17400.00000	55.46692	5640.79237	55.46692
17450.00000	61.03155	5679.50586	61.03155
17500.00000	55.09680	5680.85968	55.09680
17550.00000	64.64593	5655.61085	64.64593
17600.00000	60.86702	5673.72959	60.86702
17650.00000	58.90697	5637.44332	58.90697
17700.00000	64.64309	5657.38862	64.64309
17750.00000	58.66744	5655.13995	58.66744
17800.00000	61.17213	5615.19904	61.17213
17850.00000	62.08728	5643.80646	62.08728
17900.00000	59.43346	5646.63732	59.43346
17950.00000	65.45673	5614.29408	65.45673
18000.00000	61.28459	5640.39590	61.28459
18050.00000	61.31053	5631.53443	61.31053
18100.00000	64.22732	5623.04509	64.22732
18150.00000	59.26429	5623.54548	59.26429
18200.00000	62.44407	5597.87025	62.44407
18250.00000	62.50012	5651.07229	62.50012
18300.00000	58.98276	5603.52472	58.98276
18350.00000	62.96177	5601.79815	62.96177
18400.00000	58.69503	5616.97600	58.69503
18450.00000	62.32419	5578.81392	62.32419
18500.00000	64.95378	5610.86694	64.95378
18550.00000	61.69184	5602.05464	61.69184
18600.00000	62.65592	5577.17189	62.65592
18650.00000	62.36974	5586.80058	62.36974
18700.00000	61.09971	5582.30852	61.09971
18750.00000	64.17997	5572.98915	64.17997
18800.00000	61.59395	5577.50666	61.59395
18850.00000	62.79568	5560.13236	62.79568
18900.00000	62.04592	5577.22500	62.04592
18950.00000	60.95787	5570.43303	60.95787
19000.00000	59.11523	5564.35826	59.11523
19050.00000	61.84782	5584.56976	61.84782
19100.00000	60.11867	5563.40820	60.11867
19150.00000	61.70259	5552.38414	61.70259
19200.00000	63.13087	5569.33444	63.13087
19250.00000	62.92959	5545.37891	62.92959
19300.00000	64.06409	5574.38600	64.06409
19350.00000	60.77969	5554.17817	60.77969
19400.00000	62.78466	5550.82550	62.78466
19450.00000	59.79695	5546.30640	59.79695
19500.00000	63.39678	5530.20971	63.39678
19550.00000	61.42173	5544.41889	61.42173
19600.00000	61.60636	5527.59092	61.60636
19650.00000	62.90773	5539.70799	62.90773
19700.00000	58.77380	5545.33159	58.77380
19750.00000	61.13244	5517.10699	61.13244
19800.00000	60.17223	5537.54974	60.17223
19850.00000	57.06936	5527.43993	57.06936
19900.00000	62.68895	5537.79191	62.68895
19950.00000	60.92597	5530.21297	60.92597
20000.00000	61.56290	5508.85217	61.56290
20050.00000	60.35512	5536.94140	60.35512
20100.00000	60.18752	5512.20146	60.18752
20150.00000	62.00689	5517.29089	62.00689
20200.00000	58.50434	5505.98858	58.50434
20250.00000	61.57137	5500.05938	61.57137
20300.00000	58.75453	5524.95189	58.75453
20350.00000	62.12199	5498.28468	62.12199
20400.00000	60.84269	5507.89408	60.84269
20450.00000	58.91398	5478.36133	58.91398
20500.00000	58.98765	5500.27048	58.98765
20550.00000	55.61139	5491.91340	55.61139
20600.00000	60.33047	5494.54709	60.33047
20650.00000	57.18071	5492.95289	57.18071
20700.00000	58.09707	5478.48408	58.09707
20750.00000	58.80983	5498.80800	58.80983
20800.00000	58.90439	5482.42628	58.90439
20850.00000	58.69427	5487.31401	58.69427
20900.00000	57.79925	5493.79272	57.79925
20950.00000	58.29583	5481.35274	58.29583
21000.00000	57.20778	5475.93503	57.20778
21050.00000	59.71558	5478.90200	59.71558
21100.00000	59.04809	5481.14389	59.04809
21150.00000	59.19954	5477.25435	59.19954
21200.00000	58.83085	5475.92644	58.83085
21250.00000	57.68165	5482.44478	57.68165
21300.00000	59.55453	5482.50317	59.55453
21350.00000	59.42850	5479.33205	59.42850
21400.00000	61.15926	5462.01953	61.15926
21450.00000	60.39944	5461.71384	60.39944
21500.00000	58.46679	5462.38382	58.46679
21550.00000	60.93929	5478.04861	60.93929
21600.00000	61.02921	5459.28542	61.02921
21650.00000	61.08198	5461.29285	61.08198
21700.00000	59.20584	5453.44455	59.20584
21750.00000	61.35573	5459.57450	61.35573
21800.00000	60.27679	5449.49603	60.27679
21850.00000	63.75759	5442.31398	63.75759
21900.00000	57.57425	5472.30594	57.57425
21950.00000	59.35678	5779.76083	59.35678
22000.00000	62.08997	5822.15311	62.08997
22050.00000	62.15388	6139.16320	62.15388
22100.00000	62.32740	6162.16468	62.32740
22150.00000	60.79374	6146.33621	60.79374
22200.00000	63.98338	6165.17093	63.98338
22250.00000	57.37009	6500.58131	57.37009
22300.00000	63.39961	6503.09728	63.39961
22350.00000	53.01801	6541.14342	53.01801
22400.00000	61.84517	6855.56088	61.84517
22450.00000	57.76814	6886.34848	57.76814
22500.00000	63.06744	7199.77579	63.06744
22550.00000	59.64968	7228.48316	59.64968
22600.00000	61.99412	7559.08163	61.99412
22650.00000	62.21291	7571.72801	62.21291
22700.00000	60.78528	7560.85629	60.78528
22750.00000	63.04667	7576.59911	63.04667
22800.00000	59.09324	7866.03617	59.09324
22850.00000	63.74014	7935.78577	63.74014
22900.00000	60.99888	8263.90086	60.99888
22950.00000	65.06370	8270.13416	65.06370
23000.00000	56.75463	8266.07475	56.75463
23050.00000	65.18626	8267.04081	65.18626
23100.00000	58.33679	8268.80669	58.33679
23150.00000	59.64433	8614.84597	59.64433
23200.00000	64.55931	8663.05661	64.55931
23250.00000	59.48239	8947.79881	59.48239
23300.00000	60.58851	9043.22419	60.58851
23350.00000	61.15045	9365.51255	61.15045
23400.00000	65.94828	9365.29133	65.94828
23450.00000	63.65103	9670.96862	63.65103
23500.00000	65.05954	9707.21651	65.05954
23550.00000	54.64875	10029.83094	54.64875
23600.00000	66.63060	10040.61346	66.63060
23650.00000	56.66607	10362.26621	56.66607
23700.00000	68.51108	10445.70800	68.51108
23750.00000	62.90598	10754.20355	62.90598
23800.00000	64.65739	10759.20097	64.65739
23850.00000	52.14078	10954.47558	52.14078
23900.00000	66.41469	11135.19363	66.41469
23950.00000	55.40714	11149.57096	55.40714
24000.00000	67.21896	11438.80084	67.21896
24050.00000	62.94990	11558.74492	62.94990
24100.00000	64.20205	11851.89086	64.20205
24150.00000	58.68152	12005.26346	58.68152
24200.00000	67.06466	12179.47037	67.06466
24250.00000	59.70742	12260.31817	59.70742
24300.00000	56.35110	12271.76983	56.35110
24350.00000	56.55829	12580.86159	56.55829
24400.00000	68.37473	12891.19349	68.37473
24450.00000	42.63855	12993.83518	42.63855
24500.00000	68.01555	13257.42834	68.01555
24550.00000	64.19644	13283.52808	64.19644
24600.00000	70.53346	13590.59751	70.53346
24650.00000	63.07898	13858.06575	63.07898
24700.00000	67.66574	13944.38976	67.66574
24750.00000	63.15117	14061.98183	63.15117
24800.00000	66.87777	14335.36043	66.87777
24850.00000	53.58928	14426.12194	53.58928
24900.00000	74.99069	14519.33879	74.99069
24950.00000	55.88831	14732.77869	55.88831
25000.00000	69.23630	14713.98606	69.23630
25050.00000	63.15232	14662.57146	63.15232
25100.00000	66.92175	14322.76689	66.92175
25150.00000	63.30287	14109.88670	63.30287
25200.00000	67.71198	13958.60136	67.71198
25250.00000	60.59874	13631.45175	60.59874
25300.00000	65.95329	13586.34244	65.95329
25350.00000	56.43108	13382.17336	56.43108
25400.00000	66.23606	13248.88314	66.23606
25450.00000	56.56083	12919.30512	56.56083
25500.00000	57.63240	12875.56856	57.63240
25550.00000	59.79591	12752.54876	59.79591
25600.00000	63.42867	12514.55503	63.42867
25650.00000	58.23385	12361.36583	58.23385
25700.00000	66.70144	12136.72705	66.70144
25750.00000	59.33026	12017.76973	59.33026
25800.00000	63.93459	11806.79623	63.93459
25850.00000	60.06735	11741.09961	60.06735
25900.00000	65.90026	11428.57427	65.90026
25950.00000	62.80444	11352.54683	62.80444
26000.00000	66.74858	11085.36475	66.74858
26050.00000	64.16574	10977.10142	64.16574
26100.00000	62.42895	10702.31255	62.42895
26150.00000	62.81524	10642.19372	62.81524
26200.00000	38.80866	10302.33929	38.80866
26250.00000	66.77961	10239.12720	66.77961
26300.00000	62.54198	9988.98017	62.54198
26350.00000	65.70503	9922.95259	65.70503
26400.00000	50.35945	9739.98128	50.35945
26450.00000	65.66061	9602.10158	65.66061
26500.00000	59.09601	9280.49078	59.09601
26550.00000	64.55595	9219.93899	64.55595
26600.00000	65.20826	9172.41957	65.20826
26650.00000	63.52073	8886.02148	63.52073
26700.00000	67.71134	8781.01588	67.71134
26750.00000	61.50855	8569.42429	61.50855
26800.00000	57.45730	8458.53011	57.45730
26850.00000	57.22043	8235.46397	57.22043
26900.00000	63.44828	8113.03962	63.44828
26950.00000	54.83456	7857.80871	54.83456
27000.00000	64.12540	7736.16768	64.12540
27050.00000	52.97044	7706.10335	52.97044
27100.00000	65.64739	7427.08760	65.64739
27150.00000	60.74443	7346.95802	60.74443
27200.00000	60.50438	7031.88780	60.50438
27250.00000	55.33603	7023.65048	55.33603
27300.00000	52.55921	6888.83726	52.55921
27350.00000	63.43901	6632.84187	63.43901
27400.00000	60.72322	6337.01768	60.72322
27450.00000	61.93156	6330.15025	61.93156
27500.00000	60.58771	6072.57084	60.58771
27550.00000	56.97935	5945.37519	56.97935
27600.00000	61.47814	5847.73163	61.47814
27650.00000	64.35722	5636.33328	64.35722
27700.00000	58.49421	5574.63931	58.49421
27750.00000	56.51950	5584.07725	56.51950
27800.00000	63.43175	5549.77975	63.43175
27850.00000	51.78741	5370.41328	51.78741
27900.00000	61.07601	5202.00154	61.07601
27950.00000	64.20985	5095.99553	64.20985
28000.00000	61.75866	4842.87873	61.75866
28050.00000	60.53578	4631.09048	60.53578
28100.00000	60.41553	4557.69429	60.41553
28150.00000	55.93027	4464.13750	55.93027
28200.00000	50.87906	4344.02166	50.87906
28250.00000	61.28714	4086.44354	61.28714
28300.00000	56.25438	3918.92916	56.25438
28350.00000	58.91503	3752.31753	58.91503
28400.00000	59.96200	3599.18717	59.96200
28450.00000	68.03061	3437.44759	68.03061
28500.00000	66.09768	3364.16487	66.09768
28550.00000	54.05267	3151.42684	54.05267
28600.00000	62.64924	3011.67025	62.64924
28650.00000	65.62726	2896.31396	65.62726
28700.00000	56.87079	2753.07229	56.87079
28750.00000	55.63286	2605.65627	55.63286
28800.00000	67.19671	2401.38733	67.19671
28850.00000	60.53372	2281.62110	60.53372
28900.00000	53.28539	2166.53545	53.28539
28950.00000	65.39384	1968.51315	65.39384
29000.00000	59.90210	1829.51391	59.90210
29050.00000	59.06430	1773.05238	59.06430
29100.00000	60.07125	1545.87399	60.07125
29150.00000	55.02121	1378.08201	55.02121
29200.00000	58.69958	1269.98384	58.69958
29250.00000	55.35257	1128.47701	55.35257
29300.00000	59.48215	889.47897	59.48215
29350.00000	65.80593	834.97367	65.80593
29400.00000	50.37227	845.06726	50.37227
29450.00000	66.07063	837.24360	66.07063
29500.00000	53.03501	673.61969	53.03501
29550.00000	56.95838	553.06864	56.95838
29600.00000	65.48759	437.12001	65.48759
29650.00000	51.24608	413.01541	51.24608
29700.00000	60.30587	164.20892	60.30587
29750.00000	52.00743	68.32299	52.00743
29800.00000	61.60531	-249.70524	61.60531
29850.00000	60.89246	-300.96626	60.89246
29900.00000	56.54436	-597.29859	56.54436
29950.00000	57.67089	-629.64435	57.67089
30000.00000	38.48616	-744.97994	38.48616
30050.00000	57.61359	-965.96337	57.61359
30100.00000	64.77346	-992.39838	64.77346
30150.00000	57.13187	-1248.41538	57.13187
30200.00000	62.21614	-1338.63253	62.21614
30250.00000	48.96083	-1567.72860	48.96083
30300.00000	56.21827	-1660.49642	56.21827
30350.00000	64.83982	-1714.53477	64.83982
30400.00000	40.56113	-1690.78740	40.56113
30450.00000	54.15357	-1703.73737	54.15357
30500.00000	62.06954	-1732.28250	62.06954
30550.00000	50.26954	-1898.81577	50.26954
30600.00000	63.37181	-2047.97118	63.37181
30650.00000	50.39549	-2154.63071	50.39549
30700.00000	50.57285	-2354.99948	50.57285
30750.00000	62.19756	-2425.69240	62.19756
30800.00000	54.13218	-2403.75370	54.13218
30850.00000	64.71546	-2384.05913	64.71546
30900.00000	61.02300	-2446.52101	61.02300
30950.00000	47.97904	-2714.06679	47.97904
31000.00000	62.87165	-2739.73971	62.87165
31050.00000	61.79406	-2839.89428	61.79406
31100.00000	57.97786	-3086.80617	57.97786
31150.00000	65.12128	-3127.80757	65.12128
31200.00000	57.47211	-3189.21453	57.47211
31250.00000	66.63525	-3435.77390	66.63525
31300.00000	68.31558	-3498.67487	68.31558
31350.00000	54.18944	-3508.93446	54.18944
31400.00000	65.22060	-3465.23523	65.22060
31450.00000	68.97007	-3497.62981	68.97007
31500.00000	62.00093	-3517.52960	62.00093
31550.00000	68.70689	-3501.03283	68.70689
31600.00000	67.21270	-3516.30220	67.21270
31650.00000	66.61615	-3468.54087	66.61615
31700.00000	70.77591	-3500.80572	70.77591
31750.00000	68.22342	-3509.56876	68.22342
31800.00000	67.80362	-3507.80858	67.80362
31850.00000	68.56204	-3486.00356	68.56204
31900.00000	66.49589	-3474.07886	66.49589
31950.00000	68.87032	-3501.61132	68.87032
32000.00000	71.24366	-3533.40531	71.24366
32050.00000	70.57981	-3543.49454	70.57981
32100.00000	70.23459	-3516.86374	70.23459
32150.00000	66.11962	-3561.92837	66.11962
32200.00000	68.80348	-3542.71628	68.80348
32250.00000	73.17317	-3536.78342	73.17317
32300.00000	73.79419	-3568.49436	73.79419
32350.00000	68.52556	-3530.15006	68.52556
32400.00000	79.37043	-3546.05557	79.37043
32450.00000	70.87224	-3562.04974	70.87224
32500.00000	70.63718	-3538.62636	70.63718
32550.00000	75.66628	-3571.81600	75.66628
32600.00000	75.68354	-3584.97229	75.68354
32650.00000	67.17548	-3582.43474	67.17548
32700.00000	76.05446	-3558.49907	76.05446
32750.00000	75.68523	-3599.85239	75.68523
32800.00000	70.72362	-3557.88679	70.72362
32850.00000	75.88991	-3566.84406	75.88991
32900.00000	76.70737	-3636.39890	76.70737
32950.00000	70.28396	-3921.44669	70.28396
33000.00000	73.61777	-3948.04924	73.61777
33050.00000	75.35889	-3989.65008	75.35889
33100.00000	61.39230	-4026.92454	61.39230
33150.00000	70.52886	-4299.35069	70.52886
33200.00000	75.52550	-4354.25843	75.52550
33250.00000	63.45027	-4340.56714	63.45027
33300.00000	74.85758	-4344.25578	74.85758
33350.00000	75.59268	-4387.38480	75.59268
33400.00000	64.04272	-4422.13457	64.04272
33450.00000	69.08923	-4669.84016	69.08923
33500.00000	76.50229	-4736.67868	76.50229
33550.00000	66.14781	-4808.68343	66.14781
33600.00000	70.52402	-4995.78152	70.52402
33650.00000	73.54730	-5105.70752	73.54730
33700.00000	71.02645	-5086.39864	71.02645
33750.00000	69.73473	-5095.22400	69.73473
33800.00000	72.73378	-5092.41026	72.73378
33850.00000	71.77670	-5103.59901	71.77670
33900.00000	61.04016	-5395.43313	61.04016
33950.00000	68.21533	-5462.60155	68.21533
34000.00000	70.46726	-5461.43414	70.46726
34050.00000	65.56062	-5520.39447	65.56062
34100.00000	75.32203	-5476.31933	75.32203
34150.00000	69.47843	-5532.30248	69.47843
34200.00000	58.02654	-5805.53759	58.02654
34250.00000	72.30736	-5794.65205	72.30736
34300.00000	73.64258	-5875.70630	73.64258
34350.00000	76.36326	-5902.00209	76.36326
34400.00000	69.68250	-6164.14216	69.68250
34450.00000	58.89430	-6232.49811	58.89430
34500.00000	74.10016	-6349.37885	74.10016
34550.00000	69.32224	-6510.01050	69.32224
34600.00000	69.87945	-6591.45921	69.87945
34650.00000	54.30837	-6667.05833	54.30837
34700.00000	75.97816	-6833.98247	75.97816
34750.00000	58.81370	-6808.86707	58.81370
34800.00000	74.14741	-6976.44361	74.14741
34850.00000	63.97428	-7150.53002	63.97428
34900.00000	75.48875	-7309.22788	75.48875
34950.00000	72.51950	-7323.18308	72.51950
35000.00000	61.52950	-7405.29284	61.52950
35050.00000	70.50811	-7559.20011	70.50811
35100.00000	75.47052	-7653.24433	75.47052
35150.00000	63.56815	-7763.44186	63.56815
35200.00000	70.31670	-7779.32100	70.31670
35250.00000	72.77684	-8021.50160	72.77684
35300.00000	72.15507	-8080.32587	72.15507
35350.00000	72.16038	-8241.34743	72.16038
35400.00000	67.73490	-8267.82218	67.73490
35450.00000	76.61483	-8407.81872	76.61483
35500.00000	67.29217	-8511.54146	67.29217
35550.00000	61.46231	-8509.26639	61.46231
35600.00000	72.96152	-8733.30689	72.96152
35650.00000	76.96622	-8805.23400	76.96622
35700.00000	71.58741	-8780.28259	71.58741
35750.00000	68.72318	-8702.31902	68.72318
35800.00000	72.18860	-8773.09790	72.18860
35850.00000	67.14171	-8865.42891	67.14171
35900.00000	72.59970	-8837.25501	72.59970
35950.00000	71.52650	-9023.27466	71.52650
36000.00000	72.29548	-9189.61528	72.29548
36050.00000	59.59281	-9293.19291	59.59281
36100.00000	55.21800	-9441.38114	55.21800
36150.00000	68.17891	-9484.34504	68.17891
36200.00000	75.07200	-9568.60653	75.07200
36250.00000	74.30113	-9594.43026	74.30113
36300.00000	63.85873	-9687.68163	63.85873
36350.00000	76.16135	-9859.43139	76.16135
36400.00000	67.78543	-9938.47674	67.78543
36450.00000	68.95170	-10002.19191	68.95170
36500.00000	72.27024	-10258.67224	72.27024
36550.00000	76.23187	-10238.92115	76.23187
36600.00000	48.78185	-10354.27674	48.78185
36650.00000	67.97969	-10363.16392	67.97969
36700.00000	70.87457	-10551.79737	70.87457
36750.00000	76.65918	-10634.13657	76.65918
36800.00000	77.47730	-10665.37552	77.47730
36850.00000	69.96451	-10797.42530	69.96451
36900.00000	72.29754	-10884.20590	72.29754
36950.00000	76.21560	-11037.23765	76.21560
37000.00000	71.71996	-11025.24725	71.71996
37050.00000	70.12315	-11227.66634	70.12315
37100.00000	72.85490	-11307.01146	72.85490
37150.00000	77.04910	-11366.26824	77.04910
37200.00000	79.74586	-11425.58349	79.74586
37250.00000	69.68403	-11546.32842	69.68403
37300.00000	71.25873	-11627.18407	71.25873
37350.00000	78.78427	-11740.81776	78.78427
37400.00000	76.17969	-11781.30583	76.17969
37450.00000	62.57454	-11765.06409	62.57454
37500.00000	69.66518	-11991.16329	69.66518
37550.00000	75.33839	-12074.04438	75.33839
37600.00000	75.87344	-12121.44479	75.87344
37650.00000	65.08899	-12143.89155	65.08899
37700.00000	68.44581	-12374.37897	68.44581
37750.00000	77.54354	-12420.59379	77.54354
37800.00000	78.91953	-12456.83948	78.91953
37850.00000	73.03805	-12533.20553	73.03805
37900.00000	67.30378	-12727.31717	67.30378
37950.00000	79.69750	-12816.20503	79.69750
38000.00000	78.27953	-12836.14257	78.27953
38050.00000	73.07690	-12833.05323	73.07690
38100.00000	75.11650	-12816.99332	75.11650
38150.00000	77.32625	-12814.33335	77.32625
38200.00000	78.30460	-12828.58192	78.30460
38250.00000	74.56134	-12882.68324	74.56134
38300.00000	76.39529	-12849.87873	76.39529
38350.00000	78.80957	-12837.71989	78.80957
38400.00000	78.39097	-12830.61861	78.39097
38450.00000	79.61559	-12868.66453	79.61559
38500.00000	79.35863	-12880.85055	79.35863
38550.00000	76.59720	-12849.09776	76.59720
38600.00000	79.25913	-12869.92840	79.25913
38650.00000	80.15783	-12865.80462	80.15783
38700.00000	80.00529	-12873.78222	80.00529
38750.00000	78.93965	-12878.37080	78.93965
38800.00000	79.27882	-12873.51872	79.27882
38850.00000	80.18267	-12878.24870	80.18267
38900.00000	82.91446	-12898.13833	82.91446
38950.00000	81.50310	-12910.31014	81.50310
39000.00000	77.51602	-12892.57543	77.51602
39050.00000	77.89925	-12896.82426	77.89925
39100.00000	81.00954	-12896.91812	81.00954
39150.00000	79.11295	-12918.46555	79.11295
39200.00000	80.60696	-12934.13218	80.60696
39250.00000	79.24343	-12936.17448	79.24343
39300.00000	76.14485	-12912.25506	76.14485
39350.00000	80.51413	-12915.37667	80.51413
39400.00000	80.33939	-12947.89043	80.33939
39450.00000	81.47993	-12967.18548	81.47993
39500.00000	73.92053	-13119.42594	73.92053
39550.00000	78.48644	-13307.56998	78.48644
39600.00000	79.07786	-13288.72372	79.07786
39650.00000	81.88283	-13313.90911	81.88283
39700.00000	79.28213	-13340.86041	79.28213
39750.00000	75.95091	-13340.68691	75.95091
39800.00000	74.33907	-13321.49895	74.33907
39850.00000	75.37148	-13348.18119	75.37148
39900.00000	72.98326	-13336.81418	72.98326
39950.00000	76.04947	-13362.24044	76.04947
40000.00000	70.28960	-13388.48928	70.28960
40050.00000	70.23596	-13368.39481	70.23596
40100.00000	73.46053	-13356.78524	73.46053
40150.00000	74.65038	-13359.22819	74.65038
40200.00000	72.34995	-13389.86526	72.34995
40250.00000	78.65907	-13342.84491	78.65907
40300.00000	70.30548	-13394.40233	70.30548
40350.00000	74.12256	-13373.24897	74.12256
40400.00000	70.57616	-13345.86780	70.57616
40450.00000	75.30299	-13368.53290	75.30299
40500.00000	75.04708	-13384.79123	75.04708
40550.00000	74.25687	-13405.63603	74.25687
40600.00000	70.13281	-13429.93154	70.13281
40650.00000	69.24665	-13360.29392	69.24665
40700.00000	71.42080	-13403.02693	71.42080
40750.00000	76.69004	-13389.54364	76.69004
40800.00000	75.73854	-13411.09658	75.73854
40850.00000	61.52169	-13415.99240	61.52169
40900.00000	69.91814	-13428.76169	69.91814
40950.00000	71.26521	-13356.32247	71.26521
41000.00000	74.08939	-13390.78368	74.08939
41050.00000	71.50594	-13385.91212	71.50594
41100.00000	57.19326	-13577.65051	57.19326
41150.00000	70.08864	-13746.54129	70.08864
41200.00000	70.73784	-13703.34141	70.73784
41250.00000	66.09758	-13601.75714	66.09758
41300.00000	76.24084	-13750.00627	76.24084
41350.00000	73.75132	-13742.19611	73.75132
41400.00000	72.62258	-13775.77194	72.62258
41450.00000	66.60633	-13885.68980	66.60633
41500.00000	68.10557	-14085.40281	68.10557
41550.00000	69.66963	-14090.55120	69.66963
41600.00000	72.45312	-14061.81891	72.45312
41650.00000	75.05703	-14115.21589	75.05703
41700.00000	79.93208	-14168.37593	79.93208
41750.00000	74.06371	-14210.07703	74.06371
41800.00000	66.50605	-14155.85977	66.50605
41850.00000	73.92202	-14121.93389	73.92202
41900.00000	71.02500	-14135.34505	71.02500
41950.00000	75.75742	-14105.43712	75.75742
42000.00000	66.22415	-14119.28820	66.22415
42050.00000	78.57373	-14162.51541	78.57373
42100.00000	77.23931	-14174.49598	77.23931
42150.00000	71.60492	-14128.55291	71.60492
42200.00000	73.64343	-14174.98990	73.64343
42250.00000	78.85681	-14174.95963	78.85681
42300.00000	81.85981	-14082.51070	81.85981
42350.00000	72.52130	-14151.21368	72.52130
42400.00000	68.62544	-14100.97174	68.62544
42450.00000	78.12753	-14165.67588	78.12753
42500.00000	69.75193	-14199.55258	69.75193
42550.00000	74.34951	-14109.91740	74.34951
42600.00000	74.70069	-14103.55468	74.70069
42650.00000	83.15557	-14124.78025	83.15557
42700.00000	72.82300	-14150.87040	72.82300
42750.00000	79.78696	-14185.09515	79.78696
42800.00000	80.86304	-14156.30750	80.86304
42850.00000	60.31335	-14116.44652	60.31335
42900.00000	74.92591	-14129.33065	74.92591
42950.00000	75.36914	-14129.99279	75.36914
43000.00000	77.85009	-14119.02833	77.85009
43050.00000	72.13300	-14140.98015	72.13300
43100.00000	76.56346	-14152.29982	76.56346
43150.00000	74.96484	-14193.78302	74.96484
43200.00000	77.24920	-14212.29993	77.24920
43250.00000	80.17192	-14274.39408	80.17192
43300.00000	82.77768	-14413.74117	82.77768
43350.00000	79.99548	-14528.23723	79.99548
43400.00000	78.38533	-14500.96560	78.38533
43450.00000	80.94039	-14505.68624	80.94039
43500.00000	78.60094	-14536.15858	78.60094
43550.00000	72.31620	-14588.87476	72.31620
43600.00000	72.99519	-14781.13078	72.99519
43650.00000	79.99409	-14944.11071	79.99409
43700.00000	74.25753	-15033.61233	74.25753
43750.00000	74.68374	-14971.21387	74.68374
43800.00000	74.36569	-15194.88458	74.36569
43850.00000	68.50128	-15306.43182	68.50128
43900.00000	80.94558	-15264.50627	80.94558
43950.00000	75.78316	-15346.04590	75.78316
44000.00000	74.61714	-15217.56399	74.61714
44050.00000	76.12764	-15243.64769	76.12764
44100.00000	71.57798	-15194.04773	71.57798
44150.00000	73.75165	-15285.20482	73.75165
44200.00000	74.35368	-15331.82564	74.35368
44250.00000	71.61015	-15233.02760	71.61015
44300.00000	78.69949	-15318.39321	78.69949
44350.00000	77.48035	-15329.41081	77.48035
44400.00000	75.58187	-15247.35040	75.58187
44450.00000	84.88468	-15346.02888	84.88468
44500.00000	79.42648	-15362.92053	79.42648
44550.00000	76.20767	-15558.59679	76.20767
44600.00000	75.12109	-15434.39747	75.12109
44650.00000	72.99706	-15452.08274	72.99706
44700.00000	77.07242	-15558.87717	77.07242
44750.00000	65.00127	-15639.80237	65.00127
44800.00000	65.18999	-15734.52552	65.18999
44850.00000	75.20481	-15663.14010	75.20481
44900.00000	80.05220	-15675.17305	80.05220
44950.00000	75.11673	-15732.93750	75.11673
45000.00000	66.02524	-15846.45456	66.02524
45050.00000	80.20653	-15796.67473	80.20653
45100.00000	69.70466	-15926.08897	69.70466
45150.00000	74.82277	-16027.13088	74.82277
45200.00000	69.06762	-16043.62185	69.06762
45250.00000	76.94440	-15952.14912	76.94440
45300.00000	78.64367	-16116.10683	78.64367
45350.00000	75.32724	-16182.24711	75.32724
45400.00000	74.38381	-16120.32020	74.38381
45450.00000	73.96439	-16150.56236	73.96439
45500.00000	74.25114	-16170.93004	74.25114
45550.00000	79.18357	-16216.10702	79.18357
45600.00000	78.29653	-16208.42304	78.29653
45650.00000	64.46399	-16152.97828	64.46399
45700.00000	77.85736	-16241.07696	77.85736
45750.00000	79.65381	-16305.63518	79.65381
45800.00000	75.52346	-16430.40924	75.52346
45850.00000	78.06742	-16375.67611	78.06742
45900.00000	74.67207	-16384.75660	74.67207
45950.00000	73.90153	-16452.55082	73.90153
46000.00000	67.75593	-16380.46538	67.75593
46050.00000	74.19946	-16553.58427	74.19946
46100.00000	79.88703	-16515.51049	79.88703
46150.00000	72.99323	-16473.46832	72.99323
46200.00000	73.52948	-16374.75548	73.52948
46250.00000	64.45324	-16286.49142	64.45324
46300.00000	70.16719	-16295.26884	70.16719
46350.00000	74.40617	-16325.78874	74.40617
46400.00000	68.62934	-16335.86550	68.62934
46450.00000	72.64850	-16445.32181	72.64850
46500.00000	72.37664	-16443.25734	72.37664
46550.00000	56.86476	-16351.29909	56.86476
46600.00000	74.30097	-16486.86307	74.30097
46650.00000	55.24230	-16555.23404	55.24230
46700.00000	68.26165	-16455.72441	68.26165
46750.00000	56.29331	-16614.12222	56.29331
46800.00000	67.05858	-16581.81214	67.05858
46850.00000	71.17957	-16837.00088	71.17957
46900.00000	73.00844	-16973.20095	73.00844
46950.00000	71.89723	-17022.21777	71.89723
47000.00000	56.83096	-17002.58168	56.83096
47050.00000	72.78467	-17023.91830	72.78467
47100.00000	65.71623	-16912.93967	65.71623
47150.00000	76.97587	-17083.25615	76.97587
47200.00000	60.25766	-17070.65948	60.25766
47250.00000	68.41376	-17187.71265	68.41376
47300.00000	57.90698	-17243.15027	57.90698
47350.00000	64.05335	-17753.24305	64.05335
47400.00000	66.43112	-17809.92085	66.43112
47450.00000	75.87969	-17881.53024	75.87969
47500.00000	63.85422	-17947.54595	63.85422
47550.00000	64.43917	-18290.50541	64.43917
47600.00000	69.25778	-18296.02168	69.25778
47650.00000	74.12098	-18334.93571	74.12098
47700.00000	70.01338	-18388.94938	70.01338
47750.00000	69.82167	-18413.35028	69.82167
47800.00000	64.28271	-18331.55304	64.28271
47850.00000	66.39984	-18735.15128	66.39984
47900.00000	67.09933	-19175.73505	67.09933
47950.00000	59.21546	-19120.35208	59.21546
48000.00000	63.37863	-19049.17685	63.37863
48050.00000	73.53468	-19093.68945	73.53468
48100.00000	67.82405	-18963.41824	67.82405
48150.00000	59.63259	-19419.49191	59.63259
48200.00000	62.75106	-19358.71719	62.75106
48250.00000	64.60269	-19241.51783	64.60269
48300.00000	67.78870	-19257.96701	67.78870
48350.00000	68.90255	-19223.62975	68.90255
48400.00000	65.33697	-19603.17058	65.33697
48450.00000	58.94967	-19621.32247	58.94967
48500.00000	66.52470	-19615.77040	66.52470
48550.00000	73.51081	-19702.74763	73.51081
48600.00000	64.71892	-20054.23433	64.71892
48650.00000	74.78715	-20169.44963	74.78715
48700.00000	68.95724	-20356.81384	68.95724
48750.00000	73.77516	-20826.96963	73.77516
48800.00000	63.41511	-20930.43172	63.41511
48850.00000	61.36580	-20815.12112	61.36580
48900.00000	69.15913	-21185.91635	69.15913
48950.00000	64.52607	-21306.76832	64.52607
49000.00000	72.98249	-21461.03717	72.98249
49050.00000	75.51769	-21497.08542	75.51769
49100.00000	78.55719	-21916.45167	78.55719
49150.00000	69.94519	-22435.77718	69.94519
49200.00000	77.66727	-22530.00685	77.66727
49250.00000	81.58217	-22989.28074	81.58217
49300.00000	73.60855	-22756.78349	73.60855
49350.00000	73.98528	-22627.26791	73.98528
49400.00000	67.96042	-22244.04262	67.96042
49450.00000	64.15142	-22050.69833	64.15142
49500.00000	73.29123	-21642.05142	73.29123
49550.00000	77.78212	-21275.90972	77.78212
49600.00000	81.29075	-21210.07401	81.29075
49650.00000	72.68956	-21237.83324	72.68956
49700.00000	73.67550	-20907.29662	73.67550
49750.00000	71.14195	-20847.14235	71.14195
49800.00000	64.71637	-20734.87216	64.71637
49850.00000	74.87415	-20662.36462	74.87415
49900.00000	72.76028	-20381.83904	72.76028
49950.00000	66.25008	-20179.89797	66.25008
