---ACOUSTIC CALIBRATION---
Filename: C:\Data\AZH DATA\AZH61\RightSecondary.calib
Date: 8/27/2019 3:33:09 PM
Format: 4
Probe Tube Correction File: C:\Data\Probe Tube Calibrations\50_ProbeTube.calib
Experiment VIs: 850
EPL_CFTS.exe V12.0.1 (2012)
DAQmx V9.6

Attenuation (dB): 40.000000
Min Freq (Hz): 50.000000
Max Freq (Hz): 49950.000000
Freq Step (Hz): 50.000000
Sample Rate (Hz): 100000.000000
[Smoothing]
Method=None
MA.Iterations=0
MA.Length=0
Loess.Length=0
Loess.Type=Linear
Loess.Robust=FALSE


Freq(Hz)	Mag(dB)	Phase(deg)	Unsmoothed(dB)

50.00000	87.41836	444.15148	87.41836
100.00000	73.15220	456.90700	73.15220
150.00000	69.97711	475.26897	69.97711
200.00000	73.00056	408.32211	73.00056
250.00000	82.82596	401.59504	82.82596
300.00000	81.65219	329.41136	81.65219
350.00000	81.07379	330.05918	81.07379
400.00000	84.92689	306.05370	84.92689
450.00000	84.76336	305.48930	84.76336
500.00000	87.62893	307.21334	87.62893
550.00000	89.24579	311.09252	89.24579
600.00000	91.77182	295.09733	91.77182
650.00000	92.54224	300.85281	92.54224
700.00000	94.63047	288.14758	94.63047
750.00000	96.06774	291.83881	96.06774
800.00000	99.16038	279.37576	99.16038
850.00000	100.82856	273.04292	100.82856
900.00000	102.46512	254.36531	102.46512
950.00000	103.54945	238.55532	103.54945
1000.00000	103.44259	221.20386	103.44259
1050.00000	102.82876	211.81918	102.82876
1100.00000	102.94844	199.74643	102.94844
1150.00000	101.92390	188.61184	101.92390
1200.00000	101.22772	186.76298	101.22772
1250.00000	101.30487	176.35288	101.30487
1300.00000	100.12318	170.59632	100.12318
1350.00000	99.44941	166.06044	99.44941
1400.00000	98.18788	165.91204	98.18788
1450.00000	98.80960	167.25592	98.80960
1500.00000	98.47753	167.19943	98.47753
1550.00000	98.77815	163.80726	98.77815
1600.00000	99.27496	159.09595	99.27496
1650.00000	100.31526	152.32339	100.31526
1700.00000	98.66886	145.41948	98.66886
1750.00000	98.62565	145.95001	98.62565
1800.00000	98.55299	142.00215	98.55299
1850.00000	97.95331	146.85687	97.95331
1900.00000	99.18816	146.84874	99.18816
1950.00000	99.73499	139.00493	99.73499
2000.00000	99.74634	131.34215	99.74634
2050.00000	98.44966	126.51571	98.44966
2100.00000	98.59839	125.72998	98.59839
2150.00000	98.17479	120.51630	98.17479
2200.00000	97.62578	119.28808	97.62578
2250.00000	96.73508	115.14122	96.73508
2300.00000	96.68763	118.13130	96.68763
2350.00000	96.29211	116.77717	96.29211
2400.00000	95.96275	118.95794	95.96275
2450.00000	96.05293	115.75745	96.05293
2500.00000	95.45290	118.10470	95.45290
2550.00000	95.11233	118.69809	95.11233
2600.00000	94.78758	125.74162	94.78758
2650.00000	95.83457	133.55300	95.83457
2700.00000	97.57831	135.82579	97.57831
2750.00000	99.23333	129.23586	99.23333
2800.00000	99.95061	119.11716	99.95061
2850.00000	99.77151	110.87327	99.77151
2900.00000	99.44934	104.38496	99.44934
2950.00000	99.04247	100.43669	99.04247
3000.00000	98.56564	96.88052	98.56564
3050.00000	98.15913	94.13859	98.15913
3100.00000	97.98015	92.36905	97.98015
3150.00000	97.58804	87.63718	97.58804
3200.00000	96.94584	85.15466	96.94584
3250.00000	96.29165	84.25424	96.29165
3300.00000	95.39862	82.27032	95.39862
3350.00000	94.15046	84.23345	94.15046
3400.00000	93.24047	91.56086	93.24047
3450.00000	93.00985	100.43761	93.00985
3500.00000	93.40592	107.26201	93.40592
3550.00000	93.84989	110.92387	93.84989
3600.00000	94.18087	113.98628	94.18087
3650.00000	93.95475	117.28892	93.95475
3700.00000	93.79681	124.82971	93.79681
3750.00000	94.61908	136.50637	94.61908
3800.00000	96.30176	145.52534	96.30176
3850.00000	98.22216	149.11315	98.22216
3900.00000	100.10287	149.23228	100.10287
3950.00000	101.77788	146.48980	101.77788
4000.00000	103.02713	142.12322	103.02713
4050.00000	104.16293	137.86115	104.16293
4100.00000	105.01126	133.93575	105.01126
4150.00000	106.04390	130.75208	106.04390
4200.00000	106.73333	127.15878	106.73333
4250.00000	107.51451	124.67660	107.51451
4300.00000	108.38574	122.44598	108.38574
4350.00000	109.35903	120.17603	109.35903
4400.00000	110.46268	117.96596	110.46268
4450.00000	111.68055	114.86128	111.68055
4500.00000	113.03603	110.63925	113.03603
4550.00000	114.41689	104.93702	114.41689
4600.00000	115.77280	97.80598	115.77280
4650.00000	117.17181	89.37182	117.17181
4700.00000	118.47547	78.91407	118.47547
4750.00000	119.61332	66.54475	119.61332
4800.00000	120.45546	52.32538	120.45546
4850.00000	120.85957	37.02154	120.85957
4900.00000	120.78680	21.57335	120.78680
4950.00000	120.23840	 7.12790	120.23840
5000.00000	119.22023	-4.90141	119.22023
5050.00000	118.16442	-13.15814	118.16442
5100.00000	116.97319	-22.64358	116.97319
5150.00000	114.49835	-25.34806	114.49835
5200.00000	113.30461	-7.19364	113.30461
5250.00000	116.36171	-0.82700	116.36171
5300.00000	118.14833	-13.84760	118.14833
5350.00000	118.48414	-27.36002	118.48414
5400.00000	118.24588	-38.40311	118.24588
5450.00000	117.82643	-47.21883	117.82643
5500.00000	117.34817	-54.76647	117.34817
5550.00000	116.87518	-61.25304	116.87518
5600.00000	116.41147	-67.16099	116.41147
5650.00000	115.97112	-72.55169	115.97112
5700.00000	115.52614	-77.70802	115.52614
5750.00000	115.11722	-82.33836	115.11722
5800.00000	114.70037	-86.85663	114.70037
5850.00000	114.30932	-91.23646	114.30932
5900.00000	113.94301	-95.26979	113.94301
5950.00000	113.58519	-99.20466	113.58519
6000.00000	113.23315	-102.90018	113.23315
6050.00000	112.87773	-106.60287	112.87773
6100.00000	112.55089	-110.19890	112.55089
6150.00000	112.20116	-113.66715	112.20116
6200.00000	111.87068	-117.04937	111.87068
6250.00000	111.55266	-120.32678	111.55266
6300.00000	111.25111	-123.53267	111.25111
6350.00000	110.94133	-126.79453	110.94133
6400.00000	110.63709	-129.94032	110.63709
6450.00000	110.34728	-133.08964	110.34728
6500.00000	110.02204	-136.17761	110.02204
6550.00000	109.71977	-139.07653	109.71977
6600.00000	109.40314	-141.82813	109.40314
6650.00000	109.11274	-144.44021	109.11274
6700.00000	108.80999	-147.11204	108.80999
6750.00000	108.51935	-149.51304	108.51935
6800.00000	108.24213	-151.68221	108.24213
6850.00000	107.96072	-153.83911	107.96072
6900.00000	107.72380	-155.93981	107.72380
6950.00000	107.48044	-157.84983	107.48044
7000.00000	107.27417	-159.97556	107.27417
7050.00000	107.07356	-162.05184	107.07356
7100.00000	106.89923	-164.13154	106.89923
7150.00000	106.71356	-166.05617	106.71356
7200.00000	106.53332	-167.88503	106.53332
7250.00000	106.35960	-169.86614	106.35960
7300.00000	106.23975	-171.61989	106.23975
7350.00000	106.10151	-173.31822	106.10151
7400.00000	106.02537	-175.12794	106.02537
7450.00000	105.98755	-176.90705	105.98755
7500.00000	105.97251	-178.90357	105.97251
7550.00000	105.97689	-180.91647	105.97689
7600.00000	105.97932	-183.10337	105.97932
7650.00000	105.98456	-185.57645	105.98456
7700.00000	106.06085	-188.10860	106.06085
7750.00000	106.06700	-191.09929	106.06700
7800.00000	106.10397	-194.39119	106.10397
7850.00000	106.08951	-197.84254	106.08951
7900.00000	106.04641	-201.50713	106.04641
7950.00000	105.95233	-205.28249	105.95233
8000.00000	105.84166	-209.17527	105.84166
8050.00000	105.70153	-213.27810	105.70153
8100.00000	105.53300	-216.48259	105.53300
8150.00000	105.26902	-220.11949	105.26902
8200.00000	105.01884	-223.29823	105.01884
8250.00000	104.76049	-226.74845	104.76049
8300.00000	104.48798	-230.01895	104.48798
8350.00000	104.16370	-232.93346	104.16370
8400.00000	103.85363	-236.14460	103.85363
8450.00000	103.45343	-238.79098	103.45343
8500.00000	103.09562	-241.40727	103.09562
8550.00000	102.77817	-243.56231	102.77817
8600.00000	102.41378	-246.04947	102.41378
8650.00000	102.09754	-247.95715	102.09754
8700.00000	101.79732	-250.52976	101.79732
8750.00000	101.43369	-251.60958	101.43369
8800.00000	101.14972	-253.76694	101.14972
8850.00000	100.83760	-255.58273	100.83760
8900.00000	100.59354	-257.01777	100.59354
8950.00000	100.36450	-258.82019	100.36450
9000.00000	100.09610	-260.47288	100.09610
9050.00000	99.94185	-262.26114	99.94185
9100.00000	99.78841	-263.84052	99.78841
9150.00000	99.65257	-265.40328	99.65257
9200.00000	99.58070	-266.91036	99.58070
9250.00000	99.42391	-268.40988	99.42391
9300.00000	99.34789	-269.89500	99.34789
9350.00000	99.25770	-271.29427	99.25770
9400.00000	99.07826	-272.25477	99.07826
9450.00000	99.00535	-273.82204	99.00535
9500.00000	98.93718	-275.00868	98.93718
9550.00000	98.83499	-276.86985	98.83499
9600.00000	98.82273	-278.83842	98.82273
9650.00000	98.76693	-281.02353	98.76693
9700.00000	98.71814	-282.68221	98.71814
9750.00000	98.77865	-285.38574	98.77865
9800.00000	98.70091	-286.80211	98.70091
9850.00000	98.66513	-288.13421	98.66513
9900.00000	98.46486	-289.97088	98.46486
9950.00000	98.34341	-291.27192	98.34341
10000.00000	98.18329	-293.53335	98.18329
10050.00000	97.98829	-295.39273	97.98829
10100.00000	97.77350	-297.37577	97.77350
10150.00000	97.52341	-300.28255	97.52341
10200.00000	97.38722	-302.86561	97.38722
10250.00000	97.23581	-305.67696	97.23581
10300.00000	97.25374	-308.05681	97.25374
10350.00000	97.14332	-310.13296	97.14332
10400.00000	97.00987	-312.40228	97.00987
10450.00000	97.01680	-314.53999	97.01680
10500.00000	96.96249	-316.41437	96.96249
10550.00000	96.85386	-318.43569	96.85386
10600.00000	96.69751	-320.46481	96.69751
10650.00000	96.53465	-322.32068	96.53465
10700.00000	96.40238	-325.38978	96.40238
10750.00000	96.33950	-327.99313	96.33950
10800.00000	96.19460	-330.40791	96.19460
10850.00000	96.10438	-333.79024	96.10438
10900.00000	95.99981	-336.02170	95.99981
10950.00000	95.88590	-337.93884	95.88590
11000.00000	95.72151	-340.07351	95.72151
11050.00000	95.37069	-342.22982	95.37069
11100.00000	95.12853	-344.89402	95.12853
11150.00000	94.75680	-346.96561	94.75680
11200.00000	94.55936	-349.24386	94.55936
11250.00000	94.23908	-351.92386	94.23908
11300.00000	93.92704	-354.42002	93.92704
11350.00000	93.68074	-356.00379	93.68074
11400.00000	93.34537	-357.73262	93.34537
11450.00000	93.12521	-359.71405	93.12521
11500.00000	92.97396	-360.43284	92.97396
11550.00000	92.61604	-361.56760	92.61604
11600.00000	92.45474	-363.61135	92.45474
11650.00000	92.15300	-364.04489	92.15300
11700.00000	92.02018	-365.14884	92.02018
11750.00000	91.91549	-366.88806	91.91549
11800.00000	91.78680	-368.74229	91.78680
11850.00000	91.75091	-369.14204	91.75091
11900.00000	91.49289	-371.00532	91.49289
11950.00000	91.40663	-372.20933	91.40663
12000.00000	91.19501	-373.40778	91.19501
12050.00000	90.96188	-374.76140	90.96188
12100.00000	90.81754	-377.75474	90.81754
12150.00000	90.63009	-380.02329	90.63009
12200.00000	90.53858	-382.48869	90.53858
12250.00000	90.37959	-384.34383	90.37959
12300.00000	91.34935	-386.80568	91.34935
12350.00000	89.99689	-388.79802	89.99689
12400.00000	89.72178	-389.74049	89.72178
12450.00000	89.38235	-391.04424	89.38235
12500.00000	89.01344	-392.99089	89.01344
12550.00000	88.68080	-394.42351	88.68080
12600.00000	88.21614	-396.38606	88.21614
12650.00000	88.08463	-397.85720	88.08463
12700.00000	87.58545	-399.44438	87.58545
12750.00000	87.21683	-400.36246	87.21683
12800.00000	86.95909	-400.75997	86.95909
12850.00000	86.31115	-401.35258	86.31115
12900.00000	85.96856	-402.74333	85.96856
12950.00000	85.66106	-403.00277	85.66106
13000.00000	85.38266	-403.82666	85.38266
13050.00000	85.24077	-402.88098	85.24077
13100.00000	84.92788	-403.09552	84.92788
13150.00000	84.79604	-403.26520	84.79604
13200.00000	84.54155	-401.58559	84.54155
13250.00000	84.23478	-401.99937	84.23478
13300.00000	83.87190	-399.30346	83.87190
13350.00000	83.60461	-400.27611	83.60461
13400.00000	83.51082	-401.59500	83.51082
13450.00000	83.16247	-399.47244	83.16247
13500.00000	83.07509	-399.59660	83.07509
13550.00000	82.91625	-398.56872	82.91625
13600.00000	82.71049	-396.97791	82.71049
13650.00000	82.56917	-395.85615	82.56917
13700.00000	82.26051	-395.19130	82.26051
13750.00000	82.05873	-394.17678	82.05873
13800.00000	81.83960	-395.07532	81.83960
13850.00000	81.93924	-394.31287	81.93924
13900.00000	81.62903	-393.34289	81.62903
13950.00000	81.72442	-394.30633	81.72442
14000.00000	81.93876	-390.78032	81.93876
14050.00000	82.06097	-390.53458	82.06097
14100.00000	81.89891	-387.94708	81.89891
14150.00000	82.15113	-387.63339	82.15113
14200.00000	82.14330	-384.90094	82.14330
14250.00000	82.41596	-382.73321	82.41596
14300.00000	82.46389	-381.41460	82.46389
14350.00000	82.58251	-379.70004	82.58251
14400.00000	82.33148	-379.49547	82.33148
14450.00000	82.50230	-377.42349	82.50230
14500.00000	82.47852	-378.10840	82.47852
14550.00000	82.99831	-376.46317	82.99831
14600.00000	83.31889	-376.72889	83.31889
14650.00000	83.79428	-374.41541	83.79428
14700.00000	83.97600	-377.11295	83.97600
14750.00000	84.41977	-375.37057	84.41977
14800.00000	84.40475	-374.38475	84.40475
14850.00000	85.06249	-374.25430	85.06249
14900.00000	85.31243	-374.52811	85.31243
14950.00000	85.63620	-374.92757	85.63620
15000.00000	85.99770	-376.25496	85.99770
15050.00000	86.14576	-375.07350	86.14576
15100.00000	86.46429	-375.56448	86.46429
15150.00000	87.09864	-377.09166	87.09864
15200.00000	87.19575	-375.63657	87.19575
15250.00000	87.36989	-377.01660	87.36989
15300.00000	87.93347	-377.72301	87.93347
15350.00000	88.14930	-378.58674	88.14930
15400.00000	88.37142	-378.80785	88.37142
15450.00000	88.64043	-379.78536	88.64043
15500.00000	89.20248	-380.95222	89.20248
15550.00000	89.48369	-382.52476	89.48369
15600.00000	89.84612	-384.42959	89.84612
15650.00000	90.50127	-383.96198	90.50127
15700.00000	90.73152	-385.91709	90.73152
15750.00000	91.20458	-386.45153	91.20458
15800.00000	91.53941	-387.05922	91.53941
15850.00000	91.78443	-388.59089	91.78443
15900.00000	92.08033	-391.09722	92.08033
15950.00000	92.55029	-393.48711	92.55029
16000.00000	92.89271	-394.74055	92.89271
16050.00000	93.37216	-396.58730	93.37216
16100.00000	93.61767	-399.07589	93.61767
16150.00000	93.85422	-401.82118	93.85422
16200.00000	94.20962	-404.66937	94.20962
16250.00000	94.62505	-406.71778	94.62505
16300.00000	95.08313	-409.67714	95.08313
16350.00000	95.29424	-411.82109	95.29424
16400.00000	95.56597	-413.68471	95.56597
16450.00000	95.81171	-416.76069	95.81171
16500.00000	96.06534	-419.47230	96.06534
16550.00000	96.27585	-422.61175	96.27585
16600.00000	96.57594	-425.28977	96.57594
16650.00000	96.67097	-428.10023	96.67097
16700.00000	96.91099	-430.28153	96.91099
16750.00000	97.00449	-433.01230	97.00449
16800.00000	97.24142	-435.96283	97.24142
16850.00000	97.45162	-438.67118	97.45162
16900.00000	97.67258	-441.29387	97.67258
16950.00000	97.84895	-443.73157	97.84895
17000.00000	97.86695	-445.81437	97.86695
17050.00000	98.07520	-447.66638	98.07520
17100.00000	98.16415	-449.12409	98.16415
17150.00000	98.45230	-452.44072	98.45230
17200.00000	98.66488	-454.88817	98.66488
17250.00000	98.79196	-457.69294	98.79196
17300.00000	99.08730	-459.90481	99.08730
17350.00000	99.09547	-462.00572	99.09547
17400.00000	99.39348	-464.88001	99.39348
17450.00000	99.48404	-467.82074	99.48404
17500.00000	99.75129	-470.24604	99.75129
17550.00000	99.93546	-473.00722	99.93546
17600.00000	100.21516	-474.80838	100.21516
17650.00000	100.35269	-478.58708	100.35269
17700.00000	100.49507	-481.61895	100.49507
17750.00000	100.78909	-484.30655	100.78909
17800.00000	100.81349	-487.37130	100.81349
17850.00000	101.02658	-489.84740	101.02658
17900.00000	101.12271	-492.96468	101.12271
17950.00000	101.31624	-496.21920	101.31624
18000.00000	101.43688	-499.73030	101.43688
18050.00000	101.67844	-502.45182	101.67844
18100.00000	101.76910	-505.97210	101.76910
18150.00000	101.89429	-508.43229	101.89429
18200.00000	101.87580	-512.17855	101.87580
18250.00000	102.02313	-514.55295	102.02313
18300.00000	102.22019	-517.79980	102.22019
18350.00000	102.30174	-520.73945	102.30174
18400.00000	102.35398	-524.07306	102.35398
18450.00000	102.38392	-528.22080	102.38392
18500.00000	102.44940	-531.07688	102.44940
18550.00000	102.51769	-533.92706	102.51769
18600.00000	102.68011	-537.65494	102.68011
18650.00000	102.62750	-540.57805	102.62750
18700.00000	102.67039	-543.93642	102.67039
18750.00000	102.76920	-547.01189	102.76920
18800.00000	102.89921	-549.61744	102.89921
18850.00000	102.85476	-553.25780	102.85476
18900.00000	102.86676	-556.25919	102.86676
18950.00000	102.95554	-559.96122	102.95554
19000.00000	102.82331	-562.65312	102.82331
19050.00000	102.96627	-566.23434	102.96627
19100.00000	102.93254	-569.44376	102.93254
19150.00000	103.09589	-572.48169	103.09589
19200.00000	103.04845	-575.46412	103.04845
19250.00000	103.03162	-579.58281	103.03162
19300.00000	102.93566	-582.30743	102.93566
19350.00000	102.95511	-585.54420	102.95511
19400.00000	102.87608	-588.75325	102.87608
19450.00000	102.95249	-591.40689	102.95249
19500.00000	102.82959	-595.45415	102.82959
19550.00000	102.79060	-598.70568	102.79060
19600.00000	102.82136	-602.50889	102.82136
19650.00000	102.70406	-605.24140	102.70406
19700.00000	102.54654	-608.31108	102.54654
19750.00000	102.43757	-610.95363	102.43757
19800.00000	102.45279	-614.84072	102.45279
19850.00000	102.37647	-617.81395	102.37647
19900.00000	102.22939	-621.74217	102.22939
19950.00000	102.09522	-624.45553	102.09522
20000.00000	101.99554	-627.52032	101.99554
20050.00000	101.84294	-630.51990	101.84294
20100.00000	101.61812	-633.70765	101.61812
20150.00000	101.55213	-635.64791	101.55213
20200.00000	101.38197	-639.14500	101.38197
20250.00000	101.13981	-641.82639	101.13981
20300.00000	100.85996	-644.42816	100.85996
20350.00000	100.77553	-647.23846	100.77553
20400.00000	100.54586	-648.84950	100.54586
20450.00000	100.26016	-651.22056	100.26016
20500.00000	100.11733	-653.63063	100.11733
20550.00000	99.67739	-654.92759	99.67739
20600.00000	99.55163	-656.68157	99.55163
20650.00000	99.37544	-658.29248	99.37544
20700.00000	99.12328	-659.51693	99.12328
20750.00000	98.95693	-660.55985	98.95693
20800.00000	98.76315	-661.34877	98.76315
20850.00000	98.68348	-662.42439	98.68348
20900.00000	98.50634	-663.00943	98.50634
20950.00000	98.42082	-662.97155	98.42082
21000.00000	98.37162	-663.24673	98.37162
21050.00000	98.49677	-663.48322	98.49677
21100.00000	98.51131	-663.50201	98.51131
21150.00000	98.68440	-664.21043	98.68440
21200.00000	98.86941	-664.45423	98.86941
21250.00000	99.04142	-666.39972	99.04142
21300.00000	99.26062	-666.95705	99.26062
21350.00000	99.44848	-668.45455	99.44848
21400.00000	99.66522	-670.41849	99.66522
21450.00000	99.88507	-672.31701	99.88507
21500.00000	100.08795	-674.84772	100.08795
21550.00000	100.17347	-676.83566	100.17347
21600.00000	100.39026	-679.67970	100.39026
21650.00000	100.44395	-682.00066	100.44395
21700.00000	100.56887	-684.64973	100.56887
21750.00000	100.66738	-687.35518	100.66738
21800.00000	100.74415	-690.26434	100.74415
21850.00000	100.74582	-692.45151	100.74582
21900.00000	100.81392	-695.12599	100.81392
21950.00000	100.79402	-697.31311	100.79402
22000.00000	100.87081	-699.93764	100.87081
22050.00000	100.90562	-702.33871	100.90562
22100.00000	100.86742	-704.77855	100.86742
22150.00000	100.85455	-706.96876	100.85455
22200.00000	100.90999	-709.25178	100.90999
22250.00000	100.86642	-711.16972	100.86642
22300.00000	100.76100	-713.45302	100.76100
22350.00000	100.88470	-715.70368	100.88470
22400.00000	100.86087	-718.17176	100.86087
22450.00000	100.74492	-719.98065	100.74492
22500.00000	100.69744	-721.28603	100.69744
22550.00000	100.72917	-723.36196	100.72917
22600.00000	100.65700	-726.13356	100.65700
22650.00000	100.65913	-727.63332	100.65913
22700.00000	100.66107	-729.33682	100.66107
22750.00000	100.60649	-729.34984	100.60649
22800.00000	100.63825	-733.20414	100.63825
22850.00000	100.65902	-735.14059	100.65902
22900.00000	100.72164	-735.79017	100.72164
22950.00000	100.79266	-737.81298	100.79266
23000.00000	100.76416	-738.53939	100.76416
23050.00000	100.76061	-741.12726	100.76061
23100.00000	100.84542	-741.80457	100.84542
23150.00000	100.78224	-742.95694	100.78224
23200.00000	100.96704	-745.89640	100.96704
23250.00000	100.89191	-748.01934	100.89191
23300.00000	101.23055	-750.36514	101.23055
23350.00000	100.96998	-751.91570	100.96998
23400.00000	101.03443	-753.64398	101.03443
23450.00000	101.20417	-755.90606	101.20417
23500.00000	101.11267	-756.51460	101.11267
23550.00000	101.19732	-757.26198	101.19732
23600.00000	101.18106	-761.26402	101.18106
23650.00000	101.32929	-762.50413	101.32929
23700.00000	101.57354	-766.64503	101.57354
23750.00000	101.49842	-767.07802	101.49842
23800.00000	101.36061	-767.70985	101.36061
23850.00000	101.55498	-769.76181	101.55498
23900.00000	101.99427	-772.03168	101.99427
23950.00000	101.71877	-774.90753	101.71877
24000.00000	101.59998	-778.20561	101.59998
24050.00000	101.84269	-778.83159	101.84269
24100.00000	102.17881	-782.50778	102.17881
24150.00000	102.24275	-784.54103	102.24275
24200.00000	102.28506	-789.04928	102.28506
24250.00000	101.94281	-789.45152	101.94281
24300.00000	102.45950	-792.16817	102.45950
24350.00000	102.23432	-795.14757	102.23432
24400.00000	102.26042	-798.76940	102.26042
24450.00000	101.94476	-801.05483	101.94476
24500.00000	102.44031	-802.63712	102.44031
24550.00000	102.27548	-807.60501	102.27548
24600.00000	102.80131	-448.95229	102.80131
24650.00000	102.52027	-93.64882	102.52027
24700.00000	102.28923	266.66407	102.28923
24750.00000	102.36348	620.26017	102.36348
24800.00000	102.30695	977.73685	102.30695
24850.00000	101.97656	1336.84979	101.97656
24900.00000	102.25709	1695.04057	102.25709
24950.00000	102.18766	2050.11751	102.18766
25000.00000	101.97708	2041.71229	101.97708
25050.00000	102.18527	2045.10860	102.18527
25100.00000	101.59470	2037.86070	101.59470
25150.00000	101.63474	2037.99074	101.63474
25200.00000	101.51613	2032.46942	101.51613
25250.00000	101.60901	2031.63431	101.60901
25300.00000	101.38690	2029.22385	101.38690
25350.00000	101.34079	2022.32601	101.34079
25400.00000	101.27263	2019.09838	101.27263
25450.00000	101.20466	2016.87454	101.20466
25500.00000	100.92359	2015.08209	100.92359
25550.00000	100.85938	2010.57695	100.85938
25600.00000	100.80973	2006.97222	100.80973
25650.00000	100.54071	2006.39850	100.54071
25700.00000	100.44700	2003.08254	100.44700
25750.00000	100.03950	2000.11894	100.03950
25800.00000	100.03332	1995.55596	100.03332
25850.00000	99.82788	1993.13655	99.82788
25900.00000	99.56391	1989.61541	99.56391
25950.00000	99.23384	1990.36843	99.23384
26000.00000	99.20100	1984.87643	99.20100
26050.00000	99.07041	1982.94863	99.07041
26100.00000	98.82841	1980.69485	98.82841
26150.00000	98.80639	1977.17072	98.80639
26200.00000	98.59278	1974.70327	98.59278
26250.00000	98.27414	1972.46272	98.27414
26300.00000	98.25693	1968.50012	98.25693
26350.00000	97.61671	1967.85168	97.61671
26400.00000	97.54941	1964.56655	97.54941
26450.00000	97.66592	1961.04676	97.66592
26500.00000	97.15007	1960.08565	97.15007
26550.00000	96.88044	1953.32342	96.88044
26600.00000	96.64088	1951.99557	96.64088
26650.00000	96.57829	1952.08874	96.57829
26700.00000	96.43476	1948.93312	96.43476
26750.00000	96.01250	1946.37777	96.01250
26800.00000	95.77548	1941.95416	95.77548
26850.00000	95.86719	1941.31282	95.86719
26900.00000	95.57954	1940.28078	95.57954
26950.00000	95.56355	1937.02454	95.56355
27000.00000	94.93518	1936.78514	94.93518
27050.00000	94.97364	1934.10831	94.97364
27100.00000	94.36644	1932.79200	94.36644
27150.00000	94.39057	1929.61864	94.39057
27200.00000	94.33714	1927.39578	94.33714
27250.00000	93.95204	1928.83588	93.95204
27300.00000	93.34781	1925.44699	93.34781
27350.00000	93.59225	1926.31712	93.59225
27400.00000	93.15427	1924.46663	93.15427
27450.00000	93.02292	1924.00730	93.02292
27500.00000	92.93099	1921.73730	92.93099
27550.00000	92.88708	1920.32139	92.88708
27600.00000	93.09805	1918.48026	93.09805
27650.00000	92.59785	1919.78258	92.59785
27700.00000	92.51247	1915.13359	92.51247
27750.00000	92.49964	1914.48741	92.49964
27800.00000	92.63975	1910.86486	92.63975
27850.00000	92.65678	1915.67653	92.65678
27900.00000	92.67126	1913.28368	92.67126
27950.00000	91.80474	1912.33571	91.80474
28000.00000	92.12906	1912.87255	92.12906
28050.00000	92.76677	1909.77210	92.76677
28100.00000	92.20617	1908.34086	92.20617
28150.00000	92.36684	1909.88938	92.36684
28200.00000	92.61182	1904.11872	92.61182
28250.00000	92.38072	1901.34132	92.38072
28300.00000	92.23274	1902.86972	92.23274
28350.00000	92.44836	1903.17803	92.44836
28400.00000	92.41866	1903.79507	92.41866
28450.00000	92.84420	1899.47869	92.84420
28500.00000	92.70969	1900.09471	92.70969
28550.00000	92.70696	1899.86550	92.70696
28600.00000	93.08522	1898.07064	93.08522
28650.00000	93.13301	1894.52449	93.13301
28700.00000	93.47496	1896.20327	93.47496
28750.00000	93.96225	1894.77127	93.96225
28800.00000	93.81625	1893.31928	93.81625
28850.00000	93.26251	1888.83836	93.26251
28900.00000	93.87039	1887.73955	93.87039
28950.00000	93.76914	1888.00729	93.76914
29000.00000	94.06014	1884.53772	94.06014
29050.00000	93.90967	1886.31278	93.90967
29100.00000	94.04873	1884.51463	94.04873
29150.00000	94.24840	1882.74545	94.24840
29200.00000	94.17444	1880.36221	94.17444
29250.00000	94.58492	1878.48077	94.58492
29300.00000	94.42697	1877.26412	94.42697
29350.00000	94.94418	1874.23782	94.94418
29400.00000	95.09981	1873.38878	95.09981
29450.00000	94.78436	1871.56477	94.78436
29500.00000	95.42775	1870.09348	95.42775
29550.00000	95.17944	1865.45563	95.17944
29600.00000	95.15705	1864.56311	95.15705
29650.00000	95.43890	1862.46665	95.43890
29700.00000	95.30043	1862.91251	95.30043
29750.00000	95.42693	1861.57450	95.42693
29800.00000	95.19239	1858.57644	95.19239
29850.00000	95.23569	1855.92455	95.23569
29900.00000	95.60191	1856.47599	95.60191
29950.00000	94.96429	1855.46106	94.96429
30000.00000	95.32651	1856.12722	95.32651
30050.00000	95.45250	1852.58302	95.45250
30100.00000	95.15829	1852.66144	95.15829
30150.00000	95.21552	1849.60793	95.21552
30200.00000	95.23566	1848.30653	95.23566
30250.00000	95.02542	1848.67035	95.02542
30300.00000	94.86317	1849.28989	94.86317
30350.00000	94.85309	1850.84357	94.85309
30400.00000	94.84921	1848.79391	94.84921
30450.00000	94.59079	1848.17563	94.59079
30500.00000	94.63728	1848.47484	94.63728
30550.00000	94.49384	1850.01640	94.49384
30600.00000	94.54389	1852.20754	94.54389
30650.00000	94.67414	1852.01292	94.67414
30700.00000	94.72813	1851.75377	94.72813
30750.00000	94.60929	1854.95801	94.60929
30800.00000	94.81697	1855.30940	94.81697
30850.00000	95.04936	1857.66272	95.04936
30900.00000	94.96274	1860.02484	94.96274
30950.00000	95.52119	1860.30445	95.52119
31000.00000	95.74445	1860.97305	95.74445
31050.00000	96.08628	1862.88265	96.08628
31100.00000	96.70136	1864.02388	96.70136
31150.00000	96.79588	1864.13964	96.79588
31200.00000	97.61068	1864.76044	97.61068
31250.00000	97.97640	1864.83379	97.97640
31300.00000	98.58511	1864.24523	98.58511
31350.00000	99.16735	1863.58821	99.16735
31400.00000	99.55087	1861.88853	99.55087
31450.00000	100.14604	1860.96805	100.14604
31500.00000	100.49230	1857.74893	100.49230
31550.00000	101.09380	1856.41404	101.09380
31600.00000	101.70329	1853.40341	101.70329
31650.00000	102.06672	1850.05059	102.06672
31700.00000	102.48309	1847.70805	102.48309
31750.00000	102.97996	1845.91478	102.97996
31800.00000	103.22954	1841.03007	103.22954
31850.00000	103.63863	1837.22856	103.63863
31900.00000	103.82921	1834.46249	103.82921
31950.00000	104.14528	1830.26485	104.14528
32000.00000	104.40718	1826.07649	104.40718
32050.00000	104.67325	1822.87481	104.67325
32100.00000	104.73543	1817.94598	104.73543
32150.00000	104.88556	1815.48491	104.88556
32200.00000	105.16218	1810.49993	105.16218
32250.00000	105.19360	1805.84959	105.19360
32300.00000	105.26033	1802.33048	105.26033
32350.00000	105.26023	1798.95379	105.26023
32400.00000	105.43425	1794.89492	105.43425
32450.00000	105.35727	1790.66252	105.35727
32500.00000	105.45483	1787.52937	105.45483
32550.00000	105.53786	1782.94270	105.53786
32600.00000	105.41955	1779.33803	105.41955
32650.00000	105.54137	1775.88985	105.54137
32700.00000	105.34332	1771.99472	105.34332
32750.00000	105.29423	1767.81131	105.29423
32800.00000	105.44710	1764.51587	105.44710
32850.00000	105.44653	1761.77293	105.44653
32900.00000	105.28985	1756.46099	105.28985
32950.00000	105.18454	1752.41108	105.18454
33000.00000	104.98738	1750.27410	104.98738
33050.00000	104.97982	1744.75604	104.97982
33100.00000	104.99576	1741.80170	104.99576
33150.00000	104.97827	1739.47988	104.97827
33200.00000	104.93587	1737.56859	104.93587
33250.00000	104.80930	1733.02740	104.80930
33300.00000	104.66387	1729.49584	104.66387
33350.00000	104.48771	1727.08136	104.48771
33400.00000	104.41778	1723.63178	104.41778
33450.00000	104.46405	1720.73752	104.46405
33500.00000	104.67812	1718.52271	104.67812
33550.00000	104.29474	1714.13279	104.29474
33600.00000	104.48125	1712.13137	104.48125
33650.00000	104.42157	1708.04117	104.42157
33700.00000	104.33958	1705.09672	104.33958
33750.00000	104.23626	1702.59670	104.23626
33800.00000	104.44309	1698.98779	104.44309
33850.00000	104.09329	1696.01107	104.09329
33900.00000	104.19797	1692.35932	104.19797
33950.00000	104.11255	1690.08026	104.11255
34000.00000	104.36248	1684.87009	104.36248
34050.00000	104.25783	1681.47580	104.25783
34100.00000	103.87779	1678.94806	103.87779
34150.00000	103.96844	1675.12194	103.96844
34200.00000	104.13534	1673.36084	104.13534
34250.00000	103.96195	1669.73891	103.96195
34300.00000	103.97891	1665.09140	103.97891
34350.00000	103.67906	1661.03668	103.67906
34400.00000	103.20291	1661.54124	103.20291
34450.00000	103.53941	1655.54306	103.53941
34500.00000	103.15868	1654.53702	103.15868
34550.00000	103.06378	1651.79089	103.06378
34600.00000	102.83633	1647.57477	102.83633
34650.00000	103.05431	1648.24557	103.05431
34700.00000	102.31094	1646.65024	102.31094
34750.00000	102.72004	1641.56675	102.72004
34800.00000	102.78159	1641.05170	102.78159
34850.00000	102.86709	1640.32354	102.86709
34900.00000	102.89214	1635.38681	102.89214
34950.00000	102.78114	1635.77405	102.78114
35000.00000	102.67070	1631.29682	102.67070
35050.00000	102.59423	1631.02543	102.59423
35100.00000	102.90339	1629.13508	102.90339
35150.00000	102.55397	1628.33159	102.55397
35200.00000	102.26991	1626.14016	102.26991
35250.00000	102.69020	1623.70352	102.69020
35300.00000	102.69604	1622.80694	102.69604
35350.00000	102.72791	1621.70977	102.72791
35400.00000	103.03162	1618.16731	103.03162
35450.00000	103.01341	1618.25108	103.01341
35500.00000	102.73366	1615.82540	102.73366
35550.00000	103.33484	1613.38723	103.33484
35600.00000	103.00440	1610.62394	103.00440
35650.00000	103.20443	1610.16792	103.20443
35700.00000	103.20171	1608.67056	103.20171
35750.00000	103.47337	1608.94756	103.47337
35800.00000	103.66698	1604.89886	103.66698
35850.00000	103.78533	1602.92594	103.78533
35900.00000	103.96010	1600.98223	103.96010
35950.00000	103.93105	1598.99257	103.93105
36000.00000	103.96999	1597.37623	103.96999
36050.00000	104.21776	1596.09402	104.21776
36100.00000	104.72178	1593.87008	104.72178
36150.00000	104.58969	1592.48626	104.58969
36200.00000	104.43782	1590.04802	104.43782
36250.00000	104.93730	1590.54344	104.93730
36300.00000	104.91052	1587.31300	104.91052
36350.00000	105.13130	1585.62344	105.13130
36400.00000	105.27107	1584.53037	105.27107
36450.00000	105.28255	1581.04550	105.28255
36500.00000	105.53963	1579.46113	105.53963
36550.00000	105.29325	1578.43019	105.29325
36600.00000	105.56351	1577.92033	105.56351
36650.00000	105.70602	1575.73796	105.70602
36700.00000	105.87493	1573.32740	105.87493
36750.00000	106.08963	1572.08790	106.08963
36800.00000	106.43283	1571.51065	106.43283
36850.00000	106.41447	1568.32724	106.41447
36900.00000	106.44265	1566.91603	106.44265
36950.00000	106.51271	1564.05204	106.51271
37000.00000	106.37925	1563.70471	106.37925
37050.00000	106.36254	1564.17865	106.36254
37100.00000	106.91325	1561.91423	106.91325
37150.00000	107.22480	1558.56803	107.22480
37200.00000	107.31943	1561.35159	107.31943
37250.00000	107.23307	1557.75789	107.23307
37300.00000	107.41012	1556.97134	107.41012
37350.00000	107.76572	1556.76810	107.76572
37400.00000	107.45291	1554.17959	107.45291
37450.00000	107.59955	1553.51171	107.59955
37500.00000	108.15312	1551.71911	108.15312
37550.00000	108.08554	1550.82436	108.08554
37600.00000	108.50351	1552.90683	108.50351
37650.00000	108.43125	1548.84519	108.43125
37700.00000	108.82501	1547.71476	108.82501
37750.00000	109.04431	1545.81322	109.04431
37800.00000	109.31761	1543.51689	109.31761
37850.00000	109.55859	1540.66020	109.55859
37900.00000	109.84971	1537.93756	109.84971
37950.00000	110.02851	1537.76479	110.02851
38000.00000	110.27472	1535.63861	110.27472
38050.00000	110.46353	1533.33364	110.46353
38100.00000	110.74429	1529.58457	110.74429
38150.00000	110.82334	1525.53652	110.82334
38200.00000	111.17654	1523.04603	111.17654
38250.00000	111.34211	1521.19512	111.34211
38300.00000	111.59868	1516.81606	111.59868
38350.00000	111.58775	1514.84806	111.58775
38400.00000	111.89334	1511.74564	111.89334
38450.00000	112.10292	1507.63379	112.10292
38500.00000	112.29289	1502.58684	112.29289
38550.00000	112.64757	1498.68421	112.64757
38600.00000	112.69647	1494.77393	112.69647
38650.00000	112.64058	1489.76201	112.64058
38700.00000	112.80765	1485.58415	112.80765
38750.00000	112.90079	1481.90301	112.90079
38800.00000	112.98839	1477.72541	112.98839
38850.00000	113.10340	1473.26172	113.10340
38900.00000	113.11747	1468.27485	113.11747
38950.00000	113.14598	1463.31639	113.14598
39000.00000	113.12521	1458.29981	113.12521
39050.00000	113.22038	1453.59994	113.22038
39100.00000	113.00723	1449.37090	113.00723
39150.00000	112.97325	1444.79813	112.97325
39200.00000	112.92827	1440.26632	112.92827
39250.00000	112.81270	1434.75471	112.81270
39300.00000	112.77322	1429.86602	112.77322
39350.00000	112.63954	1426.61187	112.63954
39400.00000	112.50672	1420.98128	112.50672
39450.00000	112.33406	1416.48809	112.33406
39500.00000	112.17290	1411.62449	112.17290
39550.00000	111.98229	1406.38223	111.98229
39600.00000	111.67243	1403.39809	111.67243
39650.00000	111.49227	1399.42227	111.49227
39700.00000	111.30209	1394.89092	111.30209
39750.00000	111.07926	1390.35036	111.07926
39800.00000	110.87830	1386.94620	110.87830
39850.00000	110.57324	1382.83712	110.57324
39900.00000	110.35378	1379.73542	110.35378
39950.00000	110.13861	1375.53538	110.13861
40000.00000	109.72418	1373.36569	109.72418
40050.00000	109.55979	1368.80133	109.55979
40100.00000	109.34912	1365.46606	109.34912
40150.00000	109.01660	1361.67862	109.01660
40200.00000	108.85123	1358.50147	108.85123
40250.00000	108.56200	1356.42582	108.56200
40300.00000	108.40811	1353.37790	108.40811
40350.00000	108.08845	1351.47765	108.08845
40400.00000	107.80368	1348.98624	107.80368
40450.00000	107.69891	1347.11082	107.69891
40500.00000	107.43464	1344.82081	107.43464
40550.00000	107.31235	1341.64966	107.31235
40600.00000	107.10149	1340.38044	107.10149
40650.00000	106.77608	1339.51837	106.77608
40700.00000	106.52622	1339.08493	106.52622
40750.00000	106.60709	1336.80801	106.60709
40800.00000	106.49237	1333.76035	106.49237
40850.00000	106.27774	1333.81276	106.27774
40900.00000	106.16244	1332.16069	106.16244
40950.00000	106.04150	1332.10253	106.04150
41000.00000	105.79005	1331.23678	105.79005
41050.00000	105.92002	1331.32052	105.92002
41100.00000	106.12086	1329.76400	106.12086
41150.00000	106.25460	1329.58913	106.25460
41200.00000	106.41590	1329.17490	106.41590
41250.00000	106.26275	1326.57212	106.26275
41300.00000	106.22813	1326.78674	106.22813
41350.00000	106.49428	1328.03822	106.49428
41400.00000	106.72823	1323.09861	106.72823
41450.00000	107.05271	1323.70233	107.05271
41500.00000	106.89161	1322.36617	106.89161
41550.00000	107.07236	1327.07340	107.07236
41600.00000	106.89189	1324.02940	106.89189
41650.00000	107.67183	1320.72572	107.67183
41700.00000	107.86361	1320.74455	107.86361
41750.00000	107.84423	1324.28619	107.84423
41800.00000	107.30087	1318.91334	107.30087
41850.00000	107.53067	1319.76480	107.53067
41900.00000	107.35443	1317.68127	107.35443
41950.00000	108.70041	1322.34990	108.70041
42000.00000	107.83599	1314.23718	107.83599
42050.00000	107.48033	1314.41689	107.48033
42100.00000	107.78663	1313.66293	107.78663
42150.00000	107.30199	1307.53407	107.30199
42200.00000	107.60920	1312.78945	107.60920
42250.00000	107.79780	1312.20077	107.79780
42300.00000	107.01134	1308.53947	107.01134
42350.00000	107.62174	1307.46178	107.62174
42400.00000	107.44641	1309.43861	107.44641
42450.00000	107.52296	1303.22882	107.52296
42500.00000	107.19598	1303.73487	107.19598
42550.00000	107.61952	1312.56316	107.61952
42600.00000	106.83822	1306.78970	106.83822
42650.00000	106.81752	1305.07141	106.81752
42700.00000	106.20629	1303.38497	106.20629
42750.00000	107.37316	1299.07792	107.37316
42800.00000	106.33320	1295.93839	106.33320
42850.00000	105.82863	1296.05632	105.82863
42900.00000	107.23409	1297.78582	107.23409
42950.00000	106.30297	1292.01580	106.30297
43000.00000	106.36177	1284.69119	106.36177
43050.00000	105.87568	1283.58325	105.87568
43100.00000	106.51719	1288.66689	106.51719
43150.00000	104.97091	1283.46391	104.97091
43200.00000	105.46315	1281.06482	105.46315
43250.00000	104.91413	1277.71773	104.91413
43300.00000	105.38193	1277.21131	105.38193
43350.00000	105.82375	1273.34508	105.82375
43400.00000	104.95630	1270.83958	104.95630
43450.00000	106.01038	1272.62589	106.01038
43500.00000	104.60312	1262.89444	104.60312
43550.00000	104.89084	1262.38568	104.89084
43600.00000	104.89629	1257.86990	104.89629
43650.00000	104.97122	1246.71603	104.97122
43700.00000	104.70814	1246.36261	104.70814
43750.00000	103.57895	1245.60272	103.57895
43800.00000	103.60963	1238.26516	103.60963
43850.00000	104.05643	1229.40191	104.05643
43900.00000	103.87820	1227.74848	103.87820
43950.00000	104.30431	1223.23582	104.30431
44000.00000	102.97440	1222.85813	102.97440
44050.00000	103.19486	1216.99818	103.19486
44100.00000	103.21117	1205.06055	103.21117
44150.00000	102.93613	1210.49331	102.93613
44200.00000	101.55866	1209.92840	101.55866
44250.00000	102.06862	1200.42589	102.06862
44300.00000	101.85041	1192.92404	101.85041
44350.00000	101.03502	1187.93328	101.03502
44400.00000	101.66405	1186.82735	101.66405
44450.00000	101.59462	1184.79800	101.59462
44500.00000	100.55632	1178.29683	100.55632
44550.00000	101.47561	1171.54596	101.47561
44600.00000	100.46066	1173.44520	100.46066
44650.00000	99.40493	1161.91976	99.40493
44700.00000	99.32567	1156.01023	99.32567
44750.00000	99.20898	1161.60165	99.20898
44800.00000	99.69376	1157.33441	99.69376
44850.00000	99.18466	1149.50271	99.18466
44900.00000	98.58389	1146.39403	98.58389
44950.00000	99.45224	1142.77445	99.45224
45000.00000	100.19144	1132.45535	100.19144
45050.00000	97.88372	1132.08898	97.88372
45100.00000	98.31874	1126.42765	98.31874
45150.00000	98.28381	1122.78301	98.28381
45200.00000	98.36981	1122.53461	98.36981
45250.00000	98.10111	1118.74421	98.10111
45300.00000	97.70035	1110.30311	97.70035
45350.00000	97.75384	1097.98658	97.75384
45400.00000	96.47779	1090.22507	96.47779
45450.00000	96.93373	1089.11956	96.93373
45500.00000	96.32968	1084.96490	96.32968
45550.00000	95.35185	1080.57917	95.35185
45600.00000	96.41249	1070.27730	96.41249
45650.00000	94.76013	1063.84741	94.76013
45700.00000	94.21820	1062.55741	94.21820
45750.00000	94.85164	1064.78879	94.85164
45800.00000	94.29734	1050.62008	94.29734
45850.00000	92.63623	1052.83663	92.63623
45900.00000	94.28176	1043.21073	94.28176
45950.00000	93.21802	1048.65538	93.21802
46000.00000	93.60794	1029.84618	93.60794
46050.00000	92.08510	1022.67227	92.08510
46100.00000	89.32869	1024.43512	89.32869
46150.00000	90.83568	1024.39865	90.83568
46200.00000	87.55772	1013.83804	87.55772
46250.00000	88.40012	1010.37339	88.40012
46300.00000	87.50581	1025.49669	87.50581
46350.00000	87.26435	1004.82698	87.26435
46400.00000	86.92958	978.91990	86.92958
46450.00000	83.75870	986.17024	83.75870
46500.00000	86.14661	992.31120	86.14661
46550.00000	84.31822	998.50419	84.31822
46600.00000	85.36970	1012.86324	85.36970
46650.00000	80.79434	981.86331	80.79434
46700.00000	82.54134	1001.16904	82.54134
46750.00000	81.45507	1009.38852	81.45507
46800.00000	79.69756	994.31223	79.69756
46850.00000	81.82998	655.11332	81.82998
46900.00000	82.21689	627.38651	82.21689
46950.00000	82.65014	648.62690	82.65014
47000.00000	81.49908	635.45044	81.49908
47050.00000	81.09268	619.09119	81.09268
47100.00000	82.55178	631.98904	82.55178
47150.00000	81.04726	636.88349	81.04726
47200.00000	80.28180	637.62975	80.28180
47250.00000	80.86642	600.71290	80.86642
47300.00000	80.49841	614.08501	80.49841
47350.00000	78.08693	259.54399	78.08693
47400.00000	80.74452	247.32995	80.74452
47450.00000	80.27300	248.70601	80.27300
47500.00000	79.60072	252.16044	79.60072
47550.00000	77.78337	-101.07263	77.78337
47600.00000	76.41175	-101.44374	76.41175
47650.00000	81.50085	-130.09834	81.50085
47700.00000	80.63255	-127.69651	80.63255
47750.00000	80.76622	-96.78434	80.76622
47800.00000	78.58586	-107.22742	78.58586
47850.00000	80.18199	-471.50918	80.18199
47900.00000	79.25470	-811.53848	79.25470
47950.00000	76.34193	-842.74990	76.34193
48000.00000	78.19899	-848.79695	78.19899
48050.00000	82.89388	-821.88713	82.89388
48100.00000	80.41521	-846.51038	80.41521
48150.00000	80.45882	-1212.22531	80.45882
48200.00000	81.40642	-1200.10652	81.40642
48250.00000	79.59940	-1212.48825	79.59940
48300.00000	77.83554	-1213.82697	77.83554
48350.00000	78.49567	-1225.00031	78.49567
48400.00000	80.64778	-1580.74131	80.64778
48450.00000	80.13903	-1587.75831	80.13903
48500.00000	79.19110	-1596.87704	79.19110
48550.00000	80.30104	-1578.79121	80.30104
48600.00000	79.79671	-1954.30226	79.79671
48650.00000	77.38057	-1962.61291	77.38057
48700.00000	77.37466	-1974.81686	77.37466
48750.00000	77.37773	-2332.35199	77.37773
48800.00000	78.48251	-2326.25490	78.48251
48850.00000	79.43954	-2322.00579	79.43954
48900.00000	79.77829	-2703.63532	79.77829
48950.00000	80.09018	-2720.05084	80.09018
49000.00000	78.78431	-2739.61842	78.78431
49050.00000	76.67312	-2734.83981	76.67312
49100.00000	74.84566	-3051.17291	74.84566
49150.00000	80.29326	-3438.83145	80.29326
49200.00000	74.97609	-3376.88717	74.97609
49250.00000	81.45230	-3799.06544	81.45230
49300.00000	78.98276	-3405.13267	78.98276
49350.00000	76.44425	-3477.62457	76.44425
49400.00000	77.87867	-3095.38277	77.87867
49450.00000	71.26026	-2674.43307	71.26026
49500.00000	73.38797	-2391.25834	73.38797
49550.00000	80.21168	-2041.29020	80.21168
49600.00000	74.80590	-2027.63904	74.80590
49650.00000	75.73610	-2060.22755	75.73610
49700.00000	80.10823	-1686.10561	80.10823
49750.00000	81.82556	-1752.75133	81.82556
49800.00000	68.49181	-1609.74328	68.49181
49850.00000	75.78457	-1641.46026	75.78457
49900.00000	76.23397	-1302.12413	76.23397
49950.00000	81.87131	-1030.61229	81.87131
