---ACOUSTIC CALIBRATION---
Filename: C:\Data\CL0809 DATA\CL0809200\RightPrimary.calib
Date: 8/9/2019 10:17:18 AM
Format: 4
Probe Tube Correction File: C:\Data\Probe Tube Calibrations\74_ProbeTube.calib
Experiment VIs: 2128
EPL_CFTS.exe V15.0.1f5 (2015)
DAQmx V15.1

Attenuation (dB): 40.000000
Min Freq (Hz): 50.000000
Max Freq (Hz): 99950.000000
Freq Step (Hz): 50.000000
Sample Rate (Hz): 200000.000000
[Smoothing]
Method=None
MA.Iterations=0
MA.Length=0
Loess.Length=0
Loess.Type=Linear
Loess.Robust=FALSE


Freq(Hz)	Mag(dB)	Phase(deg)	Unsmoothed(dB)

50.00000	80.19216	195.59787	80.19216
100.00000	57.96386	10.25051	57.96386
150.00000	54.54657	175.38888	54.54657
200.00000	59.29674	415.01354	59.29674
250.00000	54.47623	636.76703	54.47623
300.00000	62.28288	798.03141	62.28288
350.00000	61.49121	1009.86288	61.49121
400.00000	58.22610	1068.12656	58.22610
450.00000	61.35190	1108.72742	61.35190
500.00000	63.73243	1215.54464	63.73243
550.00000	70.53850	1154.33263	70.53850
600.00000	68.27804	1128.14314	68.27804
650.00000	75.56240	1120.22557	75.56240
700.00000	75.03765	1122.61836	75.03765
750.00000	78.97328	1091.36287	78.97328
800.00000	78.95957	1076.47851	78.95957
850.00000	77.60798	1074.95041	77.60798
900.00000	78.05660	1084.66501	78.05660
950.00000	80.90343	1081.45016	80.90343
1000.00000	83.12466	1085.07717	83.12466
1050.00000	86.26143	1078.26845	86.26143
1100.00000	88.86486	1064.61158	88.86486
1150.00000	90.65435	1049.15161	90.65435
1200.00000	91.45298	1035.54708	91.45298
1250.00000	91.71542	1024.76917	91.71542
1300.00000	92.53609	1019.43595	92.53609
1350.00000	93.98907	1010.75054	93.98907
1400.00000	95.02809	998.52841	95.02809
1450.00000	95.28339	985.87043	95.28339
1500.00000	95.36179	976.43439	95.36179
1550.00000	95.41149	969.07544	95.41149
1600.00000	95.96049	965.24586	95.96049
1650.00000	96.63750	961.91117	96.63750
1700.00000	100.51059	945.94577	100.51059
1750.00000	97.48909	925.32231	97.48909
1800.00000	97.03761	919.56249	97.03761
1850.00000	96.58784	912.61867	96.58784
1900.00000	96.39891	906.85281	96.39891
1950.00000	95.80629	902.32964	95.80629
2000.00000	95.38131	899.92468	95.38131
2050.00000	95.68280	899.19341	95.68280
2100.00000	96.40726	894.35894	96.40726
2150.00000	96.90491	885.73806	96.90491
2200.00000	96.64693	874.47396	96.64693
2250.00000	95.64170	867.96279	95.64170
2300.00000	95.21927	867.25405	95.21927
2350.00000	95.42435	862.02961	95.42435
2400.00000	95.47085	856.21801	95.47085
2450.00000	95.03702	848.00078	95.03702
2500.00000	94.24958	844.62191	94.24958
2550.00000	93.97359	840.80926	93.97359
2600.00000	93.58557	835.98401	93.58557
2650.00000	93.09025	832.76115	93.09025
2700.00000	92.66402	829.12114	92.66402
2750.00000	92.11428	826.31516	92.11428
2800.00000	91.58871	823.19294	91.58871
2850.00000	91.12324	820.81858	91.12324
2900.00000	90.72929	820.03403	90.72929
2950.00000	90.39629	819.05854	90.39629
3000.00000	90.10962	817.98164	90.10962
3050.00000	89.98690	816.36875	89.98690
3100.00000	89.82768	813.81116	89.82768
3150.00000	89.44219	811.29494	89.44219
3200.00000	89.10675	808.28966	89.10675
3250.00000	88.77938	806.72596	88.77938
3300.00000	88.20722	804.23035	88.20722
3350.00000	87.80076	803.99646	87.80076
3400.00000	87.44413	803.00772	87.44413
3450.00000	86.92372	802.57722	86.92372
3500.00000	86.48332	801.98670	86.48332
3550.00000	86.29355	799.64045	86.29355
3600.00000	85.46541	796.08777	85.46541
3650.00000	84.30572	796.36603	84.30572
3700.00000	82.91399	797.25816	82.91399
3750.00000	81.62289	800.63217	81.62289
3800.00000	80.49361	808.00249	80.49361
3850.00000	79.69555	814.70993	79.69555
3900.00000	79.30731	825.66699	79.30731
3950.00000	78.52001	838.14849	78.52001
4000.00000	78.49298	855.45696	78.49298
4050.00000	80.53637	873.00515	80.53637
4100.00000	82.75750	880.77733	82.75750
4150.00000	85.48088	882.91527	85.48088
4200.00000	87.39644	883.30823	87.39644
4250.00000	88.22680	875.41870	88.22680
4300.00000	88.98502	878.27945	88.98502
4350.00000	90.53654	880.49037	90.53654
4400.00000	92.21117	876.54751	92.21117
4450.00000	93.21215	870.86470	93.21215
4500.00000	94.15373	866.50649	94.15373
4550.00000	94.80336	862.62065	94.80336
4600.00000	95.47536	858.39637	95.47536
4650.00000	96.04381	855.77468	96.04381
4700.00000	96.67501	854.35765	96.67501
4750.00000	97.51586	852.80920	97.51586
4800.00000	98.47538	850.72923	98.47538
4850.00000	99.47142	847.80596	99.47142
4900.00000	100.53349	843.78652	100.53349
4950.00000	101.60678	839.66311	101.60678
5000.00000	102.72470	834.77367	102.72470
5050.00000	103.96135	829.33594	103.96135
5100.00000	105.38595	822.91790	105.38595
5150.00000	107.13256	814.51534	107.13256
5200.00000	109.39515	801.29516	109.39515
5250.00000	112.01196	774.58424	112.01196
5300.00000	111.34089	726.19414	111.34089
5350.00000	105.47101	697.21581	105.47101
5400.00000	99.53950	698.64980	99.53950
5450.00000	96.60312	717.11554	96.60312
5500.00000	95.81173	724.99918	95.81173
5550.00000	93.64620	732.59200	93.64620
5600.00000	92.59805	755.44415	92.59805
5650.00000	94.40923	773.32704	94.40923
5700.00000	96.60815	778.09023	96.60815
5750.00000	98.32245	776.69807	98.32245
5800.00000	99.49431	772.87521	99.49431
5850.00000	100.15894	768.15920	100.15894
5900.00000	100.47935	764.23247	100.47935
5950.00000	100.65965	762.29361	100.65965
6000.00000	100.93733	761.83030	100.93733
6050.00000	101.37912	761.76794	101.37912
6100.00000	101.97311	761.54099	101.97311
6150.00000	102.65773	760.89248	102.65773
6200.00000	103.44184	759.99204	103.44184
6250.00000	104.30281	758.32879	104.30281
6300.00000	105.22863	755.97406	105.22863
6350.00000	106.20296	752.83619	106.20296
6400.00000	107.19593	748.82963	107.19593
6450.00000	108.16330	743.81873	108.16330
6500.00000	109.08874	738.14893	109.08874
6550.00000	109.99396	731.75497	109.99396
6600.00000	110.85904	724.71483	110.85904
6650.00000	111.69582	716.79339	111.69582
6700.00000	112.46133	707.64444	112.46133
6750.00000	113.06909	697.40079	113.06909
6800.00000	113.43778	686.34479	113.43778
6850.00000	113.52805	675.13380	113.52805
6900.00000	113.36243	664.41531	113.36243
6950.00000	113.01226	654.70951	113.01226
7000.00000	112.55835	646.04465	112.55835
7050.00000	112.05264	638.47227	112.05264
7100.00000	111.52619	631.72880	111.52619
7150.00000	111.00875	625.81010	111.00875
7200.00000	110.51882	620.61781	110.51882
7250.00000	110.09955	615.89074	110.09955
7300.00000	109.74700	611.33261	109.74700
7350.00000	109.42395	606.47084	109.42395
7400.00000	109.08721	601.75059	109.08721
7450.00000	108.74424	596.92989	108.74424
7500.00000	108.35733	592.22849	108.35733
7550.00000	107.94867	587.52419	107.94867
7600.00000	107.49713	583.27215	107.49713
7650.00000	107.05189	579.10535	107.05189
7700.00000	106.59236	575.39681	106.59236
7750.00000	106.11673	571.98450	106.11673
7800.00000	105.66640	568.88248	105.66640
7850.00000	105.23733	565.92138	105.23733
7900.00000	104.81333	563.18338	104.81333
7950.00000	104.41161	560.71876	104.41161
8000.00000	104.02434	558.53762	104.02434
8050.00000	103.63675	556.37340	103.63675
8100.00000	103.29815	554.52337	103.29815
8150.00000	102.99338	552.61409	102.99338
8200.00000	102.70764	550.90409	102.70764
8250.00000	102.43834	549.15503	102.43834
8300.00000	102.19537	547.51286	102.19537
8350.00000	101.95565	545.78373	101.95565
8400.00000	101.73767	544.45121	101.73767
8450.00000	101.52877	542.90713	101.52877
8500.00000	101.39134	541.69242	101.39134
8550.00000	101.24503	540.20194	101.24503
8600.00000	101.13738	538.87169	101.13738
8650.00000	101.06683	537.49135	101.06683
8700.00000	100.96111	535.95341	100.96111
8750.00000	100.93266	534.40718	100.93266
8800.00000	100.92472	532.90579	100.92472
8850.00000	100.90281	530.96755	100.90281
8900.00000	100.87811	529.35530	100.87811
8950.00000	100.89527	527.46009	100.89527
9000.00000	100.85588	525.70913	100.85588
9050.00000	100.93913	523.99183	100.93913
9100.00000	101.00476	521.83286	101.00476
9150.00000	101.08246	519.29262	101.08246
9200.00000	101.11881	516.91787	101.11881
9250.00000	101.18698	514.88352	101.18698
9300.00000	101.27803	511.94797	101.27803
9350.00000	101.34567	509.20453	101.34567
9400.00000	101.39443	506.23611	101.39443
9450.00000	101.45474	503.29453	101.45474
9500.00000	101.48369	500.16774	101.48369
9550.00000	101.51120	497.07188	101.51120
9600.00000	101.56213	494.00500	101.56213
9650.00000	101.61092	490.66055	101.61092
9700.00000	101.58266	486.88961	101.58266
9750.00000	101.52611	483.33648	101.52611
9800.00000	101.38525	479.89184	101.38525
9850.00000	101.21850	476.35287	101.21850
9900.00000	100.98970	473.78899	100.98970
9950.00000	100.65247	471.83721	100.65247
10000.00000	100.51083	472.60169	100.51083
10050.00000	100.92855	473.33506	100.92855
10100.00000	101.59131	470.09137	101.59131
10150.00000	101.87048	464.67955	101.87048
10200.00000	101.95756	459.63094	101.95756
10250.00000	101.95956	455.30840	101.95956
10300.00000	101.95513	451.12483	101.95513
10350.00000	101.91349	446.93740	101.91349
10400.00000	101.83449	442.81882	101.83449
10450.00000	101.80674	438.64923	101.80674
10500.00000	101.78279	434.38158	101.78279
10550.00000	101.75384	430.38307	101.75384
10600.00000	101.78333	425.74193	101.78333
10650.00000	101.72670	421.23239	101.72670
10700.00000	101.66388	416.37820	101.66388
10750.00000	101.59012	411.94995	101.59012
10800.00000	101.51862	406.65930	101.51862
10850.00000	101.37846	401.65083	101.37846
10900.00000	101.23316	396.66550	101.23316
10950.00000	101.06132	391.51629	101.06132
11000.00000	100.91460	386.24247	100.91460
11050.00000	100.57844	381.14924	100.57844
11100.00000	100.34367	376.05379	100.34367
11150.00000	100.03791	370.90183	100.03791
11200.00000	99.68370	365.62780	99.68370
11250.00000	99.23634	360.33629	99.23634
11300.00000	98.78647	355.44213	98.78647
11350.00000	98.32636	350.41551	98.32636
11400.00000	97.78939	345.47925	97.78939
11450.00000	97.26302	340.81474	97.26302
11500.00000	96.69555	336.15696	96.69555
11550.00000	96.10406	331.72267	96.10406
11600.00000	95.51047	327.50004	95.51047
11650.00000	94.88627	323.53403	94.88627
11700.00000	94.28231	319.66943	94.28231
11750.00000	93.64809	315.86419	93.64809
11800.00000	93.04231	312.75492	93.04231
11850.00000	92.45584	309.59263	92.45584
11900.00000	91.85284	307.27128	91.85284
11950.00000	91.33671	304.31111	91.33671
12000.00000	90.82484	301.91982	90.82484
12050.00000	90.28123	299.61142	90.28123
12100.00000	89.67843	296.78611	89.67843
12150.00000	89.05058	294.18860	89.05058
12200.00000	88.52017	292.02902	88.52017
12250.00000	87.88710	290.02341	87.88710
12300.00000	87.28714	287.43211	87.28714
12350.00000	86.68719	285.14038	86.68719
12400.00000	86.02122	282.47478	86.02122
12450.00000	85.70069	279.81350	85.70069
12500.00000	85.16815	277.04515	85.16815
12550.00000	84.46216	274.14838	84.46216
12600.00000	84.05054	271.60180	84.05054
12650.00000	83.53869	270.08257	83.53869
12700.00000	83.08311	266.83694	83.08311
12750.00000	82.66952	263.99152	82.66952
12800.00000	82.47062	260.73212	82.47062
12850.00000	82.03665	258.87491	82.03665
12900.00000	81.63597	253.90065	81.63597
12950.00000	81.34675	248.78993	81.34675
13000.00000	81.05577	244.49114	81.05577
13050.00000	80.98829	239.05680	80.98829
13100.00000	80.80926	233.98972	80.80926
13150.00000	81.11073	228.87052	81.11073
13200.00000	81.34252	219.72043	81.34252
13250.00000	82.17705	212.62055	82.17705
13300.00000	82.94122	208.82197	82.94122
13350.00000	84.14897	202.70604	84.14897
13400.00000	85.66900	202.04189	85.66900
13450.00000	86.69812	207.66013	86.69812
13500.00000	86.73957	218.25564	86.73957
13550.00000	86.08754	222.13372	86.08754
13600.00000	85.18823	221.19186	85.18823
13650.00000	84.07099	214.49368	84.07099
13700.00000	83.52732	206.60326	83.52732
13750.00000	83.19833	194.63965	83.19833
13800.00000	83.66167	182.23666	83.66167
13850.00000	84.31691	170.44865	84.31691
13900.00000	85.23737	156.80168	85.23737
13950.00000	86.65048	147.01885	86.65048
14000.00000	88.58217	137.94323	88.58217
14050.00000	90.97857	133.39185	90.97857
14100.00000	93.54428	132.68245	93.54428
14150.00000	95.36395	141.23820	95.36395
14200.00000	95.94759	151.68538	95.94759
14250.00000	95.20280	159.51010	95.20280
14300.00000	94.08022	159.32839	94.08022
14350.00000	93.29752	153.67840	93.29752
14400.00000	92.81999	147.29611	92.81999
14450.00000	92.59820	139.62750	92.59820
14500.00000	92.63563	130.04592	92.63563
14550.00000	93.09383	120.46470	93.09383
14600.00000	93.63717	112.66413	93.63717
14650.00000	94.39670	104.02306	94.39670
14700.00000	95.41257	95.29346	95.41257
14750.00000	96.53529	87.82353	96.53529
14800.00000	97.68868	82.48291	97.68868
14850.00000	98.96844	78.67187	98.96844
14900.00000	100.15260	77.11367	100.15260
14950.00000	101.00489	77.54508	101.00489
15000.00000	101.40579	77.55178	101.40579
15050.00000	101.41985	78.03941	101.41985
15100.00000	101.33674	75.47280	101.33674
15150.00000	101.10137	71.05774	101.10137
15200.00000	100.92517	65.64315	100.92517
15250.00000	100.72159	59.11968	100.72159
15300.00000	100.69319	52.10809	100.69319
15350.00000	100.96256	44.52715	100.96256
15400.00000	101.18629	36.91312	101.18629
15450.00000	101.54853	29.46645	101.54853
15500.00000	102.02251	23.22246	102.02251
15550.00000	102.46571	18.11804	102.46571
15600.00000	103.00528	13.89791	103.00528
15650.00000	103.45403	10.52258	103.45403
15700.00000	103.65703	 8.14817	103.65703
15750.00000	103.85542	 6.22025	103.85542
15800.00000	103.80453	 4.14710	103.80453
15850.00000	103.77250	 1.67703	103.77250
15900.00000	103.54891	-2.22403	103.54891
15950.00000	103.40299	-6.02943	103.40299
16000.00000	103.31099	-10.66062	103.31099
16050.00000	103.35050	-15.47995	103.35050
16100.00000	103.34442	-20.40197	103.34442
16150.00000	103.52922	-25.44317	103.52922
16200.00000	103.71465	-29.61233	103.71465
16250.00000	103.91865	-33.98983	103.91865
16300.00000	104.14896	-37.72779	104.14896
16350.00000	104.37678	-40.71606	104.37678
16400.00000	104.53464	-43.41498	104.53464
16450.00000	104.69796	-46.25207	104.69796
16500.00000	104.72072	-48.94791	104.72072
16550.00000	104.70954	-51.89033	104.70954
16600.00000	104.75161	-55.26064	104.75161
16650.00000	104.68408	-58.81116	104.68408
16700.00000	104.74839	-62.54496	104.74839
16750.00000	104.73069	-66.76201	104.73069
16800.00000	104.79353	-70.55150	104.79353
16850.00000	104.90449	-74.50913	104.90449
16900.00000	105.04756	-78.09345	105.04756
16950.00000	105.11325	-81.56041	105.11325
17000.00000	105.23131	-84.92940	105.23131
17050.00000	105.31111	-87.89182	105.31111
17100.00000	105.38583	-90.95256	105.38583
17150.00000	105.42657	-93.91998	105.42657
17200.00000	105.39826	-96.90439	105.39826
17250.00000	105.44987	-100.45123	105.44987
17300.00000	105.44888	-104.05844	105.44888
17350.00000	105.48683	-107.64012	105.48683
17400.00000	105.52618	-111.22756	105.52618
17450.00000	105.57718	-115.03848	105.57718
17500.00000	105.58485	-118.66752	105.58485
17550.00000	105.65148	-122.25723	105.65148
17600.00000	105.73635	-125.60080	105.73635
17650.00000	105.79044	-128.94279	105.79044
17700.00000	105.86555	-132.25025	105.86555
17750.00000	105.88883	-135.56818	105.88883
17800.00000	105.90264	-138.91646	105.90264
17850.00000	105.91735	-142.28697	105.91735
17900.00000	105.94705	-145.71690	105.94705
17950.00000	105.92497	-149.35733	105.92497
18000.00000	105.92325	-152.76881	105.92325
18050.00000	105.88381	-156.45047	105.88381
18100.00000	105.88938	-160.05705	105.88938
18150.00000	105.86384	-163.80678	105.86384
18200.00000	105.83395	-167.39835	105.83395
18250.00000	105.79607	-171.14625	105.79607
18300.00000	105.75817	-174.77672	105.75817
18350.00000	105.69791	-178.35909	105.69791
18400.00000	105.64153	-182.07648	105.64153
18450.00000	105.57483	-185.58136	105.57483
18500.00000	105.50462	-188.71370	105.50462
18550.00000	105.41684	-192.51771	105.41684
18600.00000	105.28934	-195.82969	105.28934
18650.00000	105.24117	-199.39966	105.24117
18700.00000	105.12692	-202.56373	105.12692
18750.00000	104.99946	-205.86606	104.99946
18800.00000	104.87219	-209.12510	104.87219
18850.00000	104.76761	-212.31066	104.76761
18900.00000	104.57945	-215.25925	104.57945
18950.00000	104.46747	-218.58924	104.46747
19000.00000	104.27958	-221.57951	104.27958
19050.00000	104.12532	-224.61982	104.12532
19100.00000	104.01565	-227.50870	104.01565
19150.00000	103.86047	-230.21545	103.86047
19200.00000	103.73241	-233.08658	103.73241
19250.00000	103.57416	-235.50363	103.57416
19300.00000	103.44970	-238.23548	103.44970
19350.00000	103.32543	-240.89684	103.32543
19400.00000	103.16542	-243.37409	103.16542
19450.00000	103.06156	-246.15129	103.06156
19500.00000	102.93677	-248.51405	102.93677
19550.00000	102.83748	-251.00339	102.83748
19600.00000	102.68244	-253.47542	102.68244
19650.00000	102.57918	-255.82632	102.57918
19700.00000	102.48212	-258.33409	102.48212
19750.00000	102.39143	-260.50957	102.39143
19800.00000	102.28709	-262.82737	102.28709
19850.00000	102.18338	-265.29823	102.18338
19900.00000	102.12226	-267.64053	102.12226
19950.00000	102.00542	-269.87050	102.00542
20000.00000	101.90007	-272.55285	101.90007
20050.00000	101.83437	-274.70883	101.83437
20100.00000	101.75089	-277.16530	101.75089
20150.00000	101.66694	-279.68333	101.66694
20200.00000	101.62845	-281.87669	101.62845
20250.00000	101.54157	-283.91856	101.54157
20300.00000	101.46247	-286.48945	101.46247
20350.00000	101.41861	-288.70104	101.41861
20400.00000	101.31591	-290.72129	101.31591
20450.00000	101.26263	-293.30338	101.26263
20500.00000	101.19445	-295.68289	101.19445
20550.00000	101.11972	-298.11687	101.11972
20600.00000	101.07736	-300.52421	101.07736
20650.00000	101.03671	-302.99495	101.03671
20700.00000	101.02222	-305.14943	101.02222
20750.00000	100.91797	-307.52082	100.91797
20800.00000	100.85696	-309.88754	100.85696
20850.00000	100.84192	-312.45020	100.84192
20900.00000	100.77253	-314.91577	100.77253
20950.00000	100.71765	-317.37576	100.71765
21000.00000	100.72847	-320.22102	100.72847
21050.00000	100.66304	-322.79780	100.66304
21100.00000	100.64934	-325.14369	100.64934
21150.00000	100.63019	-327.47934	100.63019
21200.00000	100.56703	-330.06394	100.56703
21250.00000	100.48399	-332.82801	100.48399
21300.00000	100.44590	-335.63173	100.44590
21350.00000	100.37244	-338.24172	100.37244
21400.00000	100.29883	-341.29952	100.29883
21450.00000	100.27878	-344.00340	100.27878
21500.00000	100.22093	-346.49349	100.22093
21550.00000	100.18487	-349.42134	100.18487
21600.00000	100.13823	-352.19229	100.13823
21650.00000	100.04056	-355.25246	100.04056
21700.00000	99.91950	-358.49616	99.91950
21750.00000	99.87802	-361.50013	99.87802
21800.00000	99.75976	-364.95646	99.75976
21850.00000	99.66417	-367.71421	99.66417
21900.00000	99.52231	-370.82151	99.52231
21950.00000	99.37243	-374.20415	99.37243
22000.00000	99.15176	-377.28234	99.15176
22050.00000	98.98973	-380.03001	98.98973
22100.00000	98.80270	-382.38889	98.80270
22150.00000	98.57091	-385.63457	98.57091
22200.00000	98.36405	-388.05141	98.36405
22250.00000	98.25684	-390.87971	98.25684
22300.00000	97.98150	-393.66130	97.98150
22350.00000	97.75965	-396.73248	97.75965
22400.00000	97.54377	-399.58306	97.54377
22450.00000	97.30446	-402.05441	97.30446
22500.00000	97.04302	-404.29820	97.04302
22550.00000	96.72116	-407.10410	96.72116
22600.00000	96.46857	-409.17730	96.46857
22650.00000	96.23828	-410.94539	96.23828
22700.00000	95.95865	-412.82602	95.95865
22750.00000	95.67295	-415.38507	95.67295
22800.00000	95.42023	-416.48571	95.42023
22850.00000	95.16602	-418.70879	95.16602
22900.00000	94.96149	-419.47984	94.96149
22950.00000	94.75776	-421.02457	94.75776
23000.00000	94.48211	-423.24601	94.48211
23050.00000	94.30153	-424.91193	94.30153
23100.00000	94.21913	-426.16841	94.21913
23150.00000	93.92981	-426.89716	93.92981
23200.00000	93.83028	-428.85438	93.83028
23250.00000	93.61396	-429.95274	93.61396
23300.00000	93.51198	-432.10193	93.51198
23350.00000	93.35796	-433.33567	93.35796
23400.00000	93.24408	-434.08725	93.24408
23450.00000	93.10790	-436.09113	93.10790
23500.00000	93.04901	-437.53717	93.04901
23550.00000	92.75676	-439.01392	92.75676
23600.00000	92.71632	-440.66481	92.71632
23650.00000	92.48884	-442.51655	92.48884
23700.00000	92.52798	-443.92242	92.52798
23750.00000	92.32323	-445.65356	92.32323
23800.00000	92.24898	-447.91648	92.24898
23850.00000	92.02556	-449.80121	92.02556
23900.00000	91.89490	-451.23641	91.89490
23950.00000	91.81517	-452.63285	91.81517
24000.00000	91.67507	-454.52076	91.67507
24050.00000	91.49643	-456.37219	91.49643
24100.00000	91.33742	-458.24582	91.33742
24150.00000	91.10796	-460.23539	91.10796
24200.00000	90.96202	-461.47210	90.96202
24250.00000	90.69437	-462.88556	90.69437
24300.00000	90.64910	-465.38242	90.64910
24350.00000	90.43770	-465.92586	90.43770
24400.00000	90.23024	-467.76414	90.23024
24450.00000	89.88964	-468.76983	89.88964
24500.00000	89.63246	-471.29174	89.63246
24550.00000	89.40842	-472.75710	89.40842
24600.00000	89.19436	-473.78251	89.19436
24650.00000	88.96871	-473.52344	88.96871
24700.00000	88.88647	-474.73305	88.88647
24750.00000	88.66565	-475.63118	88.66565
24800.00000	88.43419	-477.09315	88.43419
24850.00000	88.35518	-477.92964	88.35518
24900.00000	88.09990	-478.80460	88.09990
24950.00000	87.94247	-478.08920	87.94247
25000.00000	87.82426	-480.08434	87.82426
25050.00000	87.62389	-479.37419	87.62389
25100.00000	87.54930	-479.96116	87.54930
25150.00000	87.45809	-480.43406	87.45809
25200.00000	87.45589	-479.99495	87.45589
25250.00000	87.34068	-480.76092	87.34068
25300.00000	87.23041	-481.68584	87.23041
25350.00000	87.33171	-480.90635	87.33171
25400.00000	87.32974	-480.94665	87.32974
25450.00000	87.27179	-483.20488	87.27179
25500.00000	87.30388	-482.87581	87.30388
25550.00000	87.37893	-483.23066	87.37893
25600.00000	87.31368	-483.11939	87.31368
25650.00000	87.34831	-485.09076	87.34831
25700.00000	87.52565	-484.90950	87.52565
25750.00000	87.63673	-486.51278	87.63673
25800.00000	87.66760	-487.30353	87.66760
25850.00000	87.67393	-488.37459	87.67393
25900.00000	87.78032	-489.62824	87.78032
25950.00000	87.82906	-490.60204	87.82906
26000.00000	87.94492	-492.36891	87.94492
26050.00000	88.07234	-494.07984	88.07234
26100.00000	88.19472	-495.83984	88.19472
26150.00000	88.10103	-497.78723	88.10103
26200.00000	88.14590	-498.99110	88.14590
26250.00000	88.18531	-500.78463	88.18531
26300.00000	88.17278	-503.31393	88.17278
26350.00000	88.25345	-504.10578	88.25345
26400.00000	88.26655	-506.56635	88.26655
26450.00000	88.21287	-508.39402	88.21287
26500.00000	88.28903	-510.43226	88.28903
26550.00000	88.25104	-511.67688	88.25104
26600.00000	88.19018	-513.84477	88.19018
26650.00000	88.10246	-515.47554	88.10246
26700.00000	88.04705	-517.10463	88.04705
26750.00000	88.03771	-519.31767	88.03771
26800.00000	87.92175	-520.78176	87.92175
26850.00000	87.74984	-521.84761	87.74984
26900.00000	87.70866	-523.89707	87.70866
26950.00000	87.58675	-525.34149	87.58675
27000.00000	87.43619	-526.61050	87.43619
27050.00000	87.38727	-527.46730	87.38727
27100.00000	87.37742	-529.08690	87.37742
27150.00000	87.23940	-531.25262	87.23940
27200.00000	87.20837	-532.80686	87.20837
27250.00000	87.16549	-533.80586	87.16549
27300.00000	87.05289	-534.33913	87.05289
27350.00000	86.95489	-535.50337	86.95489
27400.00000	86.86421	-536.29544	86.86421
27450.00000	86.82712	-538.21709	86.82712
27500.00000	86.73745	-538.78286	86.73745
27550.00000	86.60497	-540.20529	86.60497
27600.00000	86.59954	-541.05137	86.59954
27650.00000	86.47672	-541.59751	86.47672
27700.00000	86.30820	-543.46134	86.30820
27750.00000	86.26583	-543.90051	86.26583
27800.00000	86.14928	-544.57855	86.14928
27850.00000	86.10141	-545.33286	86.10141
27900.00000	86.10034	-546.35706	86.10034
27950.00000	86.05478	-546.99616	86.05478
28000.00000	86.04525	-546.82414	86.04525
28050.00000	86.02185	-547.79003	86.02185
28100.00000	85.84718	-548.88086	85.84718
28150.00000	85.85091	-549.10820	85.85091
28200.00000	85.90714	-549.99044	85.90714
28250.00000	85.86767	-549.43377	85.86767
28300.00000	85.68040	-550.63582	85.68040
28350.00000	85.84770	-551.09543	85.84770
28400.00000	85.73903	-551.41982	85.73903
28450.00000	85.85377	-551.65802	85.85377
28500.00000	85.82009	-552.44467	85.82009
28550.00000	85.86254	-553.20533	85.86254
28600.00000	86.04525	-553.12996	86.04525
28650.00000	86.03207	-553.14851	86.03207
28700.00000	86.00369	-553.91623	86.00369
28750.00000	86.12578	-553.75629	86.12578
28800.00000	86.12992	-555.13695	86.12992
28850.00000	86.28225	-555.82738	86.28225
28900.00000	86.40981	-556.49348	86.40981
28950.00000	86.31751	-556.99510	86.31751
29000.00000	86.52639	-556.27316	86.52639
29050.00000	86.64427	-557.28107	86.64427
29100.00000	86.75794	-556.96281	86.75794
29150.00000	86.88492	-559.20383	86.88492
29200.00000	87.05621	-558.96894	87.05621
29250.00000	87.04954	-559.35273	87.04954
29300.00000	87.16117	-560.28707	87.16117
29350.00000	87.36355	-560.81401	87.36355
29400.00000	87.50547	-561.65893	87.50547
29450.00000	87.64899	-562.41997	87.64899
29500.00000	87.81071	-563.25783	87.81071
29550.00000	88.10211	-564.03364	88.10211
29600.00000	88.18880	-564.85596	88.18880
29650.00000	88.37691	-565.55415	88.37691
29700.00000	88.56386	-566.63135	88.56386
29750.00000	88.72582	-567.18020	88.72582
29800.00000	88.77840	-567.81249	88.77840
29850.00000	89.11364	-568.89861	89.11364
29900.00000	89.28261	-570.24420	89.28261
29950.00000	89.41642	-571.28807	89.41642
30000.00000	89.54046	-572.30108	89.54046
30050.00000	89.75338	-573.49046	89.75338
30100.00000	89.95204	-574.72312	89.95204
30150.00000	90.23425	-575.69992	90.23425
30200.00000	90.42422	-576.91307	90.42422
30250.00000	90.59860	-578.07391	90.59860
30300.00000	90.80954	-579.64531	90.80954
30350.00000	91.01857	-580.79614	91.01857
30400.00000	91.29292	-582.05703	91.29292
30450.00000	91.45107	-583.39614	91.45107
30500.00000	91.70623	-585.13145	91.70623
30550.00000	91.86229	-586.35455	91.86229
30600.00000	92.14734	-588.27150	92.14734
30650.00000	92.32035	-589.32216	92.32035
30700.00000	92.57253	-591.11650	92.57253
30750.00000	92.76388	-593.02156	92.76388
30800.00000	92.93802	-594.53197	92.93802
30850.00000	93.16265	-596.55231	93.16265
30900.00000	93.35105	-598.55761	93.35105
30950.00000	93.52543	-600.09553	93.52543
31000.00000	93.77962	-602.11914	93.77962
31050.00000	93.95836	-603.94139	93.95836
31100.00000	94.14385	-605.82271	94.14385
31150.00000	94.32717	-607.70387	94.32717
31200.00000	94.48733	-609.90114	94.48733
31250.00000	94.74377	-612.13464	94.74377
31300.00000	94.90202	-614.49231	94.90202
31350.00000	95.06578	-616.14186	95.06578
31400.00000	95.22744	-618.17117	95.22744
31450.00000	95.38207	-620.62483	95.38207
31500.00000	95.51782	-622.94801	95.51782
31550.00000	95.64135	-625.27407	95.64135
31600.00000	95.78176	-627.58579	95.78176
31650.00000	95.93154	-629.79337	95.93154
31700.00000	96.00518	-631.92152	96.00518
31750.00000	96.12189	-634.23803	96.12189
31800.00000	96.21456	-636.43535	96.21456
31850.00000	96.32194	-638.57458	96.32194
31900.00000	96.38564	-640.65455	96.38564
31950.00000	96.48125	-643.18365	96.48125
32000.00000	96.52528	-645.18165	96.52528
32050.00000	96.60097	-647.07040	96.60097
32100.00000	96.65223	-648.93504	96.65223
32150.00000	96.71231	-650.76035	96.71231
32200.00000	96.76573	-652.82205	96.76573
32250.00000	96.84893	-654.74930	96.84893
32300.00000	96.87250	-656.04475	96.87250
32350.00000	96.96478	-658.15643	96.96478
32400.00000	96.99675	-659.66594	96.99675
32450.00000	97.07212	-661.33168	97.07212
32500.00000	97.10639	-663.14007	97.10639
32550.00000	97.18160	-664.38006	97.18160
32600.00000	97.27291	-665.93764	97.27291
32650.00000	97.33100	-667.50612	97.33100
32700.00000	97.39999	-668.73262	97.39999
32750.00000	97.51890	-670.08478	97.51890
32800.00000	97.55928	-671.17656	97.55928
32850.00000	97.71597	-672.74585	97.71597
32900.00000	97.79703	-673.79177	97.79703
32950.00000	97.95476	-675.14321	97.95476
33000.00000	98.11305	-676.47607	98.11305
33050.00000	98.21564	-677.54536	98.21564
33100.00000	98.37771	-678.90949	98.37771
33150.00000	98.53034	-679.81420	98.53034
33200.00000	98.69107	-680.90283	98.69107
33250.00000	98.83689	-682.27118	98.83689
33300.00000	99.06351	-683.48610	99.06351
33350.00000	99.27397	-684.69516	99.27397
33400.00000	99.45882	-686.41868	99.45882
33450.00000	99.63304	-687.52946	99.63304
33500.00000	99.88128	-688.68442	99.88128
33550.00000	100.12883	-690.09717	100.12883
33600.00000	100.38770	-691.29124	100.38770
33650.00000	100.61066	-692.95162	100.61066
33700.00000	100.84935	-694.64515	100.84935
33750.00000	101.08676	-696.40632	101.08676
33800.00000	101.37687	-697.85132	101.37687
33850.00000	101.63977	-699.44136	101.63977
33900.00000	101.90011	-701.29237	101.90011
33950.00000	102.15832	-703.13446	102.15832
34000.00000	102.42568	-704.74283	102.42568
34050.00000	102.70671	-706.44750	102.70671
34100.00000	103.00671	-708.35329	103.00671
34150.00000	103.30772	-710.09137	103.30772
34200.00000	103.58589	-712.15896	103.58589
34250.00000	103.86368	-714.17080	103.86368
34300.00000	104.15497	-716.18470	104.15497
34350.00000	104.47993	-718.42587	104.47993
34400.00000	104.81497	-720.47688	104.81497
34450.00000	105.08450	-722.80853	105.08450
34500.00000	105.39303	-724.93818	105.39303
34550.00000	105.75474	-727.37489	105.75474
34600.00000	106.08731	-729.80648	106.08731
34650.00000	106.42803	-732.35815	106.42803
34700.00000	106.74367	-735.09872	106.74367
34750.00000	107.11388	-738.04194	107.11388
34800.00000	107.40135	-741.30300	107.40135
34850.00000	107.72348	-744.59878	107.72348
34900.00000	107.93860	-747.85451	107.93860
34950.00000	108.14281	-750.88323	108.14281
35000.00000	108.32269	-753.46463	108.32269
35050.00000	108.56214	-755.61528	108.56214
35100.00000	108.88884	-758.20806	108.88884
35150.00000	109.23467	-760.86815	109.23467
35200.00000	109.59584	-764.08134	109.59584
35250.00000	109.93745	-767.42552	109.93745
35300.00000	110.24420	-770.85436	110.24420
35350.00000	110.56802	-774.41253	110.56802
35400.00000	110.87664	-778.19309	110.87664
35450.00000	111.15174	-782.09263	111.15174
35500.00000	111.42359	-786.08673	111.42359
35550.00000	111.66862	-790.11295	111.66862
35600.00000	111.88150	-794.23479	111.88150
35650.00000	112.08105	-798.46783	112.08105
35700.00000	112.26672	-802.70961	112.26672
35750.00000	112.41378	-806.87762	112.41378
35800.00000	112.56174	-811.14162	112.56174
35850.00000	112.68522	-815.29773	112.68522
35900.00000	112.78032	-819.51874	112.78032
35950.00000	112.84758	-823.67281	112.84758
36000.00000	112.90165	-827.77298	112.90165
36050.00000	112.95223	-831.93965	112.95223
36100.00000	112.97482	-835.92269	112.97482
36150.00000	112.98084	-839.89192	112.98084
36200.00000	112.97665	-843.75931	112.97665
36250.00000	112.94679	-847.55399	112.94679
36300.00000	112.90868	-851.18290	112.90868
36350.00000	112.87642	-854.84277	112.87642
36400.00000	112.83344	-858.29893	112.83344
36450.00000	112.77914	-861.63644	112.77914
36500.00000	112.72561	-864.89512	112.72561
36550.00000	112.67193	-868.11403	112.67193
36600.00000	112.59877	-871.23545	112.59877
36650.00000	112.53537	-874.03892	112.53537
36700.00000	112.49729	-876.93382	112.49729
36750.00000	112.43098	-879.57961	112.43098
36800.00000	112.38628	-882.27499	112.38628
36850.00000	112.34239	-884.90889	112.34239
36900.00000	112.28548	-887.41945	112.28548
36950.00000	112.26879	-889.89769	112.26879
37000.00000	112.23610	-892.09831	112.23610
37050.00000	112.22145	-894.27907	112.22145
37100.00000	112.21802	-896.49922	112.21802
37150.00000	112.23093	-898.62855	112.23093
37200.00000	112.25606	-900.60084	112.25606
37250.00000	112.28695	-902.48499	112.28695
37300.00000	112.33948	-904.36798	112.33948
37350.00000	112.41299	-906.16396	112.41299
37400.00000	112.51412	-908.07480	112.51412
37450.00000	112.60288	-909.71314	112.60288
37500.00000	112.75145	-911.37719	112.75145
37550.00000	112.93007	-913.09063	112.93007
37600.00000	113.13559	-914.75658	113.13559
37650.00000	113.38283	-916.57913	113.38283
37700.00000	113.66097	-918.33221	113.66097
37750.00000	113.98261	-920.38212	113.98261
37800.00000	114.34661	-922.59427	114.34661
37850.00000	114.74402	-925.00655	114.74402
37900.00000	115.14075	-927.97189	115.14075
37950.00000	115.55289	-931.26623	115.55289
38000.00000	115.97576	-934.83626	115.97576
38050.00000	116.37473	-938.87073	116.37473
38100.00000	116.75333	-943.24758	116.75333
38150.00000	117.08876	-947.77914	117.08876
38200.00000	117.38825	-952.67198	117.38825
38250.00000	117.64910	-957.59556	117.64910
38300.00000	117.87248	-962.72356	117.87248
38350.00000	118.07314	-967.87541	118.07314
38400.00000	118.23177	-973.09414	118.23177
38450.00000	118.35060	-978.29884	118.35060
38500.00000	118.44250	-983.54707	118.44250
38550.00000	118.49950	-988.83332	118.49950
38600.00000	118.53252	-993.99787	118.53252
38650.00000	118.53233	-999.15469	118.53233
38700.00000	118.50242	-1004.20715	118.50242
38750.00000	118.45854	-1009.18069	118.45854
38800.00000	118.39541	-1014.03212	118.39541
38850.00000	118.33161	-1018.86878	118.33161
38900.00000	118.23651	-1023.53818	118.23651
38950.00000	118.14351	-1028.18633	118.14351
39000.00000	118.04308	-1032.76828	118.04308
39050.00000	117.92524	-1037.39260	117.92524
39100.00000	117.80436	-1041.87938	117.80436
39150.00000	117.66037	-1046.33294	117.66037
39200.00000	117.51357	-1050.70652	117.51357
39250.00000	117.36546	-1054.98180	117.36546
39300.00000	117.20406	-1059.18184	117.20406
39350.00000	117.05295	-1063.32374	117.05295
39400.00000	116.89878	-1067.52404	116.89878
39450.00000	116.74903	-1071.59438	116.74903
39500.00000	116.58112	-1075.83794	116.58112
39550.00000	116.42457	-1079.97714	116.42457
39600.00000	116.23771	-1084.24422	116.23771
39650.00000	116.04552	-1088.53784	116.04552
39700.00000	115.83357	-1092.75402	115.83357
39750.00000	115.58760	-1097.01216	115.58760
39800.00000	115.33038	-1101.11177	115.33038
39850.00000	115.04946	-1105.17492	115.04946
39900.00000	114.74748	-1109.08151	114.74748
39950.00000	114.45286	-1112.97069	114.45286
40000.00000	114.12055	-1116.68475	114.12055
40050.00000	113.78594	-1120.31515	113.78594
40100.00000	113.45184	-1123.74308	113.45184
40150.00000	113.09867	-1127.02437	113.09867
40200.00000	112.73549	-1130.21817	112.73549
40250.00000	112.37691	-1133.36295	112.37691
40300.00000	112.01146	-1136.09624	112.01146
40350.00000	111.64220	-1138.78915	111.64220
40400.00000	111.27533	-1141.36879	111.27533
40450.00000	110.91710	-1143.85792	110.91710
40500.00000	110.55121	-1146.05008	110.55121
40550.00000	110.20264	-1148.21577	110.20264
40600.00000	109.88002	-1150.14188	109.88002
40650.00000	109.54411	-1151.94327	109.54411
40700.00000	109.21509	-1153.76190	109.21509
40750.00000	108.92267	-1155.24930	108.92267
40800.00000	108.64712	-1156.76281	108.64712
40850.00000	108.39362	-1158.12344	108.39362
40900.00000	108.15620	-1159.36558	108.15620
40950.00000	107.91173	-1160.63716	107.91173
41000.00000	107.75146	-1161.90143	107.75146
41050.00000	107.54262	-1163.09264	107.54262
41100.00000	107.38841	-1164.30088	107.38841
41150.00000	107.27872	-1165.37873	107.27872
41200.00000	107.14262	-1166.92100	107.14262
41250.00000	107.08018	-1167.88923	107.08018
41300.00000	106.99465	-1169.43080	106.99465
41350.00000	106.91252	-1170.92727	106.91252
41400.00000	106.88894	-1172.45140	106.88894
41450.00000	106.83467	-1174.09576	106.83467
41500.00000	106.78719	-1175.83559	106.78719
41550.00000	106.75440	-1177.63047	106.75440
41600.00000	106.70895	-1179.88341	106.70895
41650.00000	106.66441	-1181.66235	106.66441
41700.00000	106.63609	-1183.75088	106.63609
41750.00000	106.56156	-1185.95547	106.56156
41800.00000	106.52875	-1188.20904	106.52875
41850.00000	106.41673	-1190.24290	106.41673
41900.00000	106.37810	-1192.77078	106.37810
41950.00000	106.28448	-1194.75571	106.28448
42000.00000	106.19959	-1197.20193	106.19959
42050.00000	106.08912	-1199.67635	106.08912
42100.00000	105.96107	-1201.62896	105.96107
42150.00000	105.80358	-1203.77128	105.80358
42200.00000	105.68366	-1206.07664	105.68366
42250.00000	105.51489	-1207.81953	105.51489
42300.00000	105.41353	-1209.25503	105.41353
42350.00000	105.23298	-1211.43558	105.23298
42400.00000	105.14133	-1213.31190	105.14133
42450.00000	104.98783	-1215.01544	104.98783
42500.00000	104.84436	-1216.61152	104.84436
42550.00000	104.74113	-1218.25575	104.74113
42600.00000	104.61740	-1220.16847	104.61740
42650.00000	104.48659	-1221.30347	104.48659
42700.00000	104.43991	-1222.85760	104.43991
42750.00000	104.32122	-1224.87910	104.32122
42800.00000	104.21403	-1225.66458	104.21403
42850.00000	104.10578	-1227.46307	104.10578
42900.00000	104.07831	-1228.88285	104.07831
42950.00000	103.98623	-1230.45018	103.98623
43000.00000	103.98448	-1231.47594	103.98448
43050.00000	103.83613	-1233.04905	103.83613
43100.00000	103.88491	-1235.20800	103.88491
43150.00000	103.76687	-1235.82710	103.76687
43200.00000	103.74088	-1238.47497	103.74088
43250.00000	103.68771	-1239.20725	103.68771
43300.00000	103.68241	-1240.62795	103.68241
43350.00000	103.57503	-1241.94744	103.57503
43400.00000	103.53369	-1243.47992	103.53369
43450.00000	103.51619	-1244.88486	103.51619
43500.00000	103.45700	-1246.12918	103.45700
43550.00000	103.45780	-1247.41254	103.45780
43600.00000	103.31385	-1249.12447	103.31385
43650.00000	103.33525	-1250.25327	103.33525
43700.00000	103.23098	-1251.11664	103.23098
43750.00000	103.29575	-1252.78573	103.29575
43800.00000	103.28438	-1254.32987	103.28438
43850.00000	103.19594	-1254.75917	103.19594
43900.00000	103.31380	-1256.24770	103.31380
43950.00000	103.26541	-1257.06055	103.26541
44000.00000	103.30839	-1258.13937	103.30839
44050.00000	103.36047	-1258.87584	103.36047
44100.00000	103.52107	-1259.61404	103.52107
44150.00000	103.46620	-1260.55374	103.46620
44200.00000	103.62702	-1261.87284	103.62702
44250.00000	103.74439	-1262.45585	103.74439
44300.00000	103.81895	-1263.83406	103.81895
44350.00000	104.01563	-1264.57868	104.01563
44400.00000	104.16921	-1265.86676	104.16921
44450.00000	104.30830	-1266.93102	104.30830
44500.00000	104.48766	-1267.90676	104.48766
44550.00000	104.67692	-1269.48216	104.67692
44600.00000	104.85443	-1270.58524	104.85443
44650.00000	105.06446	-1272.09325	105.06446
44700.00000	105.38321	-1273.47128	105.38321
44750.00000	105.48527	-1275.73459	105.48527
44800.00000	105.81530	-1276.69635	105.81530
44850.00000	106.03730	-1278.91791	106.03730
44900.00000	106.27188	-1280.98703	106.27188
44950.00000	106.56423	-1282.64554	106.56423
45000.00000	106.79170	-1285.27913	106.79170
45050.00000	107.08477	-1287.08225	107.08477
45100.00000	107.39491	-1289.69620	107.39491
45150.00000	107.65207	-1291.94852	107.65207
45200.00000	108.00223	-1294.49222	108.00223
45250.00000	108.29379	-1296.78116	108.29379
45300.00000	109.11118	-1298.93410	109.11118
45350.00000	108.89026	-1302.29661	108.89026
45400.00000	109.23741	-1305.35153	109.23741
45450.00000	109.64085	-1308.89241	109.64085
45500.00000	109.89825	-1312.52433	109.89825
45550.00000	110.26315	-1315.85690	110.26315
45600.00000	110.55454	-1319.94944	110.55454
45650.00000	110.80392	-1324.14075	110.80392
45700.00000	111.03615	-1328.50669	111.03615
45750.00000	111.23373	-1333.10377	111.23373
45800.00000	111.41733	-1337.58128	111.41733
45850.00000	111.56067	-1342.25549	111.56067
45900.00000	111.65822	-1347.39108	111.65822
45950.00000	111.73209	-1352.33024	111.73209
46000.00000	111.80304	-1357.17649	111.80304
46050.00000	111.83319	-1361.87478	111.83319
46100.00000	111.77368	-1366.35609	111.77368
46150.00000	111.74829	-1371.36126	111.74829
46200.00000	111.73742	-1375.68719	111.73742
46250.00000	111.61946	-1380.27252	111.61946
46300.00000	111.51848	-1384.78382	111.51848
46350.00000	111.40672	-1389.01077	111.40672
46400.00000	111.23458	-1392.59149	111.23458
46450.00000	111.07673	-1396.42651	111.07673
46500.00000	110.98828	-1400.12969	110.98828
46550.00000	110.83999	-1403.94397	110.83999
46600.00000	110.67889	-1407.65914	110.67889
46650.00000	110.56563	-1410.60568	110.56563
46700.00000	110.44363	-1414.56964	110.44363
46750.00000	110.28816	-1418.05613	110.28816
46800.00000	110.14588	-1421.45716	110.14588
46850.00000	110.02335	-1424.78425	110.02335
46900.00000	109.91415	-1428.17154	109.91415
46950.00000	109.74266	-1431.39521	109.74266
47000.00000	109.64971	-1434.62737	109.64971
47050.00000	109.53914	-1438.05239	109.53914
47100.00000	109.42668	-1440.94644	109.42668
47150.00000	109.31661	-1443.89526	109.31661
47200.00000	109.20082	-1447.77387	109.20082
47250.00000	109.08445	-1450.79495	109.08445
47300.00000	108.97962	-1454.03310	108.97962
47350.00000	108.94939	-1457.03901	108.94939
47400.00000	108.75274	-1460.48447	108.75274
47450.00000	108.68735	-1463.43651	108.68735
47500.00000	108.56986	-1466.59834	108.56986
47550.00000	108.48899	-1470.14280	108.48899
47600.00000	108.29445	-1473.53846	108.29445
47650.00000	108.19205	-1476.61146	108.19205
47700.00000	108.16131	-1480.27064	108.16131
47750.00000	108.01821	-1483.78298	108.01821
47800.00000	107.77747	-1487.08454	107.77747
47850.00000	107.74281	-1490.15016	107.74281
47900.00000	107.57653	-1493.72538	107.57653
47950.00000	107.49511	-1497.54074	107.49511
48000.00000	107.38367	-1501.39799	107.38367
48050.00000	107.26447	-1504.92861	107.26447
48100.00000	107.05402	-1509.57321	107.05402
48150.00000	106.94335	-1512.65059	106.94335
48200.00000	106.69256	-1516.93355	106.69256
48250.00000	106.53752	-1520.69873	106.53752
48300.00000	106.25935	-1523.61119	106.25935
48350.00000	106.05213	-1527.66266	106.05213
48400.00000	105.76880	-1532.35755	105.76880
48450.00000	105.48507	-1536.17100	105.48507
48500.00000	105.20547	-1539.23189	105.20547
48550.00000	104.92161	-1542.81712	104.92161
48600.00000	104.61605	-1547.83515	104.61605
48650.00000	104.14457	-1551.06146	104.14457
48700.00000	103.80277	-1554.57026	103.80277
48750.00000	103.44977	-1558.71075	103.44977
48800.00000	102.94122	-1562.05013	102.94122
48850.00000	102.33039	-1565.79749	102.33039
48900.00000	101.81523	-1567.99925	101.81523
48950.00000	101.27320	-1570.80509	101.27320
49000.00000	100.74764	-1574.34161	100.74764
49050.00000	100.28759	-1576.98536	100.28759
49100.00000	99.64220	-1577.63037	99.64220
49150.00000	99.09504	-1580.41318	99.09504
49200.00000	98.61151	-1580.50055	98.61151
49250.00000	97.90173	-1223.15127	97.90173
49300.00000	97.61368	-1222.12157	97.61368
49350.00000	96.88939	-1222.73776	96.88939
49400.00000	96.27476	-1223.31143	96.27476
49450.00000	95.97562	-1223.72610	95.97562
49500.00000	95.48897	-1223.44549	95.48897
49550.00000	95.23741	-1221.95915	95.23741
49600.00000	94.94545	-1221.75074	94.94545
49650.00000	94.57792	-864.39887	94.57792
49700.00000	94.34827	-862.22113	94.34827
49750.00000	93.96594	-860.80494	93.96594
49800.00000	93.79523	-860.55789	93.79523
49850.00000	93.80619	-499.10070	93.80619
49900.00000	93.57752	-501.12374	93.57752
49950.00000	93.56344	-498.59658	93.56344
50000.00000	93.76841	-499.29465	93.76841
50050.00000	93.61026	-498.29584	93.61026
50100.00000	93.34114	-498.98375	93.34114
50150.00000	93.50474	-499.32773	93.50474
50200.00000	93.49588	-498.87730	93.49588
50250.00000	93.64321	-497.95369	93.64321
50300.00000	93.89705	-500.42493	93.89705
50350.00000	93.89616	-500.34769	93.89616
50400.00000	93.96091	-500.99455	93.96091
50450.00000	93.96163	-501.06786	93.96163
50500.00000	94.04318	-503.42324	94.04318
50550.00000	94.07863	-505.53393	94.07863
50600.00000	94.51232	-506.16992	94.51232
50650.00000	94.62318	-507.30670	94.62318
50700.00000	94.58749	-508.49371	94.58749
50750.00000	94.61742	-510.65309	94.61742
50800.00000	94.55488	-513.62102	94.55488
50850.00000	94.72763	-515.20069	94.72763
50900.00000	94.73766	-517.18394	94.73766
50950.00000	94.80863	-519.87916	94.80863
51000.00000	94.84103	-523.70520	94.84103
51050.00000	95.10167	-524.29300	95.10167
51100.00000	94.84667	-528.25209	94.84667
51150.00000	94.85563	-531.16020	94.85563
51200.00000	94.84203	-533.41982	94.84203
51250.00000	94.82897	-535.40668	94.82897
51300.00000	94.53294	-538.67468	94.53294
51350.00000	94.12898	-539.66621	94.12898
51400.00000	94.17323	-544.92443	94.17323
51450.00000	93.81329	-545.54761	93.81329
51500.00000	93.76399	-546.76459	93.76399
51550.00000	93.40580	-548.06089	93.40580
51600.00000	93.16049	-551.85600	93.16049
51650.00000	92.50960	-551.41743	92.50960
51700.00000	92.59806	-555.34192	92.59806
51750.00000	92.11556	-556.09135	92.11556
51800.00000	91.92273	-555.06629	91.92273
51850.00000	91.78694	-556.82381	91.78694
51900.00000	91.35931	-556.96341	91.35931
51950.00000	90.84961	-559.29176	90.84961
52000.00000	90.98487	-557.75467	90.98487
52050.00000	91.04364	-555.59070	91.04364
52100.00000	90.60453	-556.00128	90.60453
52150.00000	90.33512	-554.54030	90.33512
52200.00000	90.54872	-550.73853	90.54872
52250.00000	90.59228	-555.46373	90.59228
52300.00000	90.48327	-554.59068	90.48327
52350.00000	90.64791	-550.51711	90.64791
52400.00000	90.60381	-556.10908	90.60381
52450.00000	90.78703	-555.37059	90.78703
52500.00000	90.83747	-553.22421	90.83747
52550.00000	90.76967	-553.35576	90.76967
52600.00000	91.07999	-551.44843	91.07999
52650.00000	91.50843	-554.06396	91.50843
52700.00000	91.76909	-552.52300	91.76909
52750.00000	92.17957	-553.60435	92.17957
52800.00000	91.86169	-553.76920	91.86169
52850.00000	92.45767	-556.92666	92.45767
52900.00000	92.53148	-557.24795	92.53148
52950.00000	93.02850	-557.56691	93.02850
53000.00000	93.15453	-560.86905	93.15453
53050.00000	93.29684	-561.15096	93.29684
53100.00000	93.76199	-563.00651	93.76199
53150.00000	93.77022	-564.48511	93.77022
53200.00000	93.87256	-567.37283	93.87256
53250.00000	94.25486	-568.57586	94.25486
53300.00000	94.55633	-570.21560	94.55633
53350.00000	94.50366	-573.93969	94.50366
53400.00000	94.90723	-574.66865	94.90723
53450.00000	94.98035	-577.68447	94.98035
53500.00000	95.04595	-577.85014	95.04595
53550.00000	95.32846	-580.22365	95.32846
53600.00000	95.33141	-584.96598	95.33141
53650.00000	95.65073	-587.07403	95.65073
53700.00000	95.65305	-589.67567	95.65305
53750.00000	95.72152	-592.68994	95.72152
53800.00000	95.75529	-594.66801	95.75529
53850.00000	95.89012	-597.72219	95.89012
53900.00000	95.78686	-598.13670	95.78686
53950.00000	96.03573	-601.86084	96.03573
54000.00000	95.96228	-606.45335	95.96228
54050.00000	96.01718	-607.07351	96.01718
54100.00000	96.00982	-611.08909	96.00982
54150.00000	96.05851	-612.42464	96.05851
54200.00000	95.75863	-614.26464	95.75863
54250.00000	95.82311	-616.64804	95.82311
54300.00000	95.85146	-619.61545	95.85146
54350.00000	95.72186	-620.64948	95.72186
54400.00000	95.93820	-622.68636	95.93820
54450.00000	95.80839	-624.85742	95.80839
54500.00000	95.73362	-626.11396	95.73362
54550.00000	95.63775	-626.90374	95.63775
54600.00000	95.63958	-628.28013	95.63958
54650.00000	95.54922	-631.07445	95.54922
54700.00000	95.65927	-631.25820	95.65927
54750.00000	96.04624	-632.92701	96.04624
54800.00000	95.66435	-633.79578	95.66435
54850.00000	95.90540	-634.61975	95.90540
54900.00000	96.04030	-635.78929	96.04030
54950.00000	96.16460	-636.67847	96.16460
55000.00000	96.48444	-638.20971	96.48444
55050.00000	96.55752	-639.22345	96.55752
55100.00000	96.85078	-641.07790	96.85078
55150.00000	97.14814	-642.85357	97.14814
55200.00000	97.21790	-644.74540	97.21790
55250.00000	97.34313	-646.02323	97.34313
55300.00000	97.87775	-647.72001	97.87775
55350.00000	97.99673	-649.68848	97.99673
55400.00000	98.32142	-652.49358	98.32142
55450.00000	98.45208	-654.71987	98.45208
55500.00000	98.79929	-658.33379	98.79929
55550.00000	99.10362	-660.80921	99.10362
55600.00000	99.23120	-663.85853	99.23120
55650.00000	99.55564	-667.94550	99.55564
55700.00000	99.73059	-670.60805	99.73059
55750.00000	99.96605	-673.90366	99.96605
55800.00000	100.12965	-677.53472	100.12965
55850.00000	100.31603	-681.38692	100.31603
55900.00000	100.40952	-685.10754	100.40952
55950.00000	100.54843	-688.83549	100.54843
56000.00000	100.60287	-692.88599	100.60287
56050.00000	100.68282	-696.27688	100.68282
56100.00000	100.70360	-700.36067	100.70360
56150.00000	100.66735	-704.04878	100.66735
56200.00000	100.71007	-708.10794	100.71007
56250.00000	100.56090	-712.21840	100.56090
56300.00000	100.55823	-716.02772	100.55823
56350.00000	100.57403	-719.46162	100.57403
56400.00000	100.51449	-722.94331	100.51449
56450.00000	100.34393	-726.68799	100.34393
56500.00000	100.21128	-730.28474	100.21128
56550.00000	100.08156	-733.36559	100.08156
56600.00000	99.95922	-736.72277	99.95922
56650.00000	99.72976	-739.79284	99.72976
56700.00000	99.56526	-742.77049	99.56526
56750.00000	99.42004	-745.61664	99.42004
56800.00000	99.29596	-748.63248	99.29596
56850.00000	99.12158	-750.87600	99.12158
56900.00000	98.93582	-752.95012	98.93582
56950.00000	98.75860	-754.95625	98.75860
57000.00000	98.53019	-757.53676	98.53019
57050.00000	98.40280	-759.80513	98.40280
57100.00000	98.04802	-761.12836	98.04802
57150.00000	98.17472	-762.83165	98.17472
57200.00000	97.86044	-764.53423	97.86044
57250.00000	97.83349	-766.16653	97.83349
57300.00000	97.83376	-767.98105	97.83376
57350.00000	97.87141	-768.95018	97.87141
57400.00000	97.72872	-770.62975	97.72872
57450.00000	97.80677	-771.83506	97.80677
57500.00000	97.88752	-774.05073	97.88752
57550.00000	97.98025	-775.67602	97.98025
57600.00000	97.97416	-777.39181	97.97416
57650.00000	98.01470	-779.43590	98.01470
57700.00000	98.05485	-781.58045	98.05485
57750.00000	98.25569	-783.74809	98.25569
57800.00000	98.32531	-785.94263	98.32531
57850.00000	98.42948	-788.00783	98.42948
57900.00000	98.53409	-790.50783	98.53409
57950.00000	98.64494	-792.99000	98.64494
58000.00000	98.75710	-795.52142	98.75710
58050.00000	98.88680	-798.27150	98.88680
58100.00000	98.95440	-801.53428	98.95440
58150.00000	99.07087	-805.05325	99.07087
58200.00000	99.17908	-808.24887	99.17908
58250.00000	99.19676	-811.59855	99.19676
58300.00000	99.29063	-815.52743	99.29063
58350.00000	99.31583	-819.09664	99.31583
58400.00000	99.28180	-823.31800	99.28180
58450.00000	99.19386	-827.09845	99.19386
58500.00000	99.16351	-831.29708	99.16351
58550.00000	98.99242	-835.66953	98.99242
58600.00000	98.71833	-839.15474	98.71833
58650.00000	98.49964	-843.18283	98.49964
58700.00000	98.23646	-846.63245	98.23646
58750.00000	97.87385	-850.05156	97.87385
58800.00000	97.56569	-853.03747	97.56569
58850.00000	97.22683	-855.72811	97.22683
58900.00000	96.79786	-858.09503	96.79786
58950.00000	96.45113	-859.98162	96.45113
59000.00000	95.99149	-861.60768	95.99149
59050.00000	95.59227	-863.06659	95.59227
59100.00000	95.27913	-864.09869	95.27913
59150.00000	94.98688	-864.57536	94.98688
59200.00000	94.71521	-865.37160	94.71521
59250.00000	94.40433	-865.77007	94.40433
59300.00000	94.25687	-865.68829	94.25687
59350.00000	94.13413	-865.63917	94.13413
59400.00000	93.93184	-865.61550	93.93184
59450.00000	93.86026	-864.95869	93.86026
59500.00000	93.76197	-864.26074	93.76197
59550.00000	93.82629	-864.42973	93.82629
59600.00000	93.86221	-863.25674	93.86221
59650.00000	94.01877	-863.49940	94.01877
59700.00000	94.17117	-863.34730	94.17117
59750.00000	94.48217	-863.49204	94.48217
59800.00000	94.67123	-863.60833	94.67123
59850.00000	94.99680	-864.17225	94.99680
59900.00000	95.24335	-865.52942	95.24335
59950.00000	95.57904	-866.30609	95.57904
60000.00000	95.94094	-867.83325	95.94094
60050.00000	96.27540	-870.05831	96.27540
60100.00000	96.56532	-871.66048	96.56532
60150.00000	96.92638	-873.98138	96.92638
60200.00000	97.25436	-875.66523	97.25436
60250.00000	97.57931	-878.57369	97.57931
60300.00000	97.89348	-881.54167	97.89348
60350.00000	98.16543	-884.43912	98.16543
60400.00000	98.45911	-887.65708	98.45911
60450.00000	98.76998	-891.02933	98.76998
60500.00000	98.97751	-894.81163	98.97751
60550.00000	99.18718	-898.57457	99.18718
60600.00000	99.36446	-902.32938	99.36446
60650.00000	99.53906	-906.17665	99.53906
60700.00000	99.60642	-910.36530	99.60642
60750.00000	99.68180	-914.15026	99.68180
60800.00000	99.75842	-917.86303	99.75842
60850.00000	99.81651	-921.76574	99.81651
60900.00000	99.83816	-925.85371	99.83816
60950.00000	99.86717	-929.31679	99.86717
61000.00000	99.83063	-932.86503	99.83063
61050.00000	99.81836	-936.58533	99.81836
61100.00000	99.85892	-940.21052	99.85892
61150.00000	99.74596	-943.65415	99.74596
61200.00000	99.73844	-947.23019	99.73844
61250.00000	99.72120	-950.64139	99.72120
61300.00000	99.67567	-954.14213	99.67567
61350.00000	99.62860	-957.42320	99.62860
61400.00000	99.53830	-960.78231	99.53830
61450.00000	99.50802	-964.46533	99.50802
61500.00000	99.36740	-967.66606	99.36740
61550.00000	99.34210	-971.25532	99.34210
61600.00000	99.25484	-974.83661	99.25484
61650.00000	99.19712	-977.95886	99.19712
61700.00000	99.11318	-981.68912	99.11318
61750.00000	98.95477	-984.95558	98.95477
61800.00000	98.79908	-988.27706	98.79908
61850.00000	98.62637	-991.84541	98.62637
61900.00000	98.54519	-995.32395	98.54519
61950.00000	98.32313	-998.21464	98.32313
62000.00000	98.25018	-1001.66191	98.25018
62050.00000	97.96158	-1004.30163	97.96158
62100.00000	97.87609	-1007.46352	97.87609
62150.00000	97.65723	-1010.47305	97.65723
62200.00000	97.44286	-1013.33447	97.44286
62250.00000	97.29246	-1016.15765	97.29246
62300.00000	97.02610	-1019.23625	97.02610
62350.00000	96.82821	-1021.72526	96.82821
62400.00000	96.61684	-1024.18842	96.61684
62450.00000	96.37962	-1027.11759	96.37962
62500.00000	96.22423	-1029.97170	96.22423
62550.00000	95.95510	-1032.31487	95.95510
62600.00000	95.66483	-1034.28397	95.66483
62650.00000	95.34033	-1036.43253	95.34033
62700.00000	95.17771	-1038.71906	95.17771
62750.00000	94.87560	-1041.48315	94.87560
62800.00000	94.72664	-1043.31121	94.72664
62850.00000	94.48495	-1044.34886	94.48495
62900.00000	94.24279	-1045.89301	94.24279
62950.00000	93.97165	-1047.56132	93.97165
63000.00000	93.72113	-1049.21587	93.72113
63050.00000	93.58673	-1049.80669	93.58673
63100.00000	93.31760	-1051.41594	93.31760
63150.00000	93.05424	-1052.28610	93.05424
63200.00000	93.11448	-1052.79827	93.11448
63250.00000	92.72059	-1053.55038	92.72059
63300.00000	92.87132	-1054.62662	92.87132
63350.00000	92.72996	-1055.78578	92.72996
63400.00000	92.52877	-1055.51399	92.52877
63450.00000	92.72061	-1057.39397	92.72061
63500.00000	92.61422	-1056.67892	92.61422
63550.00000	92.61645	-1058.27693	92.61645
63600.00000	92.74826	-1059.45337	92.74826
63650.00000	92.83742	-1059.13512	92.83742
63700.00000	92.78797	-1060.81885	92.78797
63750.00000	92.96029	-1062.13008	92.96029
63800.00000	93.08775	-1063.10266	93.08775
63850.00000	93.22792	-1063.75752	93.22792
63900.00000	93.47264	-1065.59118	93.47264
63950.00000	93.59756	-1067.66964	93.59756
64000.00000	93.76647	-1069.72657	93.76647
64050.00000	94.04398	-1072.02839	94.04398
64100.00000	94.32062	-1074.36245	94.32062
64150.00000	94.56794	-1076.79116	94.56794
64200.00000	94.71514	-1079.64824	94.71514
64250.00000	94.77728	-1083.39271	94.77728
64300.00000	94.80049	-1087.22886	94.80049
64350.00000	94.85365	-1090.91326	94.85365
64400.00000	94.67892	-1094.56914	94.67892
64450.00000	94.60437	-1097.70771	94.60437
64500.00000	94.45302	-1100.65019	94.45302
64550.00000	94.30058	-1102.15227	94.30058
64600.00000	94.25626	-1103.97506	94.25626
64650.00000	94.07407	-1105.13939	94.07407
64700.00000	94.13067	-1106.35914	94.13067
64750.00000	94.25443	-1108.30483	94.25443
64800.00000	94.38278	-1110.42092	94.38278
64850.00000	94.63033	-1112.88333	94.63033
64900.00000	94.65700	-1116.10480	94.65700
64950.00000	94.67674	-1119.32263	94.67674
65000.00000	94.87827	-1123.62066	94.87827
65050.00000	94.68609	-1126.90445	94.68609
65100.00000	94.51858	-1130.56925	94.51858
65150.00000	94.20749	-1134.45359	94.20749
65200.00000	93.87138	-1136.81464	93.87138
65250.00000	93.35433	-1138.45366	93.35433
65300.00000	93.02616	-1138.07021	93.02616
65350.00000	92.78594	-1138.72566	92.78594
65400.00000	92.71938	-1136.69661	92.71938
65450.00000	92.76133	-1136.84076	92.76133
65500.00000	92.99328	-1135.94665	92.99328
65550.00000	93.27899	-1135.29777	93.27899
65600.00000	93.64787	-1136.14621	93.64787
65650.00000	94.18133	-1137.36958	94.18133
65700.00000	94.64602	-1138.68155	94.64602
65750.00000	95.22384	-1141.08129	95.22384
65800.00000	95.70164	-1144.53110	95.70164
65850.00000	96.21345	-1148.49457	96.21345
65900.00000	96.57246	-1153.09154	96.57246
65950.00000	96.91596	-1158.52734	96.91596
66000.00000	97.17323	-1163.65626	97.17323
66050.00000	97.26522	-1170.04972	97.26522
66100.00000	97.35288	-1174.90818	97.35288
66150.00000	97.17930	-1180.31137	97.17930
66200.00000	97.04001	-1185.41604	97.04001
66250.00000	96.81565	-1189.55029	96.81565
66300.00000	96.54194	-1193.62291	96.54194
66350.00000	96.35458	-1197.64710	96.35458
66400.00000	96.17025	-1201.35300	96.17025
66450.00000	95.98979	-1204.08883	95.98979
66500.00000	95.74439	-1207.89288	95.74439
66550.00000	95.57913	-1210.61731	95.57913
66600.00000	95.40537	-1213.82043	95.40537
66650.00000	95.20181	-1216.15731	95.20181
66700.00000	94.91431	-1219.06094	94.91431
66750.00000	94.82615	-1222.04842	94.82615
66800.00000	94.67703	-1223.97060	94.67703
66850.00000	94.56849	-1226.41613	94.56849
66900.00000	94.49778	-1229.23661	94.49778
66950.00000	94.35943	-1231.05355	94.35943
67000.00000	94.28832	-1233.70177	94.28832
67050.00000	94.28912	-1236.03605	94.28912
67100.00000	94.14703	-1239.15940	94.14703
67150.00000	94.06645	-1241.57421	94.06645
67200.00000	94.06313	-1245.51822	94.06313
67250.00000	93.86228	-1248.53191	93.86228
67300.00000	93.74203	-1251.69884	93.74203
67350.00000	93.42419	-1255.20438	93.42419
67400.00000	93.25152	-1258.11253	93.25152
67450.00000	92.90746	-1260.49072	92.90746
67500.00000	92.57214	-1263.44000	92.57214
67550.00000	92.26633	-1265.88105	92.26633
67600.00000	91.84208	-1266.74532	91.84208
67650.00000	91.46716	-1268.12219	91.46716
67700.00000	91.35356	-1269.15307	91.35356
67750.00000	91.09655	-1269.03738	91.09655
67800.00000	90.83094	-1269.11084	90.83094
67850.00000	90.70497	-1270.09310	90.70497
67900.00000	90.83342	-1269.72347	90.83342
67950.00000	90.75813	-1269.47043	90.75813
68000.00000	90.94769	-1269.57738	90.94769
68050.00000	91.01368	-1270.52427	91.01368
68100.00000	91.16500	-1271.47743	91.16500
68150.00000	91.33121	-1272.66473	91.33121
68200.00000	91.42677	-1273.48517	91.42677
68250.00000	91.67441	-1274.72112	91.67441
68300.00000	91.85193	-1276.10440	91.85193
68350.00000	92.08454	-1277.98914	92.08454
68400.00000	92.40266	-1279.96157	92.40266
68450.00000	92.69447	-1281.74551	92.69447
68500.00000	93.07802	-1284.55683	93.07802
68550.00000	93.27730	-1286.93577	93.27730
68600.00000	93.67237	-1289.75904	93.67237
68650.00000	93.97529	-1293.26366	93.97529
68700.00000	94.25348	-1296.80126	94.25348
68750.00000	94.53660	-1300.94732	94.53660
68800.00000	94.71769	-1305.21030	94.71769
68850.00000	94.89884	-1309.23193	94.89884
68900.00000	95.02039	-1313.71743	95.02039
68950.00000	95.14664	-1318.37314	95.14664
69000.00000	95.25458	-1322.66535	95.25458
69050.00000	95.25888	-1327.26214	95.25888
69100.00000	95.35258	-1331.86811	95.35258
69150.00000	95.36426	-1336.51382	95.36426
69200.00000	95.42478	-1341.08501	95.42478
69250.00000	95.39486	-1345.63075	95.39486
69300.00000	95.28009	-1350.45150	95.28009
69350.00000	95.33462	-1355.61221	95.33462
69400.00000	95.21048	-1360.57324	95.21048
69450.00000	95.06018	-1365.94544	95.06018
69500.00000	94.99674	-1370.90842	94.99674
69550.00000	94.72172	-1376.72090	94.72172
69600.00000	94.41569	-1381.95402	94.41569
69650.00000	94.16891	-1386.98017	94.16891
69700.00000	93.70145	-1392.24591	93.70145
69750.00000	93.32342	-1397.20688	93.32342
69800.00000	92.78587	-1401.86131	92.78587
69850.00000	92.19862	-1406.35249	92.19862
69900.00000	91.56881	-1410.00004	91.56881
69950.00000	90.98824	-1413.12108	90.98824
70000.00000	90.32102	-1415.63418	90.32102
70050.00000	89.74714	-1418.01456	89.74714
70100.00000	88.98126	-1419.83918	88.98126
70150.00000	88.45839	-1421.65194	88.45839
70200.00000	87.79765	-1421.26884	87.79765
70250.00000	87.31815	-1421.12673	87.31815
70300.00000	86.96161	-1420.05123	86.96161
70350.00000	86.75077	-1419.68673	86.75077
70400.00000	86.54754	-1419.64851	86.54754
70450.00000	86.31453	-1419.72677	86.31453
70500.00000	86.30936	-1419.30701	86.30936
70550.00000	86.27178	-1419.33925	86.27178
70600.00000	86.20424	-1420.14979	86.20424
70650.00000	86.30279	-1419.18000	86.30279
70700.00000	86.33477	-1419.74146	86.33477
70750.00000	86.48797	-1421.33650	86.48797
70800.00000	86.59097	-1421.75788	86.59097
70850.00000	86.46275	-1423.30669	86.46275
70900.00000	86.81874	-1424.91788	86.81874
70950.00000	87.00303	-1425.71363	87.00303
71000.00000	87.06188	-1427.19060	87.06188
71050.00000	87.47101	-1429.78203	87.47101
71100.00000	87.69017	-1431.23399	87.69017
71150.00000	87.98267	-1433.75961	87.98267
71200.00000	88.31164	-1436.77949	88.31164
71250.00000	88.57233	-1439.75961	88.57233
71300.00000	88.82886	-1444.74156	88.82886
71350.00000	89.05855	-1448.19332	89.05855
71400.00000	89.33062	-1453.42873	89.33062
71450.00000	89.31027	-1459.33918	89.31027
71500.00000	89.36985	-1463.66432	89.36985
71550.00000	89.36221	-1468.72978	89.36221
71600.00000	89.37273	-1474.35433	89.37273
71650.00000	89.05917	-1479.60420	89.05917
71700.00000	89.01055	-1485.46571	89.01055
71750.00000	88.97559	-1488.62045	88.97559
71800.00000	88.66930	-1494.49776	88.66930
71850.00000	88.39677	-1501.01829	88.39677
71900.00000	88.13242	-1504.31629	88.13242
71950.00000	87.63814	-1512.01075	87.63814
72000.00000	87.43712	-1514.70330	87.43712
72050.00000	86.92414	-1517.74162	86.92414
72100.00000	86.35063	-1522.15523	86.35063
72150.00000	86.39401	-1525.92235	86.39401
72200.00000	86.20012	-1529.64131	86.20012
72250.00000	85.92224	-1537.63457	85.92224
72300.00000	85.74758	-1541.25925	85.74758
72350.00000	85.29471	-1548.04389	85.29471
72400.00000	85.09703	-1554.91211	85.09703
72450.00000	84.35275	-1559.44665	84.35275
72500.00000	83.67781	-1566.67786	83.67781
72550.00000	83.27216	-1574.81862	83.27216
72600.00000	82.31237	-1580.05985	82.31237
72650.00000	81.04318	-1589.85739	81.04318
72700.00000	80.12068	-1598.13509	80.12068
72750.00000	78.38037	-1602.78939	78.38037
72800.00000	76.57257	-1614.35965	76.57257
72850.00000	75.19884	-1618.65307	75.19884
72900.00000	71.28153	-1630.39700	71.28153
72950.00000	67.58467	-1648.73264	67.58467
73000.00000	64.44701	-1655.17255	64.44701
73050.00000	55.48562	-1729.65940	55.48562
73100.00000	57.52516	-1766.53864	57.52516
73150.00000	63.74650	-1842.80817	63.74650
73200.00000	69.17626	-1828.34529	69.17626
73250.00000	70.42568	-1844.72836	70.42568
73300.00000	72.73070	-1857.23075	72.73070
73350.00000	72.83049	-1857.13865	72.83049
73400.00000	74.17845	-1865.89159	74.17845
73450.00000	74.80291	-1867.88155	74.80291
73500.00000	74.16870	-1874.75829	74.16870
73550.00000	75.57177	-1883.28343	75.57177
73600.00000	76.35394	-1885.82757	76.35394
73650.00000	76.10285	-1894.30416	76.10285
73700.00000	76.65193	-1898.18045	76.65193
73750.00000	76.45944	-1904.18262	76.45944
73800.00000	75.73350	-1915.74563	75.73350
73850.00000	75.59770	-1919.71565	75.59770
73900.00000	75.41610	-1933.93926	75.41610
73950.00000	75.81811	-1941.19896	75.81811
74000.00000	74.66591	-1945.09700	74.66591
74050.00000	73.03508	-1954.47848	73.03508
74100.00000	74.30994	-1963.31812	74.30994
74150.00000	71.50365	-1970.68537	71.50365
74200.00000	71.69166	-1994.98328	71.69166
74250.00000	70.54978	-1999.72644	70.54978
74300.00000	70.25262	-2046.60051	70.25262
74350.00000	71.54912	-2075.61726	71.54912
74400.00000	67.26200	-2140.62671	67.26200
74450.00000	66.36142	-2326.11941	66.36142
74500.00000	71.55860	-2392.71120	71.55860
74550.00000	72.93848	-2452.79921	72.93848
74600.00000	74.49334	-2468.93089	74.49334
74650.00000	76.56268	-2485.71819	76.56268
74700.00000	76.30825	-2499.82535	76.30825
74750.00000	78.65301	-2507.52480	78.65301
74800.00000	79.57506	-2517.43571	79.57506
74850.00000	79.88483	-2530.02669	79.88483
74900.00000	80.74417	-2539.11482	80.74417
74950.00000	81.36003	-2548.41942	81.36003
75000.00000	82.35650	-2556.86264	82.35650
75050.00000	82.67095	-2564.90850	82.67095
75100.00000	82.77319	-2571.60460	82.77319
75150.00000	82.74737	-2579.22395	82.74737
75200.00000	83.44938	-2586.56467	83.44938
75250.00000	83.37246	-2595.20939	83.37246
75300.00000	83.17387	-2601.93082	83.17387
75350.00000	83.69952	-2604.99730	83.69952
75400.00000	83.24671	-2609.73022	83.24671
75450.00000	83.65609	-2617.05533	83.65609
75500.00000	83.32647	-2619.91598	83.32647
75550.00000	82.95271	-2625.29590	82.95271
75600.00000	83.60799	-2630.25254	83.60799
75650.00000	83.48645	-2634.51869	83.48645
75700.00000	83.50037	-2641.10197	83.50037
75750.00000	83.54688	-2640.51655	83.54688
75800.00000	83.12963	-2647.50414	83.12963
75850.00000	83.34548	-2651.74215	83.34548
75900.00000	82.88967	-2654.56625	82.88967
75950.00000	82.49011	-2657.06227	82.49011
76000.00000	83.05675	-2661.20558	83.05675
76050.00000	82.27413	-2665.88053	82.27413
76100.00000	82.61492	-2669.88919	82.61492
76150.00000	82.55911	-2670.17506	82.55911
76200.00000	82.42464	-2675.10121	82.42464
76250.00000	82.95815	-2678.36395	82.95815
76300.00000	82.02513	-2679.91131	82.02513
76350.00000	82.44082	-2686.20901	82.44082
76400.00000	82.90719	-2683.71532	82.90719
76450.00000	81.54953	-2686.12352	81.54953
76500.00000	82.64437	-2692.86825	82.64437
76550.00000	82.04043	-2693.14239	82.04043
76600.00000	81.27125	-2699.00893	81.27125
76650.00000	81.94150	-2701.24571	81.94150
76700.00000	81.06281	-2699.04005	81.06281
76750.00000	80.79521	-2710.08518	80.79521
76800.00000	81.84031	-2708.54160	81.84031
76850.00000	80.73284	-2709.53411	80.73284
76900.00000	81.29935	-2716.98903	81.29935
76950.00000	80.87446	-2712.44086	80.87446
77000.00000	80.48493	-2721.23084	80.48493
77050.00000	81.27189	-2722.94590	81.27189
77100.00000	80.33577	-2720.82214	80.33577
77150.00000	80.25148	-2732.68427	80.25148
77200.00000	81.17219	-2728.04730	81.17219
77250.00000	79.76550	-2727.92670	79.76550
77300.00000	80.15101	-2733.12371	80.15101
77350.00000	80.80836	-2727.89746	80.80836
77400.00000	79.36003	-2735.55956	79.36003
77450.00000	81.46655	-2738.04500	81.46655
77500.00000	80.07671	-2735.25776	80.07671
77550.00000	80.06647	-2746.74180	80.06647
77600.00000	81.08764	-2740.55009	81.08764
77650.00000	79.71534	-2742.83017	79.71534
77700.00000	81.13654	-2753.80447	81.13654
77750.00000	80.71168	-2745.13306	80.71168
77800.00000	79.39586	-2753.12077	79.39586
77850.00000	81.25194	-2753.15611	81.25194
77900.00000	80.19581	-2757.75392	80.19581
77950.00000	80.67949	-2765.68864	80.67949
78000.00000	81.28225	-2760.99057	81.28225
78050.00000	80.15033	-2766.53042	80.15033
78100.00000	81.02963	-2772.02905	81.02963
78150.00000	80.88393	-2769.17509	80.88393
78200.00000	80.13918	-2776.82061	80.13918
78250.00000	80.81756	-2777.46208	80.81756
78300.00000	79.87587	-2778.31934	79.87587
78350.00000	79.93116	-2786.75181	79.93116
78400.00000	80.42926	-2780.95494	80.42926
78450.00000	80.11188	-2789.96651	80.11188
78500.00000	80.78444	-2792.09717	80.78444
78550.00000	79.81303	-2787.51561	79.81303
78600.00000	79.85055	-2794.73558	79.85055
78650.00000	80.42247	-2794.22015	80.42247
78700.00000	79.58743	-2800.90919	79.58743
78750.00000	80.30232	-2805.17688	80.30232
78800.00000	79.50416	-2801.31239	79.50416
78850.00000	79.68829	-2807.61499	79.68829
78900.00000	80.25635	-2807.19521	80.25635
78950.00000	79.72265	-2811.66886	79.72265
79000.00000	80.02423	-2817.61704	80.02423
79050.00000	79.80989	-2815.74881	79.80989
79100.00000	79.54834	-2821.73091	79.54834
79150.00000	80.19835	-2823.29923	80.19835
79200.00000	79.43061	-2823.95782	79.43061
79250.00000	79.53148	-2831.35377	79.53148
79300.00000	79.80774	-2830.24113	79.80774
79350.00000	79.21172	-2834.79391	79.21172
79400.00000	79.80685	-2835.60380	79.80685
79450.00000	79.21526	-2837.41799	79.21526
79500.00000	79.07562	-2843.07634	79.07562
79550.00000	79.26285	-2842.93841	79.26285
79600.00000	79.01077	-2848.30917	79.01077
79650.00000	79.13651	-2851.34010	79.13651
79700.00000	78.81956	-2854.29278	78.81956
79750.00000	78.95588	-2859.28021	78.95588
79800.00000	78.80374	-2859.20920	78.80374
79850.00000	78.40436	-2863.96467	78.40436
79900.00000	78.63618	-2866.56426	78.63618
79950.00000	78.08177	-2871.40490	78.08177
80000.00000	77.90611	-2872.60402	77.90611
80050.00000	77.79768	-2875.23600	77.79768
80100.00000	77.26063	-2881.42504	77.26063
80150.00000	77.11193	-2886.81221	77.11193
80200.00000	76.84076	-2885.62448	76.84076
80250.00000	76.55903	-2894.20810	76.55903
80300.00000	75.54223	-2893.78485	75.54223
80350.00000	74.47283	-2899.88701	74.47283
80400.00000	73.59980	-2900.39043	73.59980
80450.00000	72.90065	-2896.53574	72.90065
80500.00000	72.43656	-2895.44902	72.43656
80550.00000	71.94521	-2892.97532	71.94521
80600.00000	72.37872	-2889.70542	72.37872
80650.00000	72.84791	-2890.13284	72.84791
80700.00000	72.94276	-2889.94574	72.94276
80750.00000	73.06210	-2893.42758	73.06210
80800.00000	72.52173	-2896.92173	72.52173
80850.00000	72.18540	-2897.92963	72.18540
80900.00000	71.64874	-2899.00610	71.64874
80950.00000	70.90193	-2899.39845	70.90193
81000.00000	70.26027	-2897.63235	70.26027
81050.00000	69.61145	-2898.72463	69.61145
81100.00000	68.57056	-2895.62595	68.57056
81150.00000	68.76492	-2893.48347	68.76492
81200.00000	68.41842	-2886.05537	68.41842
81250.00000	68.60759	-2884.87310	68.60759
81300.00000	68.34592	-2879.44625	68.34592
81350.00000	69.03667	-2878.59889	69.03667
81400.00000	69.17077	-2877.87425	69.17077
81450.00000	69.83056	-2872.06289	69.83056
81500.00000	70.05098	-2871.55193	70.05098
81550.00000	70.41924	-2870.28488	70.41924
81600.00000	70.59519	-2869.47446	70.59519
81650.00000	70.57233	-2871.01993	70.57233
81700.00000	71.50128	-2872.33372	71.50128
81750.00000	71.89488	-2869.22035	71.89488
81800.00000	72.32464	-2872.32117	72.32464
81850.00000	72.15684	-2870.38996	72.15684
81900.00000	72.71901	-2873.39230	72.71901
81950.00000	72.75874	-2874.69349	72.75874
82000.00000	73.49324	-2873.70127	73.49324
82050.00000	73.87470	-2877.36419	73.87470
82100.00000	74.00894	-2878.53801	74.00894
82150.00000	73.89969	-2877.80401	73.89969
82200.00000	74.27520	-2878.33346	74.27520
82250.00000	74.69920	-2881.35866	74.69920
82300.00000	74.91425	-2883.39892	74.91425
82350.00000	74.98311	-2882.45227	74.98311
82400.00000	75.51111	-2883.52530	75.51111
82450.00000	75.31066	-2885.01850	75.31066
82500.00000	75.55033	-2886.00050	75.55033
82550.00000	75.80443	-2884.10550	75.80443
82600.00000	75.81800	-2882.40549	75.81800
82650.00000	76.36329	-2881.80102	76.36329
82700.00000	76.66308	-2880.18314	76.66308
82750.00000	77.43561	-2878.49032	77.43561
82800.00000	79.03586	-2877.86160	79.03586
82850.00000	80.29555	-2880.18313	80.29555
82900.00000	81.53754	-2885.59902	81.53754
82950.00000	82.56707	-2892.67064	82.56707
83000.00000	83.33422	-2898.91017	83.33422
83050.00000	83.80444	-2905.71374	83.80444
83100.00000	84.43530	-2911.93273	84.43530
83150.00000	84.91924	-2917.55719	84.91924
83200.00000	85.36592	-2922.47867	85.36592
83250.00000	85.63852	-2926.52061	85.63852
83300.00000	86.05853	-2932.01582	86.05853
83350.00000	86.27787	-2935.80973	86.27787
83400.00000	86.74621	-2941.03003	86.74621
83450.00000	86.96654	-2946.36121	86.96654
83500.00000	87.11723	-2951.31584	87.11723
83550.00000	87.37859	-2957.42684	87.37859
83600.00000	87.51279	-2961.65828	87.51279
83650.00000	87.50724	-2968.64084	87.50724
83700.00000	87.48191	-2973.57339	87.48191
83750.00000	87.31859	-2979.67504	87.31859
83800.00000	87.12302	-2985.45885	87.12302
83850.00000	86.66094	-2990.79465	86.66094
83900.00000	86.29285	-2994.80460	86.29285
83950.00000	85.65759	-2998.29193	85.65759
84000.00000	85.07197	-2999.90537	85.07197
84050.00000	84.27754	-2999.93902	84.27754
84100.00000	84.06628	-2996.83409	84.06628
84150.00000	84.01273	-2992.76291	84.01273
84200.00000	84.73395	-2989.50314	84.73395
84250.00000	85.35712	-2988.85204	85.35712
84300.00000	86.47139	-2990.20757	86.47139
84350.00000	87.40644	-2992.04920	87.40644
84400.00000	88.15158	-2996.48893	88.15158
84450.00000	88.85874	-3001.15153	88.85874
84500.00000	89.63159	-3007.11875	89.63159
84550.00000	90.19706	-3012.61215	90.19706
84600.00000	90.57532	-3019.11306	90.57532
84650.00000	91.01057	-3026.08633	91.01057
84700.00000	91.34829	-3032.05271	91.34829
84750.00000	91.65721	-3039.62703	91.65721
84800.00000	91.79930	-3047.11927	91.79930
84850.00000	91.91024	-3053.64444	91.91024
84900.00000	92.05493	-3061.34042	92.05493
84950.00000	92.00337	-3067.95426	92.00337
85000.00000	92.07490	-3074.67632	92.07490
85050.00000	91.90950	-3081.85977	91.90950
85100.00000	91.84055	-3089.36806	91.84055
85150.00000	91.61887	-3095.80594	91.61887
85200.00000	91.40297	-3102.16779	91.40297
85250.00000	91.54367	-3109.25691	91.54367
85300.00000	90.81968	-3115.50762	90.81968
85350.00000	90.48698	-3120.96917	90.48698
85400.00000	90.08615	-3126.94872	90.08615
85450.00000	89.66430	-3133.03321	89.66430
85500.00000	89.23180	-3138.70643	89.23180
85550.00000	88.80356	-3144.06520	88.80356
85600.00000	88.24053	-3149.20895	88.24053
85650.00000	87.81239	-3154.26841	87.81239
85700.00000	87.12297	-3159.03506	87.12297
85750.00000	86.55212	-3163.10811	86.55212
85800.00000	86.14647	-3166.03757	86.14647
85850.00000	85.41019	-3172.42915	85.41019
85900.00000	84.76059	-3176.45744	84.76059
85950.00000	84.25806	-3178.34757	84.25806
86000.00000	83.83010	-3181.97632	83.83010
86050.00000	83.19355	-3183.79188	83.19355
86100.00000	82.53861	-3185.36422	82.53861
86150.00000	82.17216	-3189.97364	82.17216
86200.00000	81.65486	-3191.69068	81.65486
86250.00000	81.08171	-3191.96939	81.08171
86300.00000	80.53398	-3196.02595	80.53398
86350.00000	79.93605	-3197.40259	79.93605
86400.00000	78.94565	-3200.03571	78.94565
86450.00000	78.43369	-3198.16123	78.43369
86500.00000	77.89678	-3196.53494	77.89678
86550.00000	78.02196	-3202.06410	78.02196
86600.00000	77.20500	-3200.34633	77.20500
86650.00000	77.23729	-3198.70684	77.23729
86700.00000	76.53396	-3200.13253	76.53396
86750.00000	76.07232	-3201.37213	76.07232
86800.00000	76.38877	-3202.72644	76.38877
86850.00000	76.11901	-3199.37811	76.11901
86900.00000	76.06531	-3200.27774	76.06531
86950.00000	75.79561	-3201.47982	75.79561
87000.00000	75.46683	-3202.07875	75.46683
87050.00000	75.48679	-3206.94354	75.48679
87100.00000	75.00107	-3206.83560	75.00107
87150.00000	74.66447	-3208.09824	74.66447
87200.00000	74.48307	-3207.42973	74.48307
87250.00000	74.19573	-3206.98475	74.19573
87300.00000	74.33919	-3207.20175	74.33919
87350.00000	73.89615	-3208.47084	73.89615
87400.00000	74.16998	-3207.74960	74.16998
87450.00000	74.18530	-3208.79332	74.18530
87500.00000	73.78167	-3208.17097	73.78167
87550.00000	73.66596	-3207.13261	73.66596
87600.00000	73.86794	-3210.38261	73.86794
87650.00000	73.91173	-3205.90780	73.91173
87700.00000	73.95520	-3209.06792	73.95520
87750.00000	73.92621	-3209.46974	73.92621
87800.00000	74.13330	-3210.70102	74.13330
87850.00000	73.95990	-3211.11769	73.95990
87900.00000	73.81149	-3212.53798	73.81149
87950.00000	73.93140	-3214.01337	73.93140
88000.00000	74.44404	-3214.75158	74.44404
88050.00000	74.33380	-3216.07350	74.33380
88100.00000	74.53909	-3216.53566	74.53909
88150.00000	74.79404	-3217.07830	74.79404
88200.00000	74.56854	-3220.52259	74.56854
88250.00000	75.08600	-3218.30386	75.08600
88300.00000	74.53184	-3222.14132	74.53184
88350.00000	75.22562	-3224.94814	75.22562
88400.00000	75.00053	-3224.03853	75.00053
88450.00000	75.09321	-3226.20322	75.09321
88500.00000	75.46303	-3228.25502	75.46303
88550.00000	75.17393	-3228.64431	75.17393
88600.00000	75.42077	-3233.51673	75.42077
88650.00000	75.43824	-3231.69746	75.43824
88700.00000	75.34007	-3234.31708	75.34007
88750.00000	75.90888	-3235.76115	75.90888
88800.00000	76.27752	-3237.69429	76.27752
88850.00000	76.70696	-3242.83401	76.70696
88900.00000	76.90937	-3242.68434	76.90937
88950.00000	76.59729	-3244.50583	76.59729
89000.00000	76.47267	-3247.38484	76.47267
89050.00000	76.40540	-3250.83827	76.40540
89100.00000	76.66450	-3253.36873	76.66450
89150.00000	76.61084	-3253.62082	76.61084
89200.00000	76.92711	-3254.94503	76.92711
89250.00000	76.82367	-3257.89124	76.82367
89300.00000	76.97249	-3260.46481	76.97249
89350.00000	76.94179	-3263.71906	76.94179
89400.00000	77.03399	-3264.30297	77.03399
89450.00000	77.55763	-3265.77245	77.55763
89500.00000	77.39453	-3270.10101	77.39453
89550.00000	76.95819	-3271.18676	76.95819
89600.00000	77.23630	-3273.77175	77.23630
89650.00000	77.38399	-3276.34279	77.38399
89700.00000	77.08811	-3275.87021	77.08811
89750.00000	77.18291	-3278.41467	77.18291
89800.00000	77.03960	-3278.09575	77.03960
89850.00000	76.83826	-3278.89161	76.83826
89900.00000	77.10898	-3281.04987	77.10898
89950.00000	77.37934	-3277.11143	77.37934
90000.00000	77.15765	-3270.65530	77.15765
90050.00000	77.89283	-3265.62274	77.89283
90100.00000	80.36644	-3269.30289	80.36644
90150.00000	81.63879	-3267.13323	81.63879
90200.00000	84.42673	-3274.18419	84.42673
90250.00000	85.62001	-3297.15586	85.62001
90300.00000	85.79873	-3315.96745	85.79873
90350.00000	84.40244	-3328.06912	84.40244
90400.00000	83.73934	-3330.90853	83.73934
90450.00000	82.69453	-3336.15285	82.69453
90500.00000	82.02620	-3339.19297	82.02620
90550.00000	81.61100	-3342.35646	81.61100
90600.00000	80.86000	-3346.77694	80.86000
90650.00000	81.55250	-3348.23045	81.55250
90700.00000	80.83959	-3350.12402	80.83959
90750.00000	80.96487	-3351.49533	80.96487
90800.00000	80.76555	-3355.13358	80.76555
90850.00000	81.07898	-3355.40374	81.07898
90900.00000	81.17859	-3360.15109	81.17859
90950.00000	81.24323	-3361.21710	81.24323
91000.00000	81.04084	-3365.63682	81.04084
91050.00000	81.22324	-3368.60066	81.22324
91100.00000	81.57705	-3372.34974	81.57705
91150.00000	81.27539	-3373.34419	81.27539
91200.00000	81.41741	-3376.87167	81.41741
91250.00000	81.54058	-3380.73949	81.54058
91300.00000	81.42355	-3385.18838	81.42355
91350.00000	81.47447	-3389.06393	81.47447
91400.00000	81.57148	-3392.34543	81.57148
91450.00000	81.24430	-3393.37790	81.24430
91500.00000	81.56956	-3397.49749	81.56956
91550.00000	81.61165	-3400.87092	81.61165
91600.00000	81.86198	-3404.82020	81.86198
91650.00000	81.75041	-3409.56935	81.75041
91700.00000	81.81318	-3411.20917	81.81318
91750.00000	81.77267	-3415.09982	81.77267
91800.00000	81.82396	-3419.23802	81.82396
91850.00000	81.85629	-3423.88176	81.85629
91900.00000	82.01203	-3426.64239	82.01203
91950.00000	81.82297	-3430.24118	81.82297
92000.00000	81.83575	-3433.47394	81.83575
92050.00000	81.84595	-3439.15600	81.84595
92100.00000	81.70477	-3442.74699	81.70477
92150.00000	81.78770	-3445.99982	81.78770
92200.00000	82.07351	-3451.12887	82.07351
92250.00000	82.11264	-3452.75109	82.11264
92300.00000	82.19403	-3457.87220	82.19403
92350.00000	82.19404	-3461.51430	82.19404
92400.00000	82.27435	-3467.39454	82.27435
92450.00000	82.08728	-3469.70163	82.08728
92500.00000	82.19042	-3474.35936	82.19042
92550.00000	82.12175	-3479.69383	82.12175
92600.00000	82.07250	-3484.87626	82.07250
92650.00000	82.22782	-3489.72040	82.22782
92700.00000	82.10577	-3493.48649	82.10577
92750.00000	81.70990	-3498.61055	81.70990
92800.00000	81.93039	-3503.31557	81.93039
92850.00000	81.63336	-3506.23578	81.63336
92900.00000	81.65784	-3513.43147	81.65784
92950.00000	81.61850	-3516.83432	81.61850
93000.00000	81.40470	-3520.02088	81.40470
93050.00000	81.11076	-3526.26478	81.11076
93100.00000	81.01366	-3532.19205	81.01366
93150.00000	80.83509	-3535.93571	80.83509
93200.00000	80.58124	-3540.30239	80.58124
93250.00000	80.45674	-3544.40488	80.45674
93300.00000	80.19758	-3549.95247	80.19758
93350.00000	80.11576	-3555.02417	80.11576
93400.00000	79.87788	-3557.96379	79.87788
93450.00000	79.13354	-3561.57973	79.13354
93500.00000	78.93111	-3566.68595	78.93111
93550.00000	78.42656	-3571.86566	78.42656
93600.00000	78.34992	-3575.52037	78.34992
93650.00000	77.68384	-3576.52002	77.68384
93700.00000	77.57791	-3578.74883	77.57791
93750.00000	77.38015	-3581.06010	77.38015
93800.00000	77.05562	-3587.11791	77.05562
93850.00000	77.07004	-3587.26515	77.07004
93900.00000	76.73986	-3592.54273	76.73986
93950.00000	76.77446	-3592.98237	76.77446
94000.00000	75.92100	-3599.03697	75.92100
94050.00000	76.17555	-3599.86757	76.17555
94100.00000	75.68549	-3603.47308	75.68549
94150.00000	75.25366	-3604.49737	75.25366
94200.00000	75.93084	-3611.09032	75.93084
94250.00000	75.81222	-3611.43705	75.81222
94300.00000	75.83570	-3616.45928	75.83570
94350.00000	75.11076	-3620.48645	75.11076
94400.00000	75.43914	-3624.42621	75.43914
94450.00000	75.21789	-3630.41626	75.21789
94500.00000	74.72291	-3633.83380	74.72291
94550.00000	74.94998	-3637.79785	74.94998
94600.00000	74.56045	-3645.79141	74.56045
94650.00000	73.77167	-3647.92302	73.77167
94700.00000	73.76011	-3651.43934	73.76011
94750.00000	73.62825	-3652.48334	73.62825
94800.00000	72.83902	-3660.12401	72.83902
94850.00000	72.30052	-3659.78281	72.30052
94900.00000	72.37924	-3667.12213	72.37924
94950.00000	72.08849	-3671.44711	72.08849
95000.00000	70.63158	-3667.88091	70.63158
95050.00000	70.37243	-3675.40092	70.37243
95100.00000	70.24475	-3676.79739	70.24475
95150.00000	69.51704	-3672.04418	69.51704
95200.00000	69.29811	-3677.53652	69.29811
95250.00000	68.29935	-3679.02366	68.29935
95300.00000	69.90836	-3678.24690	69.90836
95350.00000	68.90184	-3676.70090	68.90184
95400.00000	69.21496	-3673.61109	69.21496
95450.00000	69.04033	-3682.35381	69.04033
95500.00000	68.83897	-3680.10853	68.83897
95550.00000	68.90292	-3677.97453	68.90292
95600.00000	70.31059	-3680.63100	70.31059
95650.00000	68.79060	-3687.79137	68.79060
95700.00000	70.68407	-3683.99421	70.68407
95750.00000	70.55919	-3688.91336	70.55919
95800.00000	69.52917	-3695.27228	69.52917
95850.00000	70.15039	-3703.09687	70.15039
95900.00000	70.76001	-3704.23338	70.76001
95950.00000	70.90635	-3697.21524	70.90635
96000.00000	69.93166	-3706.65159	69.93166
96050.00000	71.00321	-3711.44074	71.00321
96100.00000	73.09554	-3710.35271	73.09554
96150.00000	70.75578	-3728.35314	70.75578
96200.00000	72.86545	-3735.66264	72.86545
96250.00000	71.23377	-3740.29984	71.23377
96300.00000	72.05622	-3741.26077	72.05622
96350.00000	72.93191	-3744.50492	72.93191
96400.00000	73.47488	-3744.19837	73.47488
96450.00000	71.72615	-3740.17035	71.72615
96500.00000	71.83782	-3756.19838	71.83782
96550.00000	72.93611	-3746.43424	72.93611
96600.00000	72.69171	-3761.43786	72.69171
96650.00000	72.46385	-3767.64440	72.46385
96700.00000	70.27735	-3773.99285	70.27735
96750.00000	73.46225	-3780.52672	73.46225
96800.00000	73.15653	-3787.72584	73.15653
96850.00000	69.91038	-3800.53326	69.91038
96900.00000	71.74022	-3796.31266	71.74022
96950.00000	74.31170	-3798.44525	74.31170
97000.00000	74.56037	-3793.71466	74.56037
97050.00000	73.18564	-3794.61646	73.18564
97100.00000	74.57516	-3813.07447	74.57516
97150.00000	75.88264	-3812.85361	75.88264
97200.00000	77.30880	-3811.53067	77.30880
97250.00000	74.89088	-3852.36622	74.89088
97300.00000	77.29711	-3853.84289	77.29711
97350.00000	75.24382	-3880.53210	75.24382
97400.00000	73.50787	-3888.66186	73.50787
97450.00000	69.91102	-3870.50780	69.91102
97500.00000	67.45366	-3881.69609	67.45366
97550.00000	68.32769	-3855.50529	68.32769
97600.00000	68.88686	-3873.32350	68.88686
97650.00000	68.28971	-3875.77105	68.28971
97700.00000	67.56104	-3877.31827	67.56104
97750.00000	66.24738	-3870.55881	66.24738
97800.00000	67.39637	-3880.35074	67.39637
97850.00000	67.61330	-3877.31322	67.61330
97900.00000	69.52845	-3884.88252	69.52845
97950.00000	67.31870	-3878.21345	67.31870
98000.00000	69.04995	-3881.42331	69.04995
98050.00000	67.42512	-3893.45221	67.42512
98100.00000	68.52399	-3877.07883	68.52399
98150.00000	69.51074	-3884.49810	69.51074
98200.00000	67.03453	-3891.35318	67.03453
98250.00000	68.13999	-3891.22803	68.13999
98300.00000	69.04671	-3897.44188	69.04671
98350.00000	67.53001	-3896.45358	67.53001
98400.00000	69.65907	-3898.33983	69.65907
98450.00000	68.95300	-3900.16246	68.95300
98500.00000	69.62731	-3890.24686	69.62731
98550.00000	69.80431	-3905.16699	69.80431
98600.00000	68.87491	-3908.49433	68.87491
98650.00000	67.01810	-3909.35043	67.01810
98700.00000	67.32949	-3901.69848	67.32949
98750.00000	67.48921	-3919.24878	67.48921
98800.00000	65.92950	-3912.29213	65.92950
98850.00000	68.53495	-3912.73624	68.53495
98900.00000	67.14203	-3908.89732	67.14203
98950.00000	67.15284	-3915.18194	67.15284
99000.00000	66.30203	-3914.39724	66.30203
99050.00000	65.63857	-3930.35111	65.63857
99100.00000	65.15617	-3931.45144	65.15617
99150.00000	64.72621	-3930.11894	64.72621
99200.00000	65.27975	-3929.23433	65.27975
99250.00000	65.34072	-3929.73697	65.34072
99300.00000	64.74520	-3928.08197	64.74520
99350.00000	62.69653	-3942.79873	62.69653
99400.00000	62.96316	-3949.21743	62.96316
99450.00000	61.88545	-3940.12231	61.88545
99500.00000	60.18477	-3949.33462	60.18477
99550.00000	61.33615	-3953.63486	61.33615
99600.00000	60.85540	-3964.46621	60.85540
99650.00000	57.28730	-3936.16080	57.28730
99700.00000	59.29004	-3943.68661	59.29004
99750.00000	60.94218	-3946.20343	60.94218
99800.00000	62.13278	-3958.17327	62.13278
99850.00000	60.03720	-3950.89276	60.03720
99900.00000	62.53762	-3962.58469	62.53762
99950.00000	58.78094	-3949.47834	58.78094
