---ACOUSTIC CALIBRATION---
Filename: C:\Data\CL0809 DATA\CL0809200\RightSecondary.calib
Date: 8/9/2019 10:17:25 AM
Format: 4
Probe Tube Correction File: C:\Data\Probe Tube Calibrations\74_ProbeTube.calib
Experiment VIs: 2128
EPL_CFTS.exe V15.0.1f5 (2015)
DAQmx V15.1

Attenuation (dB): 40.000000
Min Freq (Hz): 50.000000
Max Freq (Hz): 99950.000000
Freq Step (Hz): 50.000000
Sample Rate (Hz): 200000.000000
[Smoothing]
Method=None
MA.Iterations=0
MA.Length=0
Loess.Length=0
Loess.Type=Linear
Loess.Robust=FALSE


Freq(Hz)	Mag(dB)	Phase(deg)	Unsmoothed(dB)

50.00000	91.48609	121.39213	91.48609
100.00000	67.40815	246.57477	67.40815
150.00000	71.40511	423.26253	71.40511
200.00000	63.57369	516.45515	63.57369
250.00000	52.70540	720.40878	52.70540
300.00000	65.21671	879.51899	65.21671
350.00000	63.14253	1009.49421	63.14253
400.00000	59.18128	1070.44195	59.18128
450.00000	68.67913	1108.80599	68.67913
500.00000	72.91659	1215.73343	72.91659
550.00000	79.81821	1153.31221	79.81821
600.00000	78.98133	1108.58079	78.98133
650.00000	85.65108	1097.21039	85.65108
700.00000	85.24696	1097.16811	85.24696
750.00000	89.20466	1061.86683	89.20466
800.00000	90.37209	1043.63171	90.37209
850.00000	89.62821	1033.57112	89.62821
900.00000	90.11097	1027.12577	90.11097
950.00000	91.55334	1013.18948	91.55334
1000.00000	91.69067	1006.39049	91.69067
1050.00000	91.83157	990.99556	91.83157
1100.00000	91.12722	982.20008	91.12722
1150.00000	90.20515	979.30286	90.20515
1200.00000	89.52296	983.98226	89.52296
1250.00000	90.28491	988.62272	90.28491
1300.00000	91.41287	988.55374	91.41287
1350.00000	92.22331	986.94182	92.22331
1400.00000	93.13473	986.31041	93.13473
1450.00000	93.97838	984.64197	93.97838
1500.00000	95.38281	983.73177	95.38281
1550.00000	96.66702	977.91655	96.66702
1600.00000	97.99547	973.39815	97.99547
1650.00000	99.27343	969.15715	99.27343
1700.00000	103.43171	952.24471	103.43171
1750.00000	100.58196	930.76632	100.58196
1800.00000	100.33795	925.16615	100.33795
1850.00000	100.16047	917.57162	100.16047
1900.00000	100.11769	910.28762	100.11769
1950.00000	99.46444	903.69405	99.46444
2000.00000	98.74969	898.06745	98.74969
2050.00000	97.67402	897.54739	97.67402
2100.00000	97.65977	903.80013	97.65977
2150.00000	98.98962	902.03462	98.98962
2200.00000	99.37539	892.35374	99.37539
2250.00000	98.81185	886.39188	98.81185
2300.00000	98.42848	885.28977	98.42848
2350.00000	98.52878	882.62055	98.52878
2400.00000	98.65253	880.15457	98.65253
2450.00000	98.43593	875.88797	98.43593
2500.00000	97.96709	875.82292	97.96709
2550.00000	98.14967	875.85938	98.14967
2600.00000	98.37040	874.71183	98.37040
2650.00000	98.55095	874.13222	98.55095
2700.00000	98.84941	872.02855	98.84941
2750.00000	99.05408	870.38985	99.05408
2800.00000	99.36359	867.74306	99.36359
2850.00000	99.65038	865.72548	99.65038
2900.00000	99.98444	862.96352	99.98444
2950.00000	100.25908	860.36285	100.25908
3000.00000	100.52175	857.85951	100.52175
3050.00000	100.78274	854.57713	100.78274
3100.00000	101.01507	851.29058	101.01507
3150.00000	101.05078	848.30234	101.05078
3200.00000	101.23511	844.93895	101.23511
3250.00000	101.46862	842.44324	101.46862
3300.00000	101.49438	839.51618	101.49438
3350.00000	101.69574	837.39530	101.69574
3400.00000	101.77596	834.96517	101.77596
3450.00000	101.90025	833.59304	101.90025
3500.00000	102.06872	832.53982	102.06872
3550.00000	102.72685	830.02637	102.72685
3600.00000	102.79520	826.10308	102.79520
3650.00000	103.06536	825.37474	103.06536
3700.00000	103.30200	823.60096	103.30200
3750.00000	103.82158	820.57134	103.82158
3800.00000	104.66470	818.38145	104.66470
3850.00000	105.23485	808.55058	105.23485
3900.00000	105.54888	800.22297	105.54888
3950.00000	104.67609	796.38671	104.67609
4000.00000	104.21734	797.41766	104.21734
4050.00000	104.50139	798.17234	104.50139
4100.00000	105.06502	798.04382	105.06502
4150.00000	106.55090	794.90253	106.55090
4200.00000	107.36696	789.98798	107.36696
4250.00000	107.33643	777.27178	107.33643
4300.00000	107.29848	774.18925	107.29848
4350.00000	107.56723	769.75768	107.56723
4400.00000	107.82398	763.88704	107.82398
4450.00000	107.81554	756.96633	107.81554
4500.00000	107.83159	751.09029	107.83159
4550.00000	107.64046	746.01611	107.64046
4600.00000	107.58449	740.86326	107.58449
4650.00000	107.51162	736.38484	107.51162
4700.00000	107.40795	731.87434	107.40795
4750.00000	107.31571	727.56980	107.31571
4800.00000	107.26286	723.54949	107.26286
4850.00000	107.21730	719.12569	107.21730
4900.00000	107.16400	714.07855	107.16400
4950.00000	107.07820	709.37436	107.07820
5000.00000	106.93759	704.29877	106.93759
5050.00000	106.75491	699.28933	106.75491
5100.00000	106.51954	694.23036	106.51954
5150.00000	106.19311	689.29588	106.19311
5200.00000	105.72244	684.35890	105.72244
5250.00000	104.90530	681.28550	104.90530
5300.00000	104.75783	684.11147	104.75783
5350.00000	105.23283	679.74070	105.23283
5400.00000	105.08629	674.08384	105.08629
5450.00000	104.75140	669.71933	104.75140
5500.00000	104.42587	665.95942	104.42587
5550.00000	104.15192	662.81627	104.15192
5600.00000	103.86614	659.05544	103.86614
5650.00000	103.46672	655.99380	103.46672
5700.00000	103.11174	653.02856	103.11174
5750.00000	102.80619	650.37558	102.80619
5800.00000	102.47183	648.03277	102.47183
5850.00000	102.13180	645.70887	102.13180
5900.00000	101.81804	643.57271	101.81804
5950.00000	101.56337	641.61639	101.56337
6000.00000	101.32714	639.55087	101.32714
6050.00000	101.07959	637.33050	101.07959
6100.00000	100.81413	635.05561	100.81413
6150.00000	100.51390	632.97555	100.51390
6200.00000	100.20309	631.26441	100.20309
6250.00000	99.93179	629.55561	99.93179
6300.00000	99.63001	628.03653	99.63001
6350.00000	99.37942	626.60163	99.37942
6400.00000	99.12522	625.46600	99.12522
6450.00000	98.90140	624.35293	98.90140
6500.00000	98.69984	623.34703	98.69984
6550.00000	98.48118	622.43350	98.48118
6600.00000	98.31043	621.56686	98.31043
6650.00000	98.15274	621.05791	98.15274
6700.00000	98.04652	620.64871	98.04652
6750.00000	98.05714	620.45658	98.05714
6800.00000	98.15317	619.66347	98.15317
6850.00000	98.25227	618.10332	98.25227
6900.00000	98.33443	615.96179	98.33443
6950.00000	98.34902	613.38305	98.34902
7000.00000	98.30055	610.78631	98.30055
7050.00000	98.16451	608.18226	98.16451
7100.00000	97.97587	605.81777	97.97587
7150.00000	97.72211	603.52581	97.72211
7200.00000	97.48663	601.76968	97.48663
7250.00000	97.21808	600.65090	97.21808
7300.00000	96.97661	599.84180	96.97661
7350.00000	96.74024	599.22740	96.74024
7400.00000	96.52372	598.77031	96.52372
7450.00000	96.40650	599.04104	96.40650
7500.00000	96.32351	599.60891	96.32351
7550.00000	96.31483	599.92381	96.31483
7600.00000	96.41702	600.04007	96.41702
7650.00000	96.53488	600.04759	96.53488
7700.00000	96.72537	599.55491	96.72537
7750.00000	96.92360	598.67531	96.92360
7800.00000	97.09727	597.38723	97.09727
7850.00000	97.32308	595.82602	97.32308
7900.00000	97.45410	593.98255	97.45410
7950.00000	97.60624	592.15776	97.60624
8000.00000	97.69217	590.40668	97.69217
8050.00000	97.77386	588.33372	97.77386
8100.00000	97.85539	586.06923	97.85539
8150.00000	97.95661	584.49859	97.95661
8200.00000	97.99317	582.50513	97.99317
8250.00000	98.04107	580.58664	98.04107
8300.00000	98.12484	578.60859	98.12484
8350.00000	98.14144	576.71167	98.14144
8400.00000	98.21234	574.87811	98.21234
8450.00000	98.23464	572.93185	98.23464
8500.00000	98.29371	571.16561	98.29371
8550.00000	98.34319	569.61335	98.34319
8600.00000	98.44446	567.90849	98.44446
8650.00000	98.55968	566.36373	98.55968
8700.00000	98.61370	564.64552	98.61370
8750.00000	98.73248	562.73586	98.73248
8800.00000	98.83734	560.91613	98.83734
8850.00000	98.97115	559.06199	98.97115
8900.00000	99.07354	557.22515	99.07354
8950.00000	99.19615	555.26275	99.19615
9000.00000	99.29246	553.19529	99.29246
9050.00000	99.42912	551.26690	99.42912
9100.00000	99.56594	549.41727	99.56594
9150.00000	99.75912	547.14010	99.75912
9200.00000	99.88363	544.66580	99.88363
9250.00000	99.94585	542.39731	99.94585
9300.00000	100.12631	539.86411	100.12631
9350.00000	100.24604	537.08048	100.24604
9400.00000	100.33779	534.25441	100.33779
9450.00000	100.44987	531.52411	100.44987
9500.00000	100.57316	528.24805	100.57316
9550.00000	100.63222	525.33392	100.63222
9600.00000	100.73998	522.41142	100.73998
9650.00000	100.86723	519.32089	100.86723
9700.00000	100.89874	516.01039	100.89874
9750.00000	100.92645	512.89946	100.92645
9800.00000	100.91072	509.83108	100.91072
9850.00000	100.95171	506.82712	100.95171
9900.00000	100.95595	504.23674	100.95595
9950.00000	100.97319	501.49701	100.97319
10000.00000	101.03228	499.00690	101.03228
10050.00000	101.06969	496.04492	101.06969
10100.00000	101.10786	492.84399	101.10786
10150.00000	101.08838	489.76044	101.08838
10200.00000	101.07197	486.80925	101.07197
10250.00000	101.01381	484.22199	101.01381
10300.00000	101.02723	481.30770	101.02723
10350.00000	101.03554	478.56176	101.03554
10400.00000	100.96712	475.56172	100.96712
10450.00000	100.96199	472.59999	100.96199
10500.00000	100.98506	469.34295	100.98506
10550.00000	100.97192	466.52186	100.97192
10600.00000	101.04026	462.98999	101.04026
10650.00000	101.05934	459.51578	101.05934
10700.00000	101.04700	455.63689	101.04700
10750.00000	101.01723	452.23534	101.01723
10800.00000	101.02664	448.02729	101.02664
10850.00000	101.00515	444.02191	101.00515
10900.00000	100.92758	440.17577	100.92758
10950.00000	100.82166	436.06275	100.82166
11000.00000	100.74539	432.10422	100.74539
11050.00000	100.54685	427.84440	100.54685
11100.00000	100.35230	423.97615	100.35230
11150.00000	100.14514	419.89662	100.14514
11200.00000	99.89067	416.17767	99.89067
11250.00000	99.54639	411.92840	99.54639
11300.00000	99.22439	408.28978	99.22439
11350.00000	98.81896	404.39509	98.81896
11400.00000	98.38077	400.88536	98.38077
11450.00000	97.96327	397.29483	97.96327
11500.00000	97.52125	393.84245	97.52125
11550.00000	97.04250	390.60471	97.04250
11600.00000	96.55699	387.74352	96.55699
11650.00000	96.08315	384.89024	96.08315
11700.00000	95.61636	382.40919	95.61636
11750.00000	95.11348	380.10958	95.11348
11800.00000	94.63135	378.43019	94.63135
11850.00000	94.19503	376.93521	94.19503
11900.00000	93.68390	376.26160	93.68390
11950.00000	93.32806	375.20092	93.32806
12000.00000	92.97851	374.95385	92.97851
12050.00000	92.54337	374.84080	92.54337
12100.00000	92.11261	374.42706	92.11261
12150.00000	91.64443	374.03127	91.64443
12200.00000	91.18715	374.03144	91.18715
12250.00000	90.78667	374.35191	90.78667
12300.00000	90.30792	374.42184	90.30792
12350.00000	89.94399	374.63888	89.94399
12400.00000	89.52215	374.20536	89.52215
12450.00000	89.30528	374.36513	89.30528
12500.00000	89.01815	375.19176	89.01815
12550.00000	88.74085	375.43670	88.74085
12600.00000	88.53807	374.81188	88.53807
12650.00000	88.31845	376.40637	88.31845
12700.00000	88.19073	377.18378	88.19073
12750.00000	87.98183	378.37711	87.98183
12800.00000	87.99940	378.58863	87.99940
12850.00000	87.82708	379.78067	87.82708
12900.00000	87.69131	378.98158	87.69131
12950.00000	87.66408	377.95896	87.66408
13000.00000	87.58377	377.93715	87.58377
13050.00000	87.39912	377.08455	87.39912
13100.00000	87.52251	375.77199	87.52251
13150.00000	87.78505	375.42567	87.78505
13200.00000	88.11277	372.22816	88.11277
13250.00000	88.61902	368.43371	88.61902
13300.00000	89.51825	369.28659	89.51825
13350.00000	90.56440	368.79014	90.56440
13400.00000	91.60093	374.04636	91.60093
13450.00000	92.38016	384.14816	92.38016
13500.00000	92.02511	398.71922	92.02511
13550.00000	90.93627	406.27053	90.93627
13600.00000	89.27187	409.29414	89.27187
13650.00000	87.61306	408.85248	87.61306
13700.00000	86.47901	404.26972	86.47901
13750.00000	85.72760	397.06855	85.72760
13800.00000	85.71068	389.26317	85.71068
13850.00000	85.74032	382.08080	85.74032
13900.00000	86.08457	372.71250	86.08457
13950.00000	87.23231	366.76571	87.23231
14000.00000	88.60290	363.75880	88.60290
14050.00000	90.60372	364.56844	90.60372
14100.00000	92.77358	368.28170	92.77358
14150.00000	94.14409	381.32617	94.14409
14200.00000	94.26887	397.15873	94.26887
14250.00000	93.25140	409.24320	93.25140
14300.00000	91.81822	414.33657	91.81822
14350.00000	90.74573	412.60705	90.74573
14400.00000	90.01475	410.94023	90.01475
14450.00000	89.67476	405.26725	89.67476
14500.00000	89.56773	400.72763	89.56773
14550.00000	89.79623	394.77140	89.79623
14600.00000	90.22129	389.41100	90.22129
14650.00000	90.88917	384.06221	90.88917
14700.00000	91.77765	378.47931	91.77765
14750.00000	92.81133	374.93169	92.81133
14800.00000	93.97363	372.32319	93.97363
14850.00000	95.27014	371.75937	95.27014
14900.00000	96.47063	372.54890	96.47063
14950.00000	97.12851	375.49672	97.12851
15000.00000	97.45380	379.02430	97.45380
15050.00000	97.48952	381.60015	97.48952
15100.00000	97.30688	381.58865	97.30688
15150.00000	97.06715	379.30804	97.06715
15200.00000	96.93398	375.78089	96.93398
15250.00000	96.72305	371.05445	96.72305
15300.00000	96.75913	365.64883	96.75913
15350.00000	97.05445	360.44621	97.05445
15400.00000	97.37937	355.06930	97.37937
15450.00000	97.77715	348.78695	97.77715
15500.00000	98.33009	344.09346	98.33009
15550.00000	98.87127	340.57786	98.87127
15600.00000	99.36881	337.17706	99.36881
15650.00000	99.83597	335.61375	99.83597
15700.00000	99.96578	334.36922	99.96578
15750.00000	100.21570	333.86437	100.21570
15800.00000	100.18791	332.49516	100.18791
15850.00000	100.16907	331.39921	100.16907
15900.00000	99.92166	328.65174	99.92166
15950.00000	99.80500	325.60963	99.80500
16000.00000	99.73470	321.90981	99.73470
16050.00000	99.69894	318.50584	99.69894
16100.00000	99.69966	314.81547	99.69966
16150.00000	99.89194	311.09405	99.89194
16200.00000	100.11149	308.34329	100.11149
16250.00000	100.34491	304.99638	100.34491
16300.00000	100.61939	303.02430	100.61939
16350.00000	100.93838	300.81045	100.93838
16400.00000	101.11188	298.79053	101.11188
16450.00000	101.30645	297.61057	101.30645
16500.00000	101.43038	295.70820	101.43038
16550.00000	101.43274	293.76762	101.43274
16600.00000	101.48757	291.24046	101.48757
16650.00000	101.49237	288.45234	101.49237
16700.00000	101.58618	285.67255	101.58618
16750.00000	101.65093	282.69256	101.65093
16800.00000	101.77876	279.76375	101.77876
16850.00000	101.92141	276.73409	101.92141
16900.00000	102.12822	274.19487	102.12822
16950.00000	102.28452	271.36173	102.28452
17000.00000	102.46132	268.92839	102.46132
17050.00000	102.64561	266.85739	102.64561
17100.00000	102.80182	264.57514	102.80182
17150.00000	102.90296	262.31083	102.90296
17200.00000	102.97334	259.54467	102.97334
17250.00000	103.09556	256.90044	103.09556
17300.00000	103.18171	253.76142	103.18171
17350.00000	103.29908	250.70887	103.29908
17400.00000	103.40429	247.56479	103.40429
17450.00000	103.53533	244.37053	103.53533
17500.00000	103.64141	241.02393	103.64141
17550.00000	103.75592	237.91470	103.75592
17600.00000	103.93260	235.19718	103.93260
17650.00000	104.05161	232.27223	104.05161
17700.00000	104.21313	229.48157	104.21313
17750.00000	104.31181	226.48994	104.31181
17800.00000	104.39900	223.39345	104.39900
17850.00000	104.47391	220.47728	104.47391
17900.00000	104.56078	217.51224	104.56078
17950.00000	104.60375	214.31506	104.60375
18000.00000	104.69021	210.96207	104.69021
18050.00000	104.74329	207.67342	104.74329
18100.00000	104.79714	204.37083	104.79714
18150.00000	104.85942	200.95487	104.85942
18200.00000	104.91877	197.52815	104.91877
18250.00000	104.94976	194.13846	104.94976
18300.00000	104.97359	190.72364	104.97359
18350.00000	104.98606	187.36332	104.98606
18400.00000	105.00402	183.82084	105.00402
18450.00000	105.02277	180.60381	105.02277
18500.00000	105.02123	177.41971	105.02123
18550.00000	105.01018	173.67549	105.01018
18600.00000	104.98944	170.50664	104.98944
18650.00000	104.98074	167.15055	104.98074
18700.00000	104.92811	163.78460	104.92811
18750.00000	104.85033	160.58655	104.85033
18800.00000	104.78654	157.23401	104.78654
18850.00000	104.72729	154.09032	104.72729
18900.00000	104.58357	151.01504	104.58357
18950.00000	104.51093	147.71226	104.51093
19000.00000	104.37067	144.54918	104.37067
19050.00000	104.28270	141.60079	104.28270
19100.00000	104.18013	138.58006	104.18013
19150.00000	104.06167	136.04081	104.06167
19200.00000	103.96311	133.21406	103.96311
19250.00000	103.81184	130.68233	103.81184
19300.00000	103.73153	128.11013	103.73153
19350.00000	103.62740	125.35116	103.62740
19400.00000	103.49870	123.08165	103.49870
19450.00000	103.39584	120.48728	103.39584
19500.00000	103.31760	118.24678	103.31760
19550.00000	103.23872	115.87204	103.23872
19600.00000	103.14459	113.50897	103.14459
19650.00000	103.08245	111.21072	103.08245
19700.00000	103.01600	108.87718	103.01600
19750.00000	102.93503	106.72612	102.93503
19800.00000	102.88958	104.59194	102.88958
19850.00000	102.82233	102.26995	102.82233
19900.00000	102.80329	99.93712	102.80329
19950.00000	102.75562	97.70803	102.75562
20000.00000	102.70406	94.99995	102.70406
20050.00000	102.66967	92.82966	102.66967
20100.00000	102.63444	90.57507	102.63444
20150.00000	102.60409	87.85782	102.60409
20200.00000	102.58244	85.68788	102.58244
20250.00000	102.53224	83.41794	102.53224
20300.00000	102.51823	80.97481	102.51823
20350.00000	102.47829	78.63339	102.47829
20400.00000	102.46605	76.27456	102.46605
20450.00000	102.44400	73.58022	102.44400
20500.00000	102.41085	70.80982	102.41085
20550.00000	102.37874	68.26966	102.37874
20600.00000	102.35032	65.80967	102.35032
20650.00000	102.35700	63.23200	102.35700
20700.00000	102.29515	60.78631	102.29515
20750.00000	102.24721	58.05860	102.24721
20800.00000	102.18205	55.57234	102.18205
20850.00000	102.14256	52.70221	102.14256
20900.00000	102.08265	50.16560	102.08265
20950.00000	102.02753	47.17603	102.02753
21000.00000	102.01299	44.40794	102.01299
21050.00000	101.94414	41.81154	101.94414
21100.00000	101.86687	39.04319	101.86687
21150.00000	101.81590	36.44533	101.81590
21200.00000	101.72854	33.98351	101.72854
21250.00000	101.62249	31.14401	101.62249
21300.00000	101.52726	28.13210	101.52726
21350.00000	101.40442	25.37686	101.40442
21400.00000	101.32779	22.51553	101.32779
21450.00000	101.24080	19.87633	101.24080
21500.00000	101.14587	17.21590	101.14587
21550.00000	101.07021	14.53032	101.07021
21600.00000	100.94648	11.80622	100.94648
21650.00000	100.76596	 9.30010	100.76596
21700.00000	100.66471	 6.18172	100.66471
21750.00000	100.49716	 3.65663	100.49716
21800.00000	100.33822	 0.93277	100.33822
21850.00000	100.18652	-1.78598	100.18652
21900.00000	100.01809	-4.50683	100.01809
21950.00000	99.83362	-6.96855	99.83362
22000.00000	99.56597	-9.30143	99.56597
22050.00000	99.35248	-11.10031	99.35248
22100.00000	99.21104	-13.13825	99.21104
22150.00000	99.01137	-15.46297	99.01137
22200.00000	98.85936	-17.59399	98.85936
22250.00000	98.65014	-19.43592	98.65014
22300.00000	98.54554	-21.35304	98.54554
22350.00000	98.33328	-23.42606	98.33328
22400.00000	98.16608	-25.65906	98.16608
22450.00000	98.10202	-28.09637	98.10202
22500.00000	97.87280	-29.74577	97.87280
22550.00000	97.65252	-31.50678	97.65252
22600.00000	97.44300	-32.81011	97.44300
22650.00000	97.35022	-34.28079	97.35022
22700.00000	97.16891	-36.10761	97.16891
22750.00000	96.95428	-38.11319	96.95428
22800.00000	96.80422	-39.14501	96.80422
22850.00000	96.66954	-40.93199	96.66954
22900.00000	96.63128	-42.44864	96.63128
22950.00000	96.55011	-43.73141	96.55011
23000.00000	96.42441	-45.15518	96.42441
23050.00000	96.27674	-46.64766	96.27674
23100.00000	96.13481	-48.01918	96.13481
23150.00000	96.05655	-49.93083	96.05655
23200.00000	95.95647	-51.52386	95.95647
23250.00000	95.90393	-52.82996	95.90393
23300.00000	95.96597	-55.41273	95.96597
23350.00000	95.82949	-56.45531	95.82949
23400.00000	95.78649	-57.85107	95.78649
23450.00000	95.84975	-59.36556	95.84975
23500.00000	95.70925	-61.37086	95.70925
23550.00000	95.63544	-63.64419	95.63544
23600.00000	95.67099	-65.07230	95.67099
23650.00000	95.54998	-66.74665	95.54998
23700.00000	95.57917	-68.50460	95.57917
23750.00000	95.49910	-71.05548	95.49910
23800.00000	95.46119	-72.85401	95.46119
23850.00000	95.31901	-75.25313	95.31901
23900.00000	95.25073	-77.48884	95.25073
23950.00000	95.15442	-79.24246	95.15442
24000.00000	95.13032	-81.05989	95.13032
24050.00000	94.95842	-83.13890	94.95842
24100.00000	94.88747	-85.40303	94.88747
24150.00000	94.70343	-87.29721	94.70343
24200.00000	94.64180	-89.98039	94.64180
24250.00000	94.40945	-91.91494	94.40945
24300.00000	94.28846	-94.07869	94.28846
24350.00000	94.15582	-96.04803	94.15582
24400.00000	93.97189	-97.87503	93.97189
24450.00000	93.76164	-99.32169	93.76164
24500.00000	93.49741	-101.68170	93.49741
24550.00000	93.28199	-103.71914	93.28199
24600.00000	93.14990	-105.01746	93.14990
24650.00000	92.98246	-106.66783	92.98246
24700.00000	92.76952	-107.65333	92.76952
24750.00000	92.71559	-109.29951	92.71559
24800.00000	92.46278	-109.23746	92.46278
24850.00000	92.37102	-110.82374	92.37102
24900.00000	92.06139	-111.76613	92.06139
24950.00000	91.95368	-112.88308	91.95368
25000.00000	91.78383	-113.80688	91.78383
25050.00000	91.70003	-114.27732	91.70003
25100.00000	91.54508	-114.59520	91.54508
25150.00000	91.42564	-115.67130	91.42564
25200.00000	91.42246	-116.17882	91.42246
25250.00000	91.30890	-116.63649	91.30890
25300.00000	91.23908	-117.56205	91.23908
25350.00000	91.34721	-119.43766	91.34721
25400.00000	91.22569	-119.62799	91.22569
25450.00000	91.29900	-120.56830	91.29900
25500.00000	91.24748	-121.19317	91.24748
25550.00000	91.35865	-122.11227	91.35865
25600.00000	91.37682	-122.51278	91.37682
25650.00000	91.31400	-124.73068	91.31400
25700.00000	91.39052	-125.55240	91.39052
25750.00000	91.52976	-127.64614	91.52976
25800.00000	91.51925	-127.64776	91.51925
25850.00000	91.54382	-129.39163	91.54382
25900.00000	91.52531	-131.29753	91.52531
25950.00000	91.63729	-132.74729	91.63729
26000.00000	91.68092	-133.85029	91.68092
26050.00000	91.75983	-135.94478	91.75983
26100.00000	91.80152	-137.79726	91.80152
26150.00000	91.84387	-140.29216	91.84387
26200.00000	91.74531	-142.31702	91.74531
26250.00000	91.75036	-144.19214	91.75036
26300.00000	91.72365	-145.79800	91.72365
26350.00000	91.73068	-148.09208	91.73068
26400.00000	91.71935	-150.27163	91.71935
26450.00000	91.62635	-152.94444	91.62635
26500.00000	91.57151	-155.08712	91.57151
26550.00000	91.47683	-156.41451	91.47683
26600.00000	91.37990	-158.22387	91.37990
26650.00000	91.26832	-160.63073	91.26832
26700.00000	91.18693	-162.18430	91.18693
26750.00000	91.00763	-163.48823	91.00763
26800.00000	90.86486	-166.10116	90.86486
26850.00000	90.74334	-166.92153	90.74334
26900.00000	90.62898	-169.11539	90.62898
26950.00000	90.35841	-169.94968	90.35841
27000.00000	90.27117	-171.64950	90.27117
27050.00000	90.16071	-172.61099	90.16071
27100.00000	89.97933	-174.12733	89.97933
27150.00000	89.81480	-175.31432	89.81480
27200.00000	89.80690	-176.78810	89.80690
27250.00000	89.56270	-177.54302	89.56270
27300.00000	89.42989	-178.51154	89.42989
27350.00000	89.31098	-179.70738	89.31098
27400.00000	89.21450	-179.94567	89.21450
27450.00000	89.15012	-180.70894	89.15012
27500.00000	88.97663	-181.87237	88.97663
27550.00000	88.93295	-182.54894	88.93295
27600.00000	88.82324	-183.32077	88.82324
27650.00000	88.71062	-183.67474	88.71062
27700.00000	88.68336	-184.25088	88.68336
27750.00000	88.59140	-184.82424	88.59140
27800.00000	88.58984	-185.62809	88.58984
27850.00000	88.49070	-186.08515	88.49070
27900.00000	88.47985	-186.74364	88.47985
27950.00000	88.44728	-186.60843	88.44728
28000.00000	88.45172	-187.10975	88.45172
28050.00000	88.40975	-188.07299	88.40975
28100.00000	88.41022	-188.68592	88.41022
28150.00000	88.45504	-189.26958	88.45504
28200.00000	88.49296	-189.62094	88.49296
28250.00000	88.40312	-190.49821	88.40312
28300.00000	88.46465	-190.97433	88.46465
28350.00000	88.45107	-190.86982	88.45107
28400.00000	88.45409	-191.64714	88.45409
28450.00000	88.47901	-192.51552	88.47901
28500.00000	88.63323	-192.69300	88.63323
28550.00000	88.67180	-193.69417	88.67180
28600.00000	88.80370	-194.77105	88.80370
28650.00000	88.82621	-194.69580	88.82621
28700.00000	88.88799	-195.52200	88.88799
28750.00000	88.88439	-196.30935	88.88439
28800.00000	88.84842	-197.28549	88.84842
28850.00000	88.97897	-197.54037	88.97897
28900.00000	89.07976	-198.44831	89.07976
28950.00000	89.12623	-199.17772	89.12623
29000.00000	89.27416	-199.70477	89.27416
29050.00000	89.40092	-200.53719	89.40092
29100.00000	89.44661	-201.07740	89.44661
29150.00000	89.46574	-202.23294	89.46574
29200.00000	89.64431	-202.88593	89.64431
29250.00000	89.65332	-203.10998	89.65332
29300.00000	89.81749	-204.63988	89.81749
29350.00000	89.90147	-204.62520	89.90147
29400.00000	89.90166	-205.69831	89.90166
29450.00000	90.09819	-206.55462	90.09819
29500.00000	90.32684	-207.68623	90.32684
29550.00000	90.42029	-208.27227	90.42029
29600.00000	90.56601	-208.84563	90.56601
29650.00000	90.65231	-209.34971	90.65231
29700.00000	90.84744	-210.13096	90.84744
29750.00000	90.99814	-211.21035	90.99814
29800.00000	91.05750	-211.97611	91.05750
29850.00000	91.31679	-212.75015	91.31679
29900.00000	91.46632	-213.91404	91.46632
29950.00000	91.63627	-214.74208	91.63627
30000.00000	91.79561	-216.08463	91.79561
30050.00000	91.99371	-216.45839	91.99371
30100.00000	92.13997	-217.63620	92.13997
30150.00000	92.35350	-218.78707	92.35350
30200.00000	92.55305	-219.76353	92.55305
30250.00000	92.78174	-221.14846	92.78174
30300.00000	92.96067	-222.51446	92.96067
30350.00000	93.20626	-223.68335	93.20626
30400.00000	93.35018	-224.94983	93.35018
30450.00000	93.55982	-226.07298	93.55982
30500.00000	93.82592	-227.80423	93.82592
30550.00000	93.98449	-229.03292	93.98449
30600.00000	94.25695	-230.42628	94.25695
30650.00000	94.44997	-231.98098	94.44997
30700.00000	94.68582	-233.55741	94.68582
30750.00000	94.90359	-235.32890	94.90359
30800.00000	95.09879	-237.04304	95.09879
30850.00000	95.28153	-238.63996	95.28153
30900.00000	95.54073	-240.53110	95.54073
30950.00000	95.77069	-242.57957	95.77069
31000.00000	95.98409	-244.24813	95.98409
31050.00000	96.15031	-246.08845	96.15031
31100.00000	96.37934	-248.36757	96.37934
31150.00000	96.59229	-250.35329	96.59229
31200.00000	96.69676	-252.56933	96.69676
31250.00000	96.99124	-254.68309	96.99124
31300.00000	97.14898	-256.99625	97.14898
31350.00000	97.33885	-258.99647	97.33885
31400.00000	97.48512	-261.05948	97.48512
31450.00000	97.68022	-263.06208	97.68022
31500.00000	97.77827	-265.78344	97.77827
31550.00000	97.95341	-268.12645	97.95341
31600.00000	98.08251	-270.72742	98.08251
31650.00000	98.23825	-273.11166	98.23825
31700.00000	98.29747	-275.40628	98.29747
31750.00000	98.44312	-277.63273	98.44312
31800.00000	98.53031	-280.12295	98.53031
31850.00000	98.63016	-282.46893	98.63016
31900.00000	98.70400	-284.73260	98.70400
31950.00000	98.78834	-287.08799	98.78834
32000.00000	98.82535	-289.33651	98.82535
32050.00000	98.89526	-291.62956	98.89526
32100.00000	98.91305	-293.96473	98.91305
32150.00000	98.96072	-295.88452	98.96072
32200.00000	99.00245	-297.94252	99.00245
32250.00000	99.05314	-300.02416	99.05314
32300.00000	99.07103	-301.95189	99.07103
32350.00000	99.12567	-303.94155	99.12567
32400.00000	99.10088	-305.82293	99.10088
32450.00000	99.15638	-307.75442	99.15638
32500.00000	99.20623	-309.32320	99.20623
32550.00000	99.22022	-311.09046	99.22022
32600.00000	99.24719	-312.92106	99.24719
32650.00000	99.30465	-314.47570	99.30465
32700.00000	99.30845	-316.10139	99.30845
32750.00000	99.34325	-317.59888	99.34325
32800.00000	99.37909	-318.98781	99.37909
32850.00000	99.46317	-320.53370	99.46317
32900.00000	99.47050	-321.88377	99.47050
32950.00000	99.55559	-323.00743	99.55559
33000.00000	99.61603	-324.34698	99.61603
33050.00000	99.65123	-325.89524	99.65123
33100.00000	99.77009	-327.11528	99.77009
33150.00000	99.81633	-328.33773	99.81633
33200.00000	99.88214	-329.67855	99.88214
33250.00000	99.94496	-330.65928	99.94496
33300.00000	100.00054	-331.58122	100.00054
33350.00000	100.14408	-332.79481	100.14408
33400.00000	100.23215	-333.88106	100.23215
33450.00000	100.31925	-335.12220	100.31925
33500.00000	100.45602	-335.98951	100.45602
33550.00000	100.59321	-336.93986	100.59321
33600.00000	100.75401	-337.72202	100.75401
33650.00000	100.86098	-338.74341	100.86098
33700.00000	101.02347	-339.61208	101.02347
33750.00000	101.20927	-340.68650	101.20927
33800.00000	101.38878	-341.59026	101.38878
33850.00000	101.58455	-342.36236	101.58455
33900.00000	101.77769	-343.40617	101.77769
33950.00000	102.04693	-344.21188	102.04693
34000.00000	102.25653	-345.04567	102.25653
34050.00000	102.49093	-345.73257	102.49093
34100.00000	102.73487	-346.80676	102.73487
34150.00000	103.02117	-347.46997	103.02117
34200.00000	103.33669	-348.72371	103.33669
34250.00000	103.62166	-349.81812	103.62166
34300.00000	103.95987	-350.86898	103.95987
34350.00000	104.32299	-352.24062	104.32299
34400.00000	104.67447	-353.67307	104.67447
34450.00000	105.00153	-355.15689	105.00153
34500.00000	105.36187	-356.71775	105.36187
34550.00000	105.74453	-358.31479	105.74453
34600.00000	106.10247	-360.08791	106.10247
34650.00000	106.49984	-362.11830	106.49984
34700.00000	106.86099	-364.16520	106.86099
34750.00000	107.24761	-366.50255	107.24761
34800.00000	107.60960	-368.87190	107.60960
34850.00000	107.93820	-371.20747	107.93820
34900.00000	108.24669	-373.55517	108.24669
34950.00000	108.56725	-375.68312	108.56725
35000.00000	108.94511	-377.56543	108.94511
35050.00000	109.32467	-379.88015	109.32467
35100.00000	109.70085	-382.28235	109.70085
35150.00000	110.10070	-384.82698	110.10070
35200.00000	110.50631	-387.67756	110.50631
35250.00000	110.87786	-390.44636	110.87786
35300.00000	111.24709	-393.46700	111.24709
35350.00000	111.60863	-396.37806	111.60863
35400.00000	111.97941	-399.54366	111.97941
35450.00000	112.31837	-402.83570	112.31837
35500.00000	112.68023	-406.14286	112.68023
35550.00000	112.98668	-409.39101	112.98668
35600.00000	113.33217	-412.85818	113.33217
35650.00000	113.63307	-416.35947	113.63307
35700.00000	113.90932	-420.01931	113.90932
35750.00000	114.18196	-423.49938	114.18196
35800.00000	114.46757	-427.05329	114.46757
35850.00000	114.73302	-430.64503	114.73302
35900.00000	114.98580	-434.16465	114.98580
35950.00000	115.22823	-437.76449	115.22823
36000.00000	115.46321	-441.34593	115.46321
36050.00000	115.68363	-444.96506	115.68363
36100.00000	115.89398	-448.50686	115.89398
36150.00000	116.11970	-452.09203	116.11970
36200.00000	116.33201	-455.62480	116.33201
36250.00000	116.53166	-459.25530	116.53166
36300.00000	116.72347	-462.72048	116.72347
36350.00000	116.91907	-466.19016	116.91907
36400.00000	117.11167	-469.68778	117.11167
36450.00000	117.29853	-473.11238	117.29853
36500.00000	117.49616	-476.59809	117.49616
36550.00000	117.69489	-479.98047	117.69489
36600.00000	117.89240	-483.45209	117.89240
36650.00000	118.08554	-486.80889	118.08554
36700.00000	118.29835	-490.21300	118.29835
36750.00000	118.49989	-493.57547	118.49989
36800.00000	118.72577	-497.00191	118.72577
36850.00000	118.94207	-500.39637	118.94207
36900.00000	119.16272	-503.88412	119.16272
36950.00000	119.39495	-507.38141	119.39495
37000.00000	119.63836	-510.84269	119.63836
37050.00000	119.88484	-514.35402	119.88484
37100.00000	120.14297	-517.97582	120.14297
37150.00000	120.40267	-521.61965	120.40267
37200.00000	120.67948	-525.31379	120.67948
37250.00000	120.96732	-529.17617	120.96732
37300.00000	121.25412	-533.03878	121.25412
37350.00000	121.56171	-537.10230	121.56171
37400.00000	121.87758	-541.35563	121.87758
37450.00000	122.19766	-545.75136	122.19766
37500.00000	122.51598	-550.30020	122.51598
37550.00000	122.84060	-555.15791	122.84060
37600.00000	123.15556	-560.16247	123.15556
37650.00000	123.47341	-565.46180	123.47341
37700.00000	123.76377	-570.96056	123.76377
37750.00000	124.03703	-576.81716	124.03703
37800.00000	124.27417	-582.86634	124.27417
37850.00000	124.48360	-589.12715	124.48360
37900.00000	124.62826	-595.66746	124.62826
37950.00000	124.71761	-602.32211	124.71761
38000.00000	124.76087	-609.00764	124.76087
38050.00000	124.72956	-615.79826	124.72956
38100.00000	124.64423	-622.38433	124.64423
38150.00000	124.50604	-628.85337	124.50604
38200.00000	124.32635	-635.13474	124.32635
38250.00000	124.10134	-641.14014	124.10134
38300.00000	123.86697	-646.94170	123.86697
38350.00000	123.61102	-652.55123	123.61102
38400.00000	123.34567	-657.89947	123.34567
38450.00000	123.07712	-663.07265	123.07712
38500.00000	122.80600	-668.02023	122.80600
38550.00000	122.52710	-673.00376	122.52710
38600.00000	122.24615	-677.75026	122.24615
38650.00000	121.97048	-682.43690	121.97048
38700.00000	121.68248	-687.02862	121.68248
38750.00000	121.40318	-691.53125	121.40318
38800.00000	121.10219	-695.96562	121.10219
38850.00000	120.81812	-700.36520	120.81812
38900.00000	120.51626	-704.65971	120.51626
38950.00000	120.21701	-708.88531	120.21701
39000.00000	119.91490	-713.12483	119.91490
39050.00000	119.60058	-717.33867	119.60058
39100.00000	119.27398	-721.47246	119.27398
39150.00000	118.93710	-725.54355	118.93710
39200.00000	118.59141	-729.53537	118.59141
39250.00000	118.23779	-733.37094	118.23779
39300.00000	117.87773	-737.06540	117.87773
39350.00000	117.51055	-740.70958	117.51055
39400.00000	117.15170	-744.30843	117.15170
39450.00000	116.80739	-747.71112	116.80739
39500.00000	116.42910	-751.13972	116.42910
39550.00000	116.07283	-754.50371	116.07283
39600.00000	115.69680	-757.89022	115.69680
39650.00000	115.31712	-761.13140	115.31712
39700.00000	114.92798	-764.27061	114.92798
39750.00000	114.51981	-767.27199	114.51981
39800.00000	114.10828	-770.10492	114.10828
39850.00000	113.70786	-772.88428	113.70786
39900.00000	113.28563	-775.45972	113.28563
39950.00000	112.88740	-777.92682	112.88740
40000.00000	112.49637	-780.28727	112.49637
40050.00000	112.09376	-782.48033	112.09376
40100.00000	111.72771	-784.56759	111.72771
40150.00000	111.34218	-786.62967	111.34218
40200.00000	110.98116	-788.49636	110.98116
40250.00000	110.64779	-790.33711	110.64779
40300.00000	110.29790	-792.10375	110.29790
40350.00000	109.97168	-793.70515	109.97168
40400.00000	109.64296	-795.37351	109.64296
40450.00000	109.32775	-797.02213	109.32775
40500.00000	109.04271	-798.42306	109.04271
40550.00000	108.74746	-799.97607	108.74746
40600.00000	108.45973	-801.29712	108.45973
40650.00000	108.20013	-802.75237	108.20013
40700.00000	107.93444	-804.12317	107.93444
40750.00000	107.66596	-805.51670	107.66596
40800.00000	107.39556	-806.86150	107.39556
40850.00000	107.18063	-808.00133	107.18063
40900.00000	106.97330	-809.29934	106.97330
40950.00000	106.71648	-810.49435	106.71648
41000.00000	106.52789	-811.93261	106.52789
41050.00000	106.32394	-813.06064	106.32394
41100.00000	106.10789	-814.08000	106.10789
41150.00000	105.93405	-815.35236	105.93405
41200.00000	105.74773	-816.40679	105.74773
41250.00000	105.58693	-817.52435	105.58693
41300.00000	105.43521	-818.79558	105.43521
41350.00000	105.23477	-819.78527	105.23477
41400.00000	105.09993	-820.84479	105.09993
41450.00000	104.88814	-821.86801	104.88814
41500.00000	104.74470	-822.74320	104.74470
41550.00000	104.58796	-823.73833	104.58796
41600.00000	104.45689	-824.60898	104.45689
41650.00000	104.32086	-825.25630	104.32086
41700.00000	104.14280	-826.44565	104.14280
41750.00000	103.98803	-827.05923	103.98803
41800.00000	103.93464	-827.40162	103.93464
41850.00000	103.78785	-828.35063	103.78785
41900.00000	103.75246	-829.00758	103.75246
41950.00000	103.66568	-829.47114	103.66568
42000.00000	103.61588	-829.93853	103.61588
42050.00000	103.62012	-830.43493	103.62012
42100.00000	103.58599	-831.39414	103.58599
42150.00000	103.60080	-831.50525	103.60080
42200.00000	103.69245	-832.65888	103.69245
42250.00000	103.73160	-832.80539	103.73160
42300.00000	103.79706	-833.53005	103.79706
42350.00000	103.87009	-834.12488	103.87009
42400.00000	103.96643	-835.11409	103.96643
42450.00000	104.10863	-836.23448	104.10863
42500.00000	104.23059	-837.25858	104.23059
42550.00000	104.32664	-838.42848	104.32664
42600.00000	104.49470	-839.93180	104.49470
42650.00000	104.56259	-841.24805	104.56259
42700.00000	104.73134	-842.79081	104.73134
42750.00000	104.84946	-844.27971	104.84946
42800.00000	105.06834	-846.34736	105.06834
42850.00000	105.18693	-847.75857	105.18693
42900.00000	105.38238	-849.58235	105.38238
42950.00000	105.49523	-852.09170	105.49523
43000.00000	105.63264	-853.98358	105.63264
43050.00000	105.81556	-856.11556	105.81556
43100.00000	105.96745	-858.76965	105.96745
43150.00000	106.08266	-861.07020	106.08266
43200.00000	106.19763	-863.49600	106.19763
43250.00000	106.31453	-866.02633	106.31453
43300.00000	106.44136	-868.46769	106.44136
43350.00000	106.50834	-871.14111	106.50834
43400.00000	106.63993	-873.93049	106.63993
43450.00000	106.68542	-876.75707	106.68542
43500.00000	106.74634	-879.49506	106.74634
43550.00000	106.78586	-882.27192	106.78586
43600.00000	106.76162	-885.44852	106.76162
43650.00000	106.80505	-888.28472	106.80505
43700.00000	106.78644	-891.06406	106.78644
43750.00000	106.77811	-893.86248	106.77811
43800.00000	106.74237	-896.98860	106.74237
43850.00000	106.66551	-899.57359	106.66551
43900.00000	106.66986	-902.91776	106.66986
43950.00000	106.53879	-905.60326	106.53879
44000.00000	106.46402	-908.08340	106.46402
44050.00000	106.37676	-910.69377	106.37676
44100.00000	106.33662	-913.53679	106.33662
44150.00000	106.26883	-915.50400	106.26883
44200.00000	106.13878	-918.11190	106.13878
44250.00000	106.12233	-920.51646	106.12233
44300.00000	105.98781	-923.26119	105.98781
44350.00000	105.90418	-924.80327	105.90418
44400.00000	105.85439	-927.04765	105.85439
44450.00000	105.66663	-929.31384	105.66663
44500.00000	105.59982	-930.82011	105.59982
44550.00000	105.50139	-932.96878	105.50139
44600.00000	105.50115	-935.07305	105.50115
44650.00000	105.33420	-936.76052	105.33420
44700.00000	105.26616	-938.37967	105.26616
44750.00000	105.17554	-940.69971	105.17554
44800.00000	105.12645	-941.67461	105.12645
44850.00000	105.03319	-943.26856	105.03319
44900.00000	105.00632	-945.28226	105.00632
44950.00000	105.01973	-947.06530	105.01973
45000.00000	104.95599	-948.71243	104.95599
45050.00000	104.97317	-950.12771	104.97317
45100.00000	104.89909	-952.01428	104.89909
45150.00000	104.89435	-954.01548	104.89435
45200.00000	104.91949	-955.64020	104.91949
45250.00000	104.99544	-957.04651	104.99544
45300.00000	104.18117	-955.76821	104.18117
45350.00000	105.07284	-960.68218	105.07284
45400.00000	105.18308	-962.01716	105.18308
45450.00000	105.26812	-963.84016	105.26812
45500.00000	105.30589	-966.29585	105.30589
45550.00000	105.34520	-968.50319	105.34520
45600.00000	105.37362	-970.86891	105.37362
45650.00000	105.37924	-973.13874	105.37924
45700.00000	105.30240	-975.03032	105.30240
45750.00000	105.34087	-977.03745	105.34087
45800.00000	105.42123	-979.47128	105.42123
45850.00000	105.46806	-981.76947	105.46806
45900.00000	105.50998	-985.06834	105.50998
45950.00000	105.51802	-987.59746	105.51802
46000.00000	105.49482	-989.94213	105.49482
46050.00000	105.53357	-992.88967	105.53357
46100.00000	105.31748	-996.06850	105.31748
46150.00000	105.22660	-998.18167	105.22660
46200.00000	105.13940	-1000.55621	105.13940
46250.00000	105.06278	-1002.75306	105.06278
46300.00000	104.89731	-1004.65200	104.89731
46350.00000	104.73921	-1005.67013	104.73921
46400.00000	104.61837	-1007.86850	104.61837
46450.00000	104.47868	-1009.08944	104.47868
46500.00000	104.35805	-1010.37142	104.35805
46550.00000	104.38534	-1011.19061	104.38534
46600.00000	104.34673	-1012.43440	104.34673
46650.00000	104.17932	-1013.16536	104.17932
46700.00000	104.32886	-1013.90739	104.32886
46750.00000	104.22076	-1015.23024	104.22076
46800.00000	104.18568	-1015.99223	104.18568
46850.00000	104.32248	-1017.78993	104.32248
46900.00000	104.34963	-1018.32100	104.34963
46950.00000	104.61644	-1019.15435	104.61644
47000.00000	104.69288	-1020.70386	104.69288
47050.00000	104.82868	-1021.60083	104.82868
47100.00000	104.98962	-1022.95958	104.98962
47150.00000	105.18393	-1024.18884	105.18393
47200.00000	105.48109	-1025.63274	105.48109
47250.00000	105.48166	-1027.35277	105.48166
47300.00000	105.77617	-1029.61792	105.77617
47350.00000	105.97500	-1030.85280	105.97500
47400.00000	106.24024	-1032.55642	106.24024
47450.00000	106.45856	-1035.19612	106.45856
47500.00000	106.68471	-1036.45628	106.68471
47550.00000	106.84621	-1039.03692	106.84621
47600.00000	107.16416	-1041.75049	107.16416
47650.00000	107.27610	-1043.98854	107.27610
47700.00000	107.50843	-1047.00321	107.50843
47750.00000	107.64118	-1049.36305	107.64118
47800.00000	107.91431	-1051.71962	107.91431
47850.00000	108.15326	-1055.03255	108.15326
47900.00000	108.39018	-1057.54982	108.39018
47950.00000	108.65474	-1060.77774	108.65474
48000.00000	108.73402	-1064.78144	108.73402
48050.00000	109.04241	-1067.14252	109.04241
48100.00000	109.15245	-1071.53523	109.15245
48150.00000	109.38281	-1074.62204	109.38281
48200.00000	109.56222	-1078.82686	109.56222
48250.00000	109.68050	-1081.57037	109.68050
48300.00000	109.84641	-1085.75780	109.84641
48350.00000	110.00745	-1089.32778	110.00745
48400.00000	110.00581	-1093.92536	110.00581
48450.00000	110.16781	-1097.47703	110.16781
48500.00000	110.13943	-1101.60506	110.13943
48550.00000	110.25156	-1105.13799	110.25156
48600.00000	110.25376	-1110.38185	110.25376
48650.00000	110.29160	-1113.68063	110.29160
48700.00000	110.24149	-1117.58614	110.24149
48750.00000	110.27282	-1121.97563	110.27282
48800.00000	110.14362	-765.69901	110.14362
48850.00000	110.03196	-770.23291	110.03196
48900.00000	110.08866	-413.62058	110.08866
48950.00000	109.85253	-57.59068	109.85253
49000.00000	109.81325	298.33639	109.81325
49050.00000	109.66969	653.99756	109.66969
49100.00000	109.57862	1010.76315	109.57862
49150.00000	109.41866	1366.32685	109.41866
49200.00000	109.09015	1724.16384	109.09015
49250.00000	109.07730	2080.56801	109.07730
49300.00000	108.91855	2437.53021	108.91855
49350.00000	108.63357	2794.66185	108.63357
49400.00000	108.31734	3150.42851	108.31734
49450.00000	108.29475	3507.66305	108.29475
49500.00000	108.04396	3865.45276	108.04396
49550.00000	107.78490	4222.35923	107.78490
49600.00000	107.57718	4580.02415	107.57718
49650.00000	107.42858	4936.23272	107.42858
49700.00000	107.09959	5293.97972	107.09959
49750.00000	107.05468	5652.57936	107.05468
49800.00000	106.82361	5650.41760	106.82361
49850.00000	106.63647	6366.55885	106.63647
49900.00000	106.55446	6365.13171	106.55446
49950.00000	106.30040	6723.32003	106.30040
50000.00000	106.17875	6720.98393	106.17875
50050.00000	105.98482	6719.09160	105.98482
50100.00000	105.81610	6716.73777	105.81610
50150.00000	105.84113	6714.26826	105.84113
50200.00000	105.67692	6712.53572	105.67692
50250.00000	105.44263	6710.86565	105.44263
50300.00000	105.42274	6708.83627	105.42274
50350.00000	105.26759	6707.12941	105.26759
50400.00000	105.28671	6705.13649	105.28671
50450.00000	105.08051	6703.36150	105.08051
50500.00000	104.98511	6702.16261	104.98511
50550.00000	104.90489	6699.74560	104.90489
50600.00000	105.00203	6697.50243	105.00203
50650.00000	104.95451	6695.76441	104.95451
50700.00000	104.74878	6693.32651	104.74878
50750.00000	104.70761	6691.41954	104.70761
50800.00000	104.67916	6689.08881	104.67916
50850.00000	104.66891	6686.54336	104.66891
50900.00000	104.61777	6683.28972	104.61777
50950.00000	104.58891	6681.46292	104.58891
51000.00000	104.63391	6678.64409	104.63391
51050.00000	104.62906	6676.60608	104.62906
51100.00000	104.38640	6673.26033	104.38640
51150.00000	104.31535	6670.20361	104.31535
51200.00000	104.12550	6667.42364	104.12550
51250.00000	104.00589	6664.96641	104.00589
51300.00000	103.89425	6661.63059	103.89425
51350.00000	103.70072	6659.95069	103.70072
51400.00000	103.48721	6656.25451	103.48721
51450.00000	103.20497	6654.48296	103.20497
51500.00000	102.96070	6652.65823	102.96070
51550.00000	102.63028	6650.36874	102.63028
51600.00000	102.30193	6648.26292	102.30193
51650.00000	101.91109	6646.43013	101.91109
51700.00000	101.75385	6644.65317	101.75385
51750.00000	101.26941	6644.14044	101.26941
51800.00000	101.15257	6643.05815	101.15257
51850.00000	100.96051	6642.42446	100.96051
51900.00000	100.49933	6641.75669	100.49933
51950.00000	100.25900	6641.81236	100.25900
52000.00000	100.05925	6641.47585	100.05925
52050.00000	100.02517	6642.14519	100.02517
52100.00000	99.92694	6642.41353	99.92694
52150.00000	99.71428	6643.05454	99.71428
52200.00000	99.65061	6642.17375	99.65061
52250.00000	99.86575	6642.94188	99.86575
52300.00000	99.54017	6645.16110	99.54017
52350.00000	99.92804	6644.63241	99.92804
52400.00000	100.05846	6643.65183	100.05846
52450.00000	100.25718	6643.69533	100.25718
52500.00000	100.45216	6643.73559	100.45216
52550.00000	100.56488	6643.85049	100.56488
52600.00000	100.68360	6642.32806	100.68360
52650.00000	100.93259	6641.94545	100.93259
52700.00000	101.25033	6641.86563	101.25033
52750.00000	101.61981	6640.57954	101.61981
52800.00000	101.79871	6639.93977	101.79871
52850.00000	102.03607	6638.91520	102.03607
52900.00000	102.45297	6637.14629	102.45297
52950.00000	102.62798	6636.33419	102.62798
53000.00000	102.99440	6633.38892	102.99440
53050.00000	103.09286	6631.08940	103.09286
53100.00000	103.58053	6628.98127	103.58053
53150.00000	103.90200	6627.60944	103.90200
53200.00000	104.00518	6625.07186	104.00518
53250.00000	104.35698	6622.61035	104.35698
53300.00000	104.55474	6620.03299	104.55474
53350.00000	104.70682	6617.24226	104.70682
53400.00000	105.10207	6615.02691	105.10207
53450.00000	105.30401	6611.60158	105.30401
53500.00000	105.50423	6608.73143	105.50423
53550.00000	105.84472	6605.41096	105.84472
53600.00000	105.98843	6601.95288	105.98843
53650.00000	106.15804	6598.71428	106.15804
53700.00000	106.34112	6595.42409	106.34112
53750.00000	106.49113	6591.55513	106.49113
53800.00000	106.62205	6588.91124	106.62205
53850.00000	106.77857	6585.18309	106.77857
53900.00000	106.93406	6582.08177	106.93406
53950.00000	106.90200	6577.94027	106.90200
54000.00000	107.02831	6574.23127	107.02831
54050.00000	107.15287	6570.71425	107.15287
54100.00000	107.19891	6567.17945	107.19891
54150.00000	107.27720	6563.30011	107.27720
54200.00000	107.13628	6560.28567	107.13628
54250.00000	107.21417	6556.09732	107.21417
54300.00000	107.23739	6552.29461	107.23739
54350.00000	107.30395	6549.05956	107.30395
54400.00000	107.42057	6546.22970	107.42057
54450.00000	107.30728	6542.41568	107.30728
54500.00000	107.23258	6539.23351	107.23258
54550.00000	107.16531	6535.53842	107.16531
54600.00000	107.17293	6532.76579	107.17293
54650.00000	107.16960	6528.57895	107.16960
54700.00000	107.06297	6525.74623	107.06297
54750.00000	107.17537	6522.53818	107.17537
54800.00000	107.00727	6519.28125	107.00727
54850.00000	106.89416	6516.02687	106.89416
54900.00000	106.92690	6512.23073	106.92690
54950.00000	106.83330	6509.99582	106.83330
55000.00000	106.93945	6506.34401	106.93945
55050.00000	106.76969	6502.62278	106.76969
55100.00000	106.74233	6499.53018	106.74233
55150.00000	106.69972	6496.14494	106.69972
55200.00000	106.55867	6492.77903	106.55867
55250.00000	106.50967	6489.65933	106.50967
55300.00000	106.42749	6485.95390	106.42749
55350.00000	106.36414	6483.28737	106.36414
55400.00000	106.31098	6479.71211	106.31098
55450.00000	106.22621	6476.54460	106.22621
55500.00000	106.09104	6472.80079	106.09104
55550.00000	106.03194	6469.64761	106.03194
55600.00000	105.85010	6466.29695	105.85010
55650.00000	105.68771	6462.88180	105.68771
55700.00000	105.55662	6459.72503	105.55662
55750.00000	105.38037	6456.50141	105.38037
55800.00000	105.21567	6453.16454	105.21567
55850.00000	105.05454	6449.86333	105.05454
55900.00000	104.79418	6447.23023	104.79418
55950.00000	104.65176	6443.81203	104.65176
56000.00000	104.47453	6440.88382	104.47453
56050.00000	104.20658	6438.70687	104.20658
56100.00000	104.04060	6435.17497	104.04060
56150.00000	103.82320	6433.05604	103.82320
56200.00000	103.60670	6430.87117	103.60670
56250.00000	103.40800	6428.13700	103.40800
56300.00000	103.21175	6425.32859	103.21175
56350.00000	103.03174	6423.37132	103.03174
56400.00000	102.82614	6421.37054	102.82614
56450.00000	102.62079	6419.10169	102.62079
56500.00000	102.56851	6417.03843	102.56851
56550.00000	102.28941	6414.81849	102.28941
56600.00000	102.07317	6413.21014	102.07317
56650.00000	101.97712	6411.15217	101.97712
56700.00000	101.92447	6409.22555	101.92447
56750.00000	101.73560	6407.21503	101.73560
56800.00000	101.67872	6405.27699	101.67872
56850.00000	101.55797	6403.09780	101.55797
56900.00000	101.53668	6401.39218	101.53668
56950.00000	101.44710	6399.90834	101.44710
57000.00000	101.29811	6397.39733	101.29811
57050.00000	101.19529	6395.45624	101.19529
57100.00000	101.18697	6392.96723	101.18697
57150.00000	101.09260	6390.45574	101.09260
57200.00000	100.95831	6388.29184	100.95831
57250.00000	101.04474	6386.33541	101.04474
57300.00000	100.91251	6383.23565	100.91251
57350.00000	100.80370	6381.63251	100.80370
57400.00000	100.75486	6379.50943	100.75486
57450.00000	100.59589	6376.84873	100.59589
57500.00000	100.49841	6374.86794	100.49841
57550.00000	100.40936	6372.29681	100.40936
57600.00000	100.28715	6370.09210	100.28715
57650.00000	100.12825	6367.64891	100.12825
57700.00000	100.04878	6365.61008	100.04878
57750.00000	99.88053	6363.65921	99.88053
57800.00000	99.75977	6361.46713	99.75977
57850.00000	99.74322	6359.55386	99.74322
57900.00000	99.56883	6357.43101	99.56883
57950.00000	99.44903	6355.06247	99.44903
58000.00000	99.40613	6353.14672	99.40613
58050.00000	99.26903	6351.08420	99.26903
58100.00000	99.19606	6349.34954	99.19606
58150.00000	99.10466	6347.00656	99.10466
58200.00000	98.99599	6344.60914	98.99599
58250.00000	98.88023	6342.67975	98.88023
58300.00000	98.76601	6340.68828	98.76601
58350.00000	98.69620	6338.78280	98.69620
58400.00000	98.50028	6336.68221	98.50028
58450.00000	98.34396	6334.76460	98.34396
58500.00000	98.21691	6333.21001	98.21691
58550.00000	98.07641	6331.27080	98.07641
58600.00000	97.85778	6328.79848	97.85778
58650.00000	97.76671	6327.63620	97.76671
58700.00000	97.54260	6326.04771	97.54260
58750.00000	97.39220	6324.98528	97.39220
58800.00000	97.29147	6323.90073	97.29147
58850.00000	97.14489	6322.23659	97.14489
58900.00000	96.96898	6321.46184	96.96898
58950.00000	96.79196	6320.47995	96.79196
59000.00000	96.69105	6319.93890	96.69105
59050.00000	96.63609	6318.63319	96.63609
59100.00000	96.51039	6317.82926	96.51039
59150.00000	96.43100	6317.37422	96.43100
59200.00000	96.37702	6317.78149	96.37702
59250.00000	96.36154	6317.46820	96.36154
59300.00000	96.42069	6317.72826	96.42069
59350.00000	96.38961	6317.61045	96.38961
59400.00000	96.57846	6317.74322	96.57846
59450.00000	96.67184	6317.98983	96.67184
59500.00000	96.88173	6318.40323	96.88173
59550.00000	97.12943	6318.19424	97.12943
59600.00000	97.47052	6317.75148	97.47052
59650.00000	97.87993	6316.91265	97.87993
59700.00000	98.32189	6316.06313	98.32189
59750.00000	98.75585	6314.81635	98.75585
59800.00000	99.22541	6313.00658	99.22541
59850.00000	99.75458	6310.66759	99.75458
59900.00000	100.20519	6307.77137	100.20519
59950.00000	100.67408	6304.54205	100.67408
60000.00000	101.11897	6300.63753	101.11897
60050.00000	101.45421	6296.14471	101.45421
60100.00000	101.78538	6291.79174	101.78538
60150.00000	102.03382	6287.46065	102.03382
60200.00000	102.22634	6282.18101	102.22634
60250.00000	102.33820	6277.29209	102.33820
60300.00000	102.40545	6272.32348	102.40545
60350.00000	102.38671	6267.62946	102.38671
60400.00000	102.33930	6262.97327	102.33930
60450.00000	102.21425	6258.64337	102.21425
60500.00000	102.08428	6254.42557	102.08428
60550.00000	101.94635	6250.55870	101.94635
60600.00000	101.76594	6247.14935	101.76594
60650.00000	101.58146	6243.85363	101.58146
60700.00000	101.40545	6240.38853	101.40545
60750.00000	101.20828	6237.32350	101.20828
60800.00000	101.07094	6234.91916	101.07094
60850.00000	100.88433	6232.12104	100.88433
60900.00000	100.78577	6229.41469	100.78577
60950.00000	100.64639	6227.40484	100.64639
61000.00000	100.56372	6225.03638	100.56372
61050.00000	100.42627	6222.83110	100.42627
61100.00000	100.42270	6220.61848	100.42270
61150.00000	100.31688	6218.10675	100.31688
61200.00000	100.24424	6216.02882	100.24424
61250.00000	100.21321	6213.62711	100.21321
61300.00000	100.17158	6211.07038	100.17158
61350.00000	100.19378	6208.43819	100.19378
61400.00000	100.11028	6205.87978	100.11028
61450.00000	100.06301	6203.83881	100.06301
61500.00000	100.04923	6201.08260	100.04923
61550.00000	100.05939	6198.35539	100.05939
61600.00000	99.95407	6195.65650	99.95407
61650.00000	99.92519	6193.38842	99.92519
61700.00000	99.86015	6190.57739	99.86015
61750.00000	99.79587	6188.70411	99.79587
61800.00000	99.73351	6185.90673	99.73351
61850.00000	99.75963	6183.99093	99.75963
61900.00000	99.67623	6181.43184	99.67623
61950.00000	99.64106	6178.94771	99.64106
62000.00000	99.62887	6176.76654	99.62887
62050.00000	99.63307	6174.09907	99.63307
62100.00000	99.64737	6171.96731	99.64737
62150.00000	99.63871	6169.26338	99.63871
62200.00000	99.58019	6166.73142	99.58019
62250.00000	99.63848	6163.99194	99.63848
62300.00000	99.62164	6161.63355	99.62164
62350.00000	99.54635	6158.56891	99.54635
62400.00000	99.53602	6156.21816	99.53602
62450.00000	99.48207	6153.43771	99.48207
62500.00000	99.44700	6150.75540	99.44700
62550.00000	99.42617	6148.08933	99.42617
62600.00000	99.38396	6145.70974	99.38396
62650.00000	99.27687	6142.97251	99.27687
62700.00000	99.21598	6140.47425	99.21598
62750.00000	99.22574	6138.21098	99.22574
62800.00000	99.14461	6135.84467	99.14461
62850.00000	99.12817	6133.22305	99.12817
62900.00000	99.09939	6131.28084	99.09939
62950.00000	98.98591	6128.63308	98.98591
63000.00000	98.99540	6126.35325	98.99540
63050.00000	98.94453	6123.53703	98.94453
63100.00000	98.97345	6121.54604	98.97345
63150.00000	99.03751	6119.24215	99.03751
63200.00000	98.93697	6117.45863	98.93697
63250.00000	98.98287	6114.75614	98.98287
63300.00000	99.00986	6112.49973	99.00986
63350.00000	99.02606	6109.95912	99.02606
63400.00000	99.09201	6108.07471	99.09201
63450.00000	99.10708	6105.26692	99.10708
63500.00000	99.20828	6102.80279	99.20828
63550.00000	99.24378	6099.93341	99.24378
63600.00000	99.36824	6097.33481	99.36824
63650.00000	99.35468	6094.65426	99.35468
63700.00000	99.44511	6090.85182	99.44511
63750.00000	99.53228	6088.16724	99.53228
63800.00000	99.52128	6084.62867	99.52128
63850.00000	99.60172	6080.79041	99.60172
63900.00000	99.63280	6077.21227	99.63280
63950.00000	99.53105	6073.22388	99.53105
64000.00000	99.50296	6069.83778	99.50296
64050.00000	99.26643	6066.34161	99.26643
64100.00000	99.12349	6062.88389	99.12349
64150.00000	98.88760	6060.41372	98.88760
64200.00000	98.70474	6057.71056	98.70474
64250.00000	98.60297	6055.48454	98.60297
64300.00000	98.48049	6053.69463	98.48049
64350.00000	98.35433	6051.49131	98.35433
64400.00000	98.33135	6049.17637	98.33135
64450.00000	98.33437	6047.00751	98.33437
64500.00000	98.25042	6045.18613	98.25042
64550.00000	98.23265	6042.39460	98.23265
64600.00000	98.34244	6039.88241	98.34244
64650.00000	98.30425	6037.58946	98.30425
64700.00000	98.31418	6034.83923	98.31418
64750.00000	98.25199	6032.33047	98.25199
64800.00000	98.28139	6029.69390	98.28139
64850.00000	98.30024	6026.46746	98.30024
64900.00000	98.22545	6023.67548	98.22545
64950.00000	98.26600	6021.21328	98.26600
65000.00000	98.18993	6018.13232	98.18993
65050.00000	98.22674	6016.08541	98.22674
65100.00000	98.17220	6013.25669	98.17220
65150.00000	98.23846	6010.44548	98.23846
65200.00000	98.10020	6007.84251	98.10020
65250.00000	98.17028	6005.12764	98.17028
65300.00000	98.12831	6001.82266	98.12831
65350.00000	98.15826	5998.99082	98.15826
65400.00000	98.12832	5996.15961	98.12832
65450.00000	98.08367	5993.11139	98.08367
65500.00000	98.04205	5989.94507	98.04205
65550.00000	98.01766	5987.24633	98.01766
65600.00000	98.05630	5984.55739	98.05630
65650.00000	97.94878	5981.18210	97.94878
65700.00000	97.98424	5978.76218	97.98424
65750.00000	97.96562	5975.68484	97.96562
65800.00000	98.00576	5972.64634	98.00576
65850.00000	98.10820	5969.59086	98.10820
65900.00000	98.05770	5966.05590	98.05770
65950.00000	97.98465	5962.14674	97.98465
66000.00000	97.97756	5958.87568	97.97756
66050.00000	97.95006	5954.79712	97.95006
66100.00000	97.80901	5951.75454	97.80901
66150.00000	97.67561	5948.66446	97.67561
66200.00000	97.60150	5945.12370	97.60150
66250.00000	97.44612	5942.19307	97.44612
66300.00000	97.26723	5939.07940	97.26723
66350.00000	97.21712	5935.93991	97.21712
66400.00000	97.10328	5932.99736	97.10328
66450.00000	97.11504	5929.83031	97.11504
66500.00000	96.97813	5927.38543	96.97813
66550.00000	96.88729	5923.73331	96.88729
66600.00000	96.77678	5920.52568	96.77678
66650.00000	96.83723	5917.22472	96.83723
66700.00000	96.66485	5914.18925	96.66485
66750.00000	96.51953	5910.45528	96.51953
66800.00000	96.38949	5907.61314	96.38949
66850.00000	96.34288	5904.45364	96.34288
66900.00000	96.15876	5901.36230	96.15876
66950.00000	96.12778	5898.31031	96.12778
67000.00000	96.00268	5894.94230	96.00268
67050.00000	95.92759	5892.32682	95.92759
67100.00000	95.90706	5887.85747	95.90706
67150.00000	95.74143	5884.46066	95.74143
67200.00000	95.70410	5881.01889	95.70410
67250.00000	95.43769	5877.02842	95.43769
67300.00000	95.28753	5873.87153	95.28753
67350.00000	95.05977	5869.99446	95.05977
67400.00000	94.82776	5865.61221	94.82776
67450.00000	94.49128	5862.25273	94.49128
67500.00000	94.26955	5859.51179	94.26955
67550.00000	93.94439	5856.09269	93.94439
67600.00000	93.73230	5854.18451	93.73230
67650.00000	93.38180	5851.16956	93.38180
67700.00000	93.18148	5849.26156	93.18148
67750.00000	93.02054	5846.73140	93.02054
67800.00000	92.83871	5844.92067	92.83871
67850.00000	92.68383	5842.43853	92.68383
67900.00000	92.53280	5839.74870	92.53280
67950.00000	92.40886	5837.81501	92.40886
68000.00000	92.32677	5834.96311	92.32677
68050.00000	92.13671	5831.49964	92.13671
68100.00000	92.07735	5829.08446	92.07735
68150.00000	91.88163	5826.46868	91.88163
68200.00000	91.79816	5823.60562	91.79816
68250.00000	91.72325	5820.62528	91.72325
68300.00000	91.61054	5817.47771	91.61054
68350.00000	91.33676	5814.55789	91.33676
68400.00000	91.16214	5811.55774	91.16214
68450.00000	91.05377	5808.10120	91.05377
68500.00000	90.91705	5804.79863	90.91705
68550.00000	90.60801	5802.77550	90.60801
68600.00000	90.50841	5799.44272	90.50841
68650.00000	90.28790	5796.14739	90.28790
68700.00000	90.09763	5793.45379	90.09763
68750.00000	89.87089	5790.86276	89.87089
68800.00000	89.60309	5788.07759	89.60309
68850.00000	89.30772	5785.59495	89.30772
68900.00000	89.23295	5783.18783	89.23295
68950.00000	89.09283	5780.72318	89.09283
69000.00000	89.00822	5778.60035	89.00822
69050.00000	88.78828	5775.83752	88.78828
69100.00000	88.66037	5772.83482	88.66037
69150.00000	88.51237	5770.27599	88.51237
69200.00000	88.36606	5767.66102	88.36606
69250.00000	88.36637	5765.00043	88.36637
69300.00000	88.17137	5761.54607	88.17137
69350.00000	87.97587	5758.72253	87.97587
69400.00000	87.88422	5755.68965	87.88422
69450.00000	87.81756	5752.67299	87.81756
69500.00000	87.58121	5749.39972	87.58121
69550.00000	87.38978	5745.60136	87.38978
69600.00000	87.34192	5742.37695	87.34192
69650.00000	87.14864	5738.31202	87.14864
69700.00000	86.82214	5734.67177	86.82214
69750.00000	86.58261	5731.37523	86.58261
69800.00000	86.37232	5726.60482	86.37232
69850.00000	86.10182	5724.12508	86.10182
69900.00000	85.65025	5721.46475	85.65025
69950.00000	85.41419	5716.50611	85.41419
70000.00000	85.03934	5713.48852	85.03934
70050.00000	84.50816	5711.28996	84.50816
70100.00000	84.19719	5707.86922	84.19719
70150.00000	83.98848	5705.09130	83.98848
70200.00000	83.63057	5703.06644	83.63057
70250.00000	83.19732	5698.78357	83.19732
70300.00000	82.71901	5697.38729	82.71901
70350.00000	82.43365	5696.12273	82.43365
70400.00000	82.19616	5691.38561	82.19616
70450.00000	81.56505	5689.28799	81.56505
70500.00000	81.21671	5685.52423	81.21671
70550.00000	80.58723	5683.74546	80.58723
70600.00000	80.13046	5681.02280	80.13046
70650.00000	79.56042	5679.62988	79.56042
70700.00000	78.93238	5676.70281	78.93238
70750.00000	78.28112	5679.02470	78.28112
70800.00000	77.76880	5676.92386	77.76880
70850.00000	77.29378	5676.89253	77.29378
70900.00000	77.01981	5680.14643	77.01981
70950.00000	76.81073	5678.02305	76.81073
71000.00000	77.02417	5681.67398	77.02417
71050.00000	77.02344	5678.55354	77.02344
71100.00000	77.37324	5678.59499	77.37324
71150.00000	77.40150	5677.75436	77.40150
71200.00000	77.44237	5671.56138	77.44237
71250.00000	77.38466	5667.20973	77.38466
71300.00000	77.35142	5666.22526	77.35142
71350.00000	76.39397	5659.47699	76.39397
71400.00000	76.92849	5656.60976	76.92849
71450.00000	76.13070	5653.99358	76.13070
71500.00000	75.57823	5647.17549	75.57823
71550.00000	76.53100	5646.71220	76.53100
71600.00000	75.09985	5641.30812	75.09985
71650.00000	74.73084	5635.18061	74.73084
71700.00000	75.71871	5627.29518	75.71871
71750.00000	73.53200	5624.45216	73.53200
71800.00000	73.09600	5611.72120	73.09600
71850.00000	72.11771	5608.44283	72.11771
71900.00000	71.45082	5601.11291	71.45082
71950.00000	71.20868	5586.72101	71.20868
72000.00000	68.81641	5586.27322	68.81641
72050.00000	66.81539	5566.79117	66.81539
72100.00000	67.14021	5558.68922	67.14021
72150.00000	64.16027	5529.43871	64.16027
72200.00000	66.25491	5503.86559	66.25491
72250.00000	65.06888	5509.01306	65.06888
72300.00000	64.35494	5447.24184	64.35494
72350.00000	69.51845	5450.76456	69.51845
72400.00000	68.74966	5432.58978	68.74966
72450.00000	71.20387	5419.70658	71.20387
72500.00000	71.61139	5412.97592	71.61139
72550.00000	71.71743	5401.32289	71.71743
72600.00000	73.77256	5396.96530	73.77256
72650.00000	73.43666	5389.10987	73.43666
72700.00000	74.58073	5373.69567	74.58073
72750.00000	75.88308	5376.09276	75.88308
72800.00000	75.21419	5368.05801	75.21419
72850.00000	76.59669	5360.18746	76.59669
72900.00000	76.92190	5359.76733	76.92190
72950.00000	76.79293	5348.68031	76.79293
73000.00000	78.44068	5341.66998	78.44068
73050.00000	77.64028	5340.86164	77.64028
73100.00000	78.67139	5327.42225	78.67139
73150.00000	78.69862	5329.07373	78.69862
73200.00000	77.56211	5320.30089	77.56211
73250.00000	78.99941	5310.67873	78.99941
73300.00000	78.36341	5310.84236	78.36341
73350.00000	77.46813	5297.71021	77.46813
73400.00000	78.93315	5293.67726	78.93315
73450.00000	77.20352	5292.57596	77.20352
73500.00000	76.55243	5275.16733	76.55243
73550.00000	78.02366	5283.85691	78.02366
73600.00000	75.59232	5279.49289	75.59232
73650.00000	76.09495	5266.09243	76.09495
73700.00000	76.23413	5279.72452	76.23413
73750.00000	73.69885	5265.01959	73.69885
73800.00000	75.57922	5254.77783	75.57922
73850.00000	74.44311	5274.44662	74.44311
73900.00000	72.62902	5252.24031	72.62902
73950.00000	75.45445	5257.32690	75.45445
74000.00000	73.22226	5273.59416	73.22226
74050.00000	73.05709	5248.58165	73.05709
74100.00000	74.81554	5266.22601	74.81554
74150.00000	72.80965	5261.19349	72.80965
74200.00000	75.05178	5244.38398	75.05178
74250.00000	74.75935	5253.33555	74.75935
74300.00000	72.73303	5236.81919	72.73303
74350.00000	76.55648	5222.91746	76.55648
74400.00000	74.09194	5188.15197	74.09194
74450.00000	69.22127	4997.08184	69.22127
74500.00000	77.15378	4944.40145	77.15378
74550.00000	73.28373	4934.78784	73.28373
74600.00000	74.82564	4886.53637	74.82564
74650.00000	77.00099	4896.95751	77.00099
74700.00000	71.83668	4888.53745	71.83668
74750.00000	76.92077	4866.14439	76.92077
74800.00000	75.53230	4886.90294	75.53230
74850.00000	72.05762	4847.75215	72.05762
74900.00000	77.52029	4858.25119	77.52029
74950.00000	72.59607	4870.40781	72.59607
75000.00000	73.87116	4831.16831	73.87116
75050.00000	76.58033	4855.97784	76.58033
75100.00000	67.89333	4838.84115	67.89333
75150.00000	74.91634	4821.52869	74.91634
75200.00000	72.98810	4852.93476	72.98810
75250.00000	68.74167	4787.14593	68.74167
75300.00000	75.38423	4819.47116	75.38423
75350.00000	67.45645	4869.72795	67.45645
75400.00000	69.36825	4778.25589	69.36825
75450.00000	72.96408	4830.02355	72.96408
75500.00000	59.13711	4886.89107	59.13711
75550.00000	71.23637	4775.83086	71.23637
75600.00000	72.14114	4860.91767	72.14114
75650.00000	59.07081	4676.49075	59.07081
75700.00000	71.79245	4429.64310	71.79245
75750.00000	69.29281	4170.66165	69.29281
75800.00000	63.12756	3983.76821	63.12756
75850.00000	73.07275	3751.49350	73.07275
75900.00000	71.40885	3839.00577	71.40885
75950.00000	65.22140	3690.39885	65.22140
76000.00000	74.24717	3773.79079	74.24717
76050.00000	68.22001	3845.43507	68.22001
76100.00000	71.60135	3717.13402	71.60135
76150.00000	74.71347	3787.30634	74.71347
76200.00000	61.63973	3854.01588	61.63973
76250.00000	75.75212	3737.25363	75.75212
76300.00000	74.58220	3797.43677	74.58220
76350.00000	59.80821	3680.77705	59.80821
76400.00000	77.28989	3749.76024	77.28989
76450.00000	71.46618	3805.56754	71.46618
76500.00000	72.97721	3702.13155	72.97721
76550.00000	77.56009	3760.59213	77.56009
76600.00000	60.19521	3805.04366	60.19521
76650.00000	76.96789	3713.18356	76.96789
76700.00000	75.60573	3773.31913	75.60573
76750.00000	69.86612	3677.40504	69.86612
76800.00000	77.81564	3720.94746	77.81564
76850.00000	71.27347	3769.92804	71.27347
76900.00000	74.57989	3678.51150	74.57989
76950.00000	78.15596	3730.89053	78.15596
77000.00000	53.87346	3716.72787	53.87346
77050.00000	77.35282	3685.08538	77.35282
77100.00000	74.49520	3739.63487	74.49520
77150.00000	70.89843	3644.74242	70.89843
77200.00000	77.14413	3694.31907	77.14413
77250.00000	67.22051	3741.22710	67.22051
77300.00000	74.69993	3646.28981	74.69993
77350.00000	76.03749	3708.16800	76.03749
77400.00000	58.63204	3637.21655	58.63204
77450.00000	76.17272	3661.78589	76.17272
77500.00000	72.11610	3726.09838	72.11610
77550.00000	68.66936	3622.66739	68.66936
77600.00000	75.59167	3672.95215	75.59167
77650.00000	66.81361	3731.23150	66.81361
77700.00000	72.66940	3644.37216	72.66940
77750.00000	73.95646	3692.62706	73.95646
77800.00000	58.83941	3678.53755	58.83941
77850.00000	73.48996	3650.88831	73.48996
77900.00000	69.47101	3707.58259	69.47101
77950.00000	65.95226	3622.81170	65.95226
78000.00000	74.33020	3667.94358	74.33020
78050.00000	67.27474	3711.13126	67.27474
78100.00000	70.89935	3636.49753	70.89935
78150.00000	72.32205	3686.50272	72.32205
78200.00000	62.77028	3682.92918	62.77028
78250.00000	73.32807	3655.51474	73.32807
78300.00000	71.44699	3698.24015	71.44699
78350.00000	68.64392	3653.55289	68.64392
78400.00000	74.28946	3663.52305	74.28946
78450.00000	69.76515	3678.49633	69.76515
78500.00000	72.81903	3645.00072	72.81903
78550.00000	74.11474	3665.44039	74.11474
78600.00000	70.38495	3644.88620	70.38495
78650.00000	74.57281	3644.02932	74.57281
78700.00000	72.21176	3656.54402	72.21176
78750.00000	73.46975	3632.30426	73.46975
78800.00000	74.15060	3640.90247	74.15060
78850.00000	71.33865	3626.29824	71.33865
78900.00000	73.78326	3618.70099	73.78326
78950.00000	72.33432	3626.63661	72.33432
79000.00000	72.98161	3610.11058	72.98161
79050.00000	73.53576	3617.77440	73.53576
79100.00000	71.01472	3607.17754	71.01472
79150.00000	72.66335	3600.96861	72.66335
79200.00000	71.65583	3609.17766	71.65583
79250.00000	70.82377	3594.49366	70.82377
79300.00000	71.56223	3601.19819	71.56223
79350.00000	69.62467	3593.88827	69.62467
79400.00000	70.72265	3589.12138	70.72265
79450.00000	69.90046	3598.18951	69.90046
79500.00000	69.01149	3587.08009	69.01149
79550.00000	70.16933	3592.69447	70.16933
79600.00000	67.93972	3592.98786	67.93972
79650.00000	68.44661	3582.96112	68.44661
79700.00000	68.41756	3593.91933	68.41756
79750.00000	67.68440	3582.12992	67.68440
79800.00000	68.85876	3586.04976	68.85876
79850.00000	67.44817	3585.43225	67.44817
79900.00000	67.18417	3581.32954	67.18417
79950.00000	68.22960	3586.11411	68.22960
80000.00000	67.64727	3581.11348	67.64727
80050.00000	68.11154	3577.79482	68.11154
80100.00000	67.31538	3577.20128	67.31538
80150.00000	66.06574	3569.16779	66.06574
80200.00000	67.42102	3575.00409	67.42102
80250.00000	65.78980	3568.42399	65.78980
80300.00000	66.26112	3569.80825	66.26112
80350.00000	66.27414	3570.23763	66.27414
80400.00000	65.92343	3562.24676	65.92343
80450.00000	66.22607	3570.74183	66.22607
80500.00000	66.00805	3569.52383	66.00805
80550.00000	66.30726	3562.49056	66.30726
80600.00000	65.51429	3568.87849	65.51429
80650.00000	65.59699	3563.24926	65.59699
80700.00000	65.96479	3562.07153	65.96479
80750.00000	65.27173	3562.33204	65.27173
80800.00000	65.57771	3564.46695	65.57771
80850.00000	65.62463	3563.29975	65.62463
80900.00000	66.19293	3559.78249	66.19293
80950.00000	64.99086	3557.58087	64.99086
81000.00000	65.46194	3557.62614	65.46194
81050.00000	65.52175	3555.32033	65.52175
81100.00000	66.02933	3559.71022	66.02933
81150.00000	65.39944	3552.54271	65.39944
81200.00000	65.24994	3551.18287	65.24994
81250.00000	65.34183	3546.37496	65.34183
81300.00000	65.26282	3544.09393	65.26282
81350.00000	64.57127	3532.92636	64.57127
81400.00000	63.90666	3537.23656	63.90666
81450.00000	63.61488	3531.32210	63.61488
81500.00000	62.84008	3524.23534	62.84008
81550.00000	62.08289	3531.47014	62.08289
81600.00000	58.27806	3533.93977	58.27806
81650.00000	54.92934	3538.65402	54.92934
81700.00000	55.35344	3571.82266	55.35344
81750.00000	57.61157	3597.99449	57.61157
81800.00000	61.17667	3622.54245	61.17667
81850.00000	64.65486	3626.65227	64.65486
81900.00000	67.41848	3616.72744	67.41848
81950.00000	70.17221	3612.24709	70.17221
82000.00000	72.55797	3607.87478	72.55797
82050.00000	74.33335	3597.88838	74.33335
82100.00000	75.84398	3590.00346	75.84398
82150.00000	76.98174	3578.87719	76.98174
82200.00000	78.40717	3567.43097	78.40717
82250.00000	79.03803	3557.33090	79.03803
82300.00000	79.50956	3544.78186	79.50956
82350.00000	80.06590	3535.13725	80.06590
82400.00000	80.34007	3525.65149	80.34007
82450.00000	80.40004	3515.48528	80.40004
82500.00000	80.32521	3506.03575	80.32521
82550.00000	80.34779	3496.35584	80.34779
82600.00000	80.41021	3490.21528	80.41021
82650.00000	80.35706	3481.47319	80.35706
82700.00000	80.22577	3473.57935	80.22577
82750.00000	80.07076	3466.56908	80.07076
82800.00000	79.99909	3461.02947	79.99909
82850.00000	79.89464	3453.70416	79.89464
82900.00000	79.69687	3448.29778	79.69687
82950.00000	79.94545	3440.44643	79.94545
83000.00000	79.72548	3435.09289	79.72548
83050.00000	79.83380	3428.45731	79.83380
83100.00000	79.80040	3422.72601	79.80040
83150.00000	80.01080	3417.55749	80.01080
83200.00000	80.19458	3412.57730	80.19458
83250.00000	80.00307	3407.69670	80.00307
83300.00000	80.09564	3401.80252	80.09564
83350.00000	80.14739	3398.01397	80.14739
83400.00000	80.23342	3391.47902	80.23342
83450.00000	80.01366	3386.87540	80.01366
83500.00000	80.04469	3380.05608	80.04469
83550.00000	79.89443	3374.55680	79.89443
83600.00000	80.01520	3369.55409	80.01520
83650.00000	79.60059	3363.86146	79.60059
83700.00000	79.64950	3358.48699	79.64950
83750.00000	79.68473	3353.27530	79.68473
83800.00000	79.54146	3347.65641	79.54146
83850.00000	79.22483	3341.74580	79.22483
83900.00000	78.90377	3337.51292	78.90377
83950.00000	79.09009	3330.06955	79.09009
84000.00000	78.79499	3322.91667	78.79499
84050.00000	78.32580	3314.41160	78.32580
84100.00000	78.39774	3309.96283	78.39774
84150.00000	77.83203	3302.88210	77.83203
84200.00000	77.89870	3296.45967	77.89870
84250.00000	77.20022	3289.20958	77.20022
84300.00000	76.71001	3281.18967	76.71001
84350.00000	76.32209	3275.27895	76.32209
84400.00000	75.95388	3269.87661	75.95388
84450.00000	75.61829	3261.16995	75.61829
84500.00000	74.80483	3253.70583	74.80483
84550.00000	74.38898	3249.41309	74.38898
84600.00000	74.31532	3243.03480	74.31532
84650.00000	73.56040	3234.52420	73.56040
84700.00000	72.67259	3226.18586	72.67259
84750.00000	72.31626	3222.11755	72.31626
84800.00000	71.72233	3210.83547	71.72233
84850.00000	70.07424	3202.49687	70.07424
84900.00000	69.57305	3192.18401	69.57305
84950.00000	68.25469	3188.33961	68.25469
85000.00000	67.66633	3179.39789	67.66633
85050.00000	67.00924	3161.47434	67.00924
85100.00000	64.26802	3159.74243	64.26802
85150.00000	64.19860	3145.08189	64.19860
85200.00000	62.07684	3135.01294	62.07684
85250.00000	59.94654	3121.26915	59.94654
85300.00000	54.62798	3105.76597	54.62798
85350.00000	54.62310	3073.49406	54.62310
85400.00000	54.62493	3057.74666	54.62493
85450.00000	51.99450	2975.93315	51.99450
85500.00000	53.17943	2972.35393	53.17943
85550.00000	58.00973	2954.46218	58.00973
85600.00000	60.33693	2936.04253	60.33693
85650.00000	62.29177	2944.29571	62.29177
85700.00000	61.98023	2919.56468	61.98023
85750.00000	63.93101	2911.78566	63.93101
85800.00000	64.08005	2905.41872	64.08005
85850.00000	64.65569	2898.75337	64.65569
85900.00000	65.08211	2884.30730	65.08211
85950.00000	66.15907	2878.10570	66.15907
86000.00000	66.87904	2869.75940	66.87904
86050.00000	66.55980	2865.56799	66.55980
86100.00000	65.71642	2853.98424	65.71642
86150.00000	67.31180	2849.04975	67.31180
86200.00000	67.75937	2840.83319	67.75937
86250.00000	67.63365	2832.35669	67.63365
86300.00000	67.60870	2824.14831	67.60870
86350.00000	67.84564	2812.00004	67.84564
86400.00000	68.12639	2805.42582	68.12639
86450.00000	68.31189	2802.97041	68.31189
86500.00000	67.62702	2799.57385	67.62702
86550.00000	67.23094	2790.55441	67.23094
86600.00000	67.74837	2789.40058	67.74837
86650.00000	68.25276	2781.24175	68.25276
86700.00000	68.60353	2780.89755	68.60353
86750.00000	67.36067	2778.00326	67.36067
86800.00000	67.81532	2773.10930	67.81532
86850.00000	68.76534	2771.56392	68.76534
86900.00000	68.29611	2775.90895	68.29611
86950.00000	68.45535	2762.64220	68.45535
87000.00000	68.66895	2759.38909	68.66895
87050.00000	69.48950	2755.30252	69.48950
87100.00000	69.55352	2746.41057	69.55352
87150.00000	69.17413	2746.41932	69.17413
87200.00000	69.41019	2736.75681	69.41019
87250.00000	69.64179	2736.57889	69.64179
87300.00000	69.03906	2733.18493	69.03906
87350.00000	69.85303	2727.87844	69.85303
87400.00000	70.25966	2724.41572	70.25966
87450.00000	69.87058	2720.45368	69.87058
87500.00000	70.13759	2718.02061	70.13759
87550.00000	70.78692	2713.46881	70.78692
87600.00000	69.62688	2703.52966	69.62688
87650.00000	69.97834	2700.86582	69.97834
87700.00000	69.41024	2698.68924	69.41024
87750.00000	69.50142	2699.85300	69.50142
87800.00000	69.73134	2691.48143	69.73134
87850.00000	69.22011	2685.61240	69.22011
87900.00000	68.80844	2685.17644	68.80844
87950.00000	69.37216	2677.05217	69.37216
88000.00000	68.44794	2679.51577	68.44794
88050.00000	68.00976	2674.38026	68.00976
88100.00000	68.76558	2673.07910	68.76558
88150.00000	68.00732	2668.39134	68.00732
88200.00000	67.54509	2667.81293	67.54509
88250.00000	68.36654	2676.60719	68.36654
88300.00000	66.48101	2671.51001	66.48101
88350.00000	68.56482	2668.75865	68.56482
88400.00000	67.96335	2671.15284	67.96335
88450.00000	68.20209	2665.71734	68.20209
88500.00000	67.75946	2668.99090	67.75946
88550.00000	68.08105	2667.12004	68.08105
88600.00000	68.10657	2664.16186	68.10657
88650.00000	68.29771	2664.29957	68.29771
88700.00000	69.07307	2660.45658	69.07307
88750.00000	68.73157	2656.21902	68.73157
88800.00000	69.26395	2648.70452	69.26395
88850.00000	69.47922	2652.02520	69.47922
88900.00000	69.12220	2647.98747	69.12220
88950.00000	69.47499	2646.58920	69.47499
89000.00000	69.83559	2642.80315	69.83559
89050.00000	68.80617	2642.47571	68.80617
89100.00000	69.71852	2638.00131	69.71852
89150.00000	69.49993	2636.95585	69.49993
89200.00000	69.85542	2635.82957	69.85542
89250.00000	69.62731	2633.68550	69.62731
89300.00000	69.89471	2631.01757	69.89471
89350.00000	70.17452	2625.41505	70.17452
89400.00000	69.87815	2625.48358	69.87815
89450.00000	70.47388	2623.92885	70.47388
89500.00000	70.87570	2616.32141	70.87570
89550.00000	70.72279	2617.37571	70.72279
89600.00000	70.52608	2611.65225	70.52608
89650.00000	71.00735	2611.46404	71.00735
89700.00000	70.96741	2611.84160	70.96741
89750.00000	70.92150	2607.24964	70.92150
89800.00000	70.87149	2609.29099	70.87149
89850.00000	71.00183	2605.23707	71.00183
89900.00000	71.63208	2599.67362	71.63208
89950.00000	71.64834	2602.14170	71.64834
90000.00000	71.94403	2607.20373	71.94403
90050.00000	72.80409	2615.38578	72.80409
90100.00000	75.32314	2612.59085	75.32314
90150.00000	76.92313	2611.03930	76.92313
90200.00000	79.76127	2602.90609	79.76127
90250.00000	81.08410	2578.61922	81.08410
90300.00000	81.56895	2558.38845	81.56895
90350.00000	80.03802	2544.52629	80.03802
90400.00000	79.47886	2542.00419	79.47886
90450.00000	78.90832	2535.85037	78.90832
90500.00000	78.49495	2528.18276	78.49495
90550.00000	77.85964	2523.48525	77.85964
90600.00000	77.17480	2525.15566	77.17480
90650.00000	77.89243	2516.58744	77.89243
90700.00000	77.91396	2510.25146	77.91396
90750.00000	77.72192	2509.37686	77.72192
90800.00000	77.47565	2500.77051	77.47565
90850.00000	77.89590	2499.67936	77.89590
90900.00000	77.87260	2493.55671	77.87260
90950.00000	77.79214	2490.85983	77.79214
91000.00000	78.07615	2485.10796	78.07615
91050.00000	78.37423	2482.75857	78.37423
91100.00000	78.39976	2477.73647	78.39976
91150.00000	78.11621	2473.88654	78.11621
91200.00000	78.32442	2468.97918	78.32442
91250.00000	78.26295	2464.96152	78.26295
91300.00000	78.59578	2460.18043	78.59578
91350.00000	78.20107	2453.35452	78.20107
91400.00000	78.51113	2449.20688	78.51113
91450.00000	78.25562	2448.51604	78.25562
91500.00000	78.56767	2442.00443	78.56767
91550.00000	78.23749	2438.34440	78.23749
91600.00000	78.61404	2433.29699	78.61404
91650.00000	78.63430	2429.46093	78.63430
91700.00000	78.58374	2424.16221	78.58374
91750.00000	78.35381	2420.37442	78.35381
91800.00000	78.36892	2414.48807	78.36892
91850.00000	78.41597	2410.56993	78.41597
91900.00000	78.50608	2404.18189	78.50608
91950.00000	78.13041	2401.84356	78.13041
92000.00000	78.09753	2395.96626	78.09753
92050.00000	77.86327	2391.18567	77.86327
92100.00000	77.97622	2387.65945	77.97622
92150.00000	78.02968	2382.77339	78.02968
92200.00000	77.58328	2379.58136	77.58328
92250.00000	77.47160	2374.27037	77.47160
92300.00000	77.88130	2370.17549	77.88130
92350.00000	77.56607	2364.05348	77.56607
92400.00000	77.21968	2357.68818	77.21968
92450.00000	76.82330	2355.93407	76.82330
92500.00000	76.82732	2352.08873	76.82732
92550.00000	77.13479	2347.12003	77.13479
92600.00000	77.04413	2343.07756	77.04413
92650.00000	76.54592	2337.18079	76.54592
92700.00000	76.53400	2331.27161	76.53400
92750.00000	76.30151	2326.70528	76.30151
92800.00000	76.01978	2322.57461	76.01978
92850.00000	76.58204	2318.84578	76.58204
92900.00000	75.97445	2311.35817	75.97445
92950.00000	75.81080	2310.40025	75.81080
93000.00000	75.77203	2303.65172	75.77203
93050.00000	75.30507	2298.48985	75.30507
93100.00000	75.00423	2291.50596	75.00423
93150.00000	74.22113	2287.10383	74.22113
93200.00000	74.31597	2280.54322	74.31597
93250.00000	74.32120	2275.49666	74.32120
93300.00000	73.99882	2271.37071	73.99882
93350.00000	73.78627	2262.65458	73.78627
93400.00000	73.47561	2259.89021	73.47561
93450.00000	72.70032	2255.65399	72.70032
93500.00000	72.44188	2244.29237	72.44188
93550.00000	72.53570	2244.17214	72.53570
93600.00000	71.60517	2231.51447	71.60517
93650.00000	70.47672	2228.42127	70.47672
93700.00000	70.94604	2223.87438	70.94604
93750.00000	70.08023	2220.07152	70.08023
93800.00000	69.16246	2212.38642	69.16246
93850.00000	68.97407	2200.80604	68.97407
93900.00000	68.69202	2195.42005	68.69202
93950.00000	67.07204	2196.16528	67.07204
94000.00000	66.50608	2192.02742	66.50608
94050.00000	65.71051	2182.70271	65.71051
94100.00000	65.00640	2168.02943	65.00640
94150.00000	65.73228	2169.92550	65.73228
94200.00000	62.24545	2158.46173	62.24545
94250.00000	64.14864	2159.60485	64.14864
94300.00000	60.76201	2159.78094	60.76201
94350.00000	60.30515	2138.03121	60.30515
94400.00000	57.47347	2119.37354	57.47347
94450.00000	60.22227	2132.25856	60.22227
94500.00000	49.52074	2125.03475	49.52074
94550.00000	53.75633	2107.17988	53.75633
94600.00000	51.53718	2156.97167	51.53718
94650.00000	52.42432	2099.46527	52.42432
94700.00000	51.97850	1909.41746	51.97850
94750.00000	49.75821	1762.43532	49.75821
94800.00000	48.36359	1794.56381	48.36359
94850.00000	55.60143	1934.32734	55.60143
94900.00000	52.14288	1862.07847	52.14288
94950.00000	54.33887	1861.74256	54.33887
95000.00000	56.92289	1905.67140	56.92289
95050.00000	60.04307	1880.63708	60.04307
95100.00000	58.69998	1926.44703	58.69998
95150.00000	58.38246	1868.46371	58.38246
95200.00000	60.83872	1878.25928	60.83872
95250.00000	60.56397	1869.70483	60.56397
95300.00000	63.26285	1883.29993	63.26285
95350.00000	63.86737	1872.30520	63.86737
95400.00000	59.59735	1835.33037	59.59735
95450.00000	64.86264	1853.37585	64.86264
95500.00000	64.77399	1850.63778	64.77399
95550.00000	65.50435	1850.07733	65.50435
95600.00000	65.46944	1837.46030	65.46944
95650.00000	66.00677	1830.25941	66.00677
95700.00000	66.14419	1830.95393	66.14419
95750.00000	64.49094	1825.39983	64.49094
95800.00000	65.12707	1818.81512	65.12707
95850.00000	65.33267	1808.58660	65.33267
95900.00000	66.31956	1821.16778	66.31956
95950.00000	67.77147	1818.58936	67.77147
96000.00000	65.84174	1801.09424	65.84174
96050.00000	67.06516	1801.65679	67.06516
96100.00000	69.42636	1790.04263	69.42636
96150.00000	68.38390	1790.67078	68.38390
96200.00000	70.52047	1776.44233	70.52047
96250.00000	69.31991	1777.56289	69.31991
96300.00000	69.92723	1748.20064	69.92723
96350.00000	69.05526	1752.45459	69.05526
96400.00000	71.13972	1742.17210	71.13972
96450.00000	68.05958	1750.23447	68.05958
96500.00000	70.15637	1739.53959	70.15637
96550.00000	68.65008	1750.43072	68.65008
96600.00000	65.72244	1720.73869	65.72244
96650.00000	68.20847	1733.86456	68.20847
96700.00000	66.66256	1719.32587	66.66256
96750.00000	67.93390	1720.28682	67.93390
96800.00000	64.77724	1735.61847	64.77724
96850.00000	64.34650	1711.09693	64.34650
96900.00000	65.71905	1697.88282	65.71905
96950.00000	67.30296	1698.00064	67.30296
97000.00000	66.81926	1701.33533	66.81926
97050.00000	67.00438	1700.09081	67.00438
97100.00000	64.45126	1643.53886	64.45126
97150.00000	69.38930	1674.75134	69.38930
97200.00000	69.24817	1667.50807	69.24817
97250.00000	65.48160	1679.90821	65.48160
97300.00000	60.93631	1666.94862	60.93631
97350.00000	63.47807	1615.92148	63.47807
97400.00000	59.96653	1564.58384	59.96653
97450.00000	58.66637	1598.85916	58.66637
97500.00000	52.18179	1630.02015	52.18179
97550.00000	55.38214	1618.17365	55.38214
97600.00000	42.47543	1490.14468	42.47543
97650.00000	43.75546	1397.26234	43.75546
97700.00000	51.64629	1275.21705	51.64629
97750.00000	43.75176	1227.25002	43.75176
97800.00000	52.29963	1306.52970	52.29963
97850.00000	59.72350	1221.23672	59.72350
97900.00000	51.14384	1064.95075	51.14384
97950.00000	53.26173	1129.04310	53.26173
98000.00000	55.33088	1123.06083	55.33088
98050.00000	38.96024	1200.60656	38.96024
98100.00000	54.40406	1163.89697	54.40406
98150.00000	43.33707	1297.90035	43.33707
98200.00000	50.04405	1454.28222	50.04405
98250.00000	53.59811	1495.83397	53.59811
98300.00000	56.10752	1482.40193	56.10752
98350.00000	36.81355	1488.20081	36.81355
98400.00000	50.36912	1488.28728	50.36912
98450.00000	53.85077	1487.20712	53.85077
98500.00000	54.53395	1461.44387	54.53395
98550.00000	48.73365	1453.67464	48.73365
98600.00000	55.59110	1445.21664	55.59110
98650.00000	54.56688	1481.28068	54.56688
98700.00000	58.15398	1443.13458	58.15398
98750.00000	52.51688	1399.02934	52.51688
98800.00000	55.84441	1503.30462	55.84441
98850.00000	49.43709	1488.11379	49.43709
98900.00000	47.96074	1444.99218	47.96074
98950.00000	43.25054	1298.39036	43.25054
99000.00000	52.89129	1218.46811	52.89129
99050.00000	42.17975	1257.84296	42.17975
99100.00000	46.34852	1107.54414	46.34852
99150.00000	55.55968	1077.78178	55.55968
99200.00000	52.91650	1092.19572	52.91650
99250.00000	56.59571	1056.32628	56.59571
99300.00000	50.78959	1070.58779	50.78959
99350.00000	51.46896	1134.41024	51.46896
99400.00000	52.60997	1221.27178	52.60997
99450.00000	46.78483	1087.61227	46.78483
99500.00000	53.21285	1118.60946	53.21285
99550.00000	45.46641	1093.29015	45.46641
99600.00000	42.62792	983.54302	42.62792
99650.00000	55.75665	1060.39820	55.75665
99700.00000	52.57062	1086.37185	52.57062
99750.00000	52.69635	1104.56568	52.69635
99800.00000	49.57717	1081.31894	49.57717
99850.00000	47.43163	1068.24627	47.43163
99900.00000	49.85024	1052.42696	49.85024
99950.00000	48.67104	1072.79047	48.67104
