---ACOUSTIC CALIBRATION---
Filename: C:\Data\AZH DATA\AZH52\RightPrimary.calib
Date: 8/27/2019 11:38:58 AM
Format: 4
Probe Tube Correction File: C:\Data\Probe Tube Calibrations\50_ProbeTube.calib
Experiment VIs: 850
EPL_CFTS.exe V12.0.1 (2012)
DAQmx V9.6

Attenuation (dB): 40.000000
Min Freq (Hz): 50.000000
Max Freq (Hz): 49950.000000
Freq Step (Hz): 50.000000
Sample Rate (Hz): 100000.000000
[Smoothing]
Method=None
MA.Iterations=0
MA.Length=0
Loess.Length=0
Loess.Type=Linear
Loess.Robust=FALSE


Freq(Hz)	Mag(dB)	Phase(deg)	Unsmoothed(dB)

50.00000	102.86979	493.41345	102.86979
100.00000	82.02255	538.64525	82.02255
150.00000	77.41360	522.50579	77.41360
200.00000	78.55223	487.42327	78.55223
250.00000	89.72683	504.84072	89.72683
300.00000	83.50048	431.22254	83.50048
350.00000	82.79610	404.31761	82.79610
400.00000	81.99942	388.75088	81.99942
450.00000	86.37242	367.45108	86.37242
500.00000	85.70460	391.35839	85.70460
550.00000	90.85639	369.40766	90.85639
600.00000	93.27977	367.94676	93.27977
650.00000	95.78949	353.59674	95.78949
700.00000	98.40228	332.68579	98.40228
750.00000	99.77697	319.70267	99.77697
800.00000	100.75721	293.32550	100.75721
850.00000	100.08661	279.85169	100.08661
900.00000	98.21375	262.59885	98.21375
950.00000	96.49187	260.45628	96.49187
1000.00000	94.86315	262.38634	94.86315
1050.00000	93.09869	279.22198	93.09869
1100.00000	95.48427	298.60348	95.48427
1150.00000	98.27443	302.81092	98.27443
1200.00000	100.90180	301.01305	100.90180
1250.00000	102.39910	291.57372	102.39910
1300.00000	104.16839	286.30906	104.16839
1350.00000	105.26384	276.49715	105.26384
1400.00000	106.10923	270.48939	106.10923
1450.00000	107.17950	262.96436	107.17950
1500.00000	107.94459	256.91726	107.94459
1550.00000	109.10486	247.25424	109.10486
1600.00000	110.36831	237.79100	110.36831
1650.00000	111.41621	220.07310	111.41621
1700.00000	110.04156	210.57701	110.04156
1750.00000	109.81431	204.86879	109.81431
1800.00000	109.52940	199.92191	109.52940
1850.00000	109.70517	199.71289	109.70517
1900.00000	110.86273	195.30319	110.86273
1950.00000	111.50231	181.95093	111.50231
2000.00000	110.48744	170.49453	110.48744
2050.00000	109.30516	175.94651	109.30516
2100.00000	111.30710	174.17411	111.30710
2150.00000	111.81145	163.10243	111.81145
2200.00000	111.67329	153.20097	111.67329
2250.00000	111.05879	145.99635	111.05879
2300.00000	111.15072	140.65985	111.15072
2350.00000	110.85069	134.04641	110.85069
2400.00000	110.52847	128.92566	110.52847
2450.00000	110.22929	122.08499	110.22929
2500.00000	109.84767	117.31073	109.84767
2550.00000	109.36996	111.78072	109.36996
2600.00000	108.75515	107.64503	108.75515
2650.00000	108.27667	103.94501	108.27667
2700.00000	107.65496	99.75809	107.65496
2750.00000	106.98775	96.41657	106.98775
2800.00000	106.25701	93.68264	106.25701
2850.00000	105.46604	92.67982	105.46604
2900.00000	104.70200	91.27407	104.70200
2950.00000	103.75930	90.87505	103.75930
3000.00000	102.68135	92.42974	102.68135
3050.00000	101.49930	94.94059	101.49930
3100.00000	100.43729	102.49871	100.43729
3150.00000	99.42677	112.43369	99.42677
3200.00000	99.42197	129.94775	99.42197
3250.00000	100.74126	143.14699	100.74126
3300.00000	102.41103	152.87616	102.41103
3350.00000	104.28790	158.49130	104.28790
3400.00000	106.59906	162.56365	106.59906
3450.00000	108.86320	161.10852	108.86320
3500.00000	110.98736	156.65286	110.98736
3550.00000	112.54949	149.55080	112.54949
3600.00000	113.98721	143.10357	113.98721
3650.00000	115.15829	135.34964	115.15829
3700.00000	116.19434	127.87686	116.19434
3750.00000	117.14758	120.00932	117.14758
3800.00000	117.90179	111.46652	117.90179
3850.00000	118.46473	103.46324	118.46473
3900.00000	118.97233	96.44793	118.97233
3950.00000	119.56627	89.32453	119.56627
4000.00000	120.11129	81.96157	120.11129
4050.00000	120.65326	74.61147	120.65326
4100.00000	121.23346	66.82417	121.23346
4150.00000	121.93098	58.15346	121.93098
4200.00000	122.29050	48.14044	122.29050
4250.00000	122.56930	37.76009	122.56930
4300.00000	122.65440	27.22667	122.65440
4350.00000	122.51482	16.82719	122.51482
4400.00000	122.24697	 7.40318	122.24697
4450.00000	121.88293	-1.31185	121.88293
4500.00000	121.50988	-9.41710	121.50988
4550.00000	121.13522	-17.21858	121.13522
4600.00000	120.70961	-24.71666	120.70961
4650.00000	120.30121	-32.16389	120.30121
4700.00000	119.82937	-40.19839	119.82937
4750.00000	119.17547	-48.30339	119.17547
4800.00000	118.30284	-56.20872	118.30284
4850.00000	117.17301	-62.76744	117.17301
4900.00000	115.90667	-67.12218	115.90667
4950.00000	114.69704	-69.06817	114.69704
5000.00000	113.62586	-69.26341	113.62586
5050.00000	112.72102	-69.06887	112.72102
5100.00000	111.81178	-65.08062	111.81178
5150.00000	111.97211	-61.06830	111.97211
5200.00000	111.86267	-56.52808	111.86267
5250.00000	113.49755	-56.91406	113.49755
5300.00000	113.81014	-67.28739	113.81014
5350.00000	113.25742	-73.40890	113.25742
5400.00000	112.70904	-76.56999	112.70904
5450.00000	112.34013	-78.67431	112.34013
5500.00000	112.02677	-80.43908	112.02677
5550.00000	111.78257	-82.19691	111.78257
5600.00000	111.58960	-83.91338	111.58960
5650.00000	111.43624	-85.59688	111.43624
5700.00000	111.27490	-87.34138	111.27490
5750.00000	111.16761	-88.98241	111.16761
5800.00000	111.10810	-90.66384	111.10810
5850.00000	111.07708	-92.42036	111.07708
5900.00000	111.08937	-94.41497	111.08937
5950.00000	111.13277	-96.80480	111.13277
6000.00000	111.13738	-99.35796	111.13738
6050.00000	111.08687	-102.26575	111.08687
6100.00000	111.04746	-105.11625	111.04746
6150.00000	110.95389	-107.92248	110.95389
6200.00000	110.85643	-110.47629	110.85643
6250.00000	110.74947	-113.26684	110.74947
6300.00000	110.66270	-115.92959	110.66270
6350.00000	110.55180	-118.48075	110.55180
6400.00000	110.44914	-120.98951	110.44914
6450.00000	110.36834	-123.42281	110.36834
6500.00000	110.27272	-125.98747	110.27272
6550.00000	110.16680	-128.45153	110.16680
6600.00000	110.07273	-130.84518	110.07273
6650.00000	109.99545	-133.20481	109.99545
6700.00000	109.93133	-135.75656	109.93133
6750.00000	109.84251	-138.19400	109.84251
6800.00000	109.80316	-140.53261	109.80316
6850.00000	109.72119	-142.99911	109.72119
6900.00000	109.67962	-145.48426	109.67962
6950.00000	109.59751	-147.88021	109.59751
7000.00000	109.54216	-150.39334	109.54216
7050.00000	109.47329	-153.07112	109.47329
7100.00000	109.44597	-155.63051	109.44597
7150.00000	109.38362	-158.20784	109.38362
7200.00000	109.33796	-160.81603	109.33796
7250.00000	109.23516	-163.56689	109.23516
7300.00000	109.18984	-166.40435	109.18984
7350.00000	109.11363	-169.04027	109.11363
7400.00000	109.04451	-171.97074	109.04451
7450.00000	108.93244	-174.71884	108.93244
7500.00000	108.85912	-177.64569	108.85912
7550.00000	108.76134	-180.34124	108.76134
7600.00000	108.65830	-183.25121	108.65830
7650.00000	108.53948	-186.00390	108.53948
7700.00000	108.44196	-188.73954	108.44196
7750.00000	108.26881	-191.50870	108.26881
7800.00000	108.13604	-194.17715	108.13604
7850.00000	107.99008	-196.67500	107.99008
7900.00000	107.84230	-199.08377	107.84230
7950.00000	107.68879	-201.60914	107.68879
8000.00000	107.58414	-204.05105	107.58414
8050.00000	107.44242	-206.73505	107.44242
8100.00000	107.31964	-208.67916	107.31964
8150.00000	107.15845	-210.86799	107.15845
8200.00000	107.02928	-212.55845	107.02928
8250.00000	106.89026	-214.57294	106.89026
8300.00000	106.80938	-216.41816	106.80938
8350.00000	106.66270	-218.19464	106.66270
8400.00000	106.53779	-220.45005	106.53779
8450.00000	106.35439	-222.15578	106.35439
8500.00000	106.23857	-224.14011	106.23857
8550.00000	106.16986	-226.04774	106.16986
8600.00000	106.08418	-228.51035	106.08418
8650.00000	105.99954	-230.70588	105.99954
8700.00000	105.98337	-233.64549	105.98337
8750.00000	105.91889	-235.12832	105.91889
8800.00000	105.94672	-237.79608	105.94672
8850.00000	105.92287	-240.43345	105.92287
8900.00000	105.93074	-242.59942	105.93074
8950.00000	105.91461	-245.44546	105.91461
9000.00000	105.77367	-247.84246	105.77367
9050.00000	105.70028	-250.80050	105.70028
9100.00000	105.60460	-253.24719	105.60460
9150.00000	105.49685	-256.09211	105.49685
9200.00000	105.46285	-259.03442	105.46285
9250.00000	105.32406	-262.08565	105.32406
9300.00000	105.29237	-265.14894	105.29237
9350.00000	105.26889	-268.14297	105.26889
9400.00000	105.13980	-270.69385	105.13980
9450.00000	105.13631	-273.03669	105.13631
9500.00000	105.16141	-274.69554	105.16141
9550.00000	105.24740	-276.81145	105.24740
9600.00000	105.26827	-279.78327	105.26827
9650.00000	105.15025	-282.71880	105.15025
9700.00000	105.00840	-284.83203	105.00840
9750.00000	104.91025	-288.38004	104.91025
9800.00000	104.71113	-290.69589	104.71113
9850.00000	104.57204	-293.28039	104.57204
9900.00000	104.29755	-296.39896	104.29755
9950.00000	104.17498	-298.97089	104.17498
10000.00000	104.04995	-302.21637	104.04995
10050.00000	103.90523	-304.82767	103.90523
10100.00000	103.72799	-307.09191	103.72799
10150.00000	103.47469	-310.06164	103.47469
10200.00000	103.31682	-312.46682	103.31682
10250.00000	103.06883	-315.35044	103.06883
10300.00000	102.93703	-318.18996	102.93703
10350.00000	102.69188	-320.82406	102.69188
10400.00000	102.40630	-324.05317	102.40630
10450.00000	102.33564	-327.32465	102.33564
10500.00000	102.23077	-330.39407	102.23077
10550.00000	102.07679	-333.44964	102.07679
10600.00000	101.93236	-336.16739	101.93236
10650.00000	101.73675	-338.53423	101.73675
10700.00000	101.54739	-341.94251	101.54739
10750.00000	101.37710	-344.63004	101.37710
10800.00000	101.05557	-346.86669	101.05557
10850.00000	100.74834	-350.40539	100.74834
10900.00000	100.44153	-352.89381	100.44153
10950.00000	100.10757	-355.36851	100.10757
11000.00000	99.79026	-357.84569	99.79026
11050.00000	99.30415	-360.22573	99.30415
11100.00000	98.95150	-362.89023	98.95150
11150.00000	98.48379	-364.61094	98.48379
11200.00000	98.15177	-366.19991	98.15177
11250.00000	97.67161	-368.12805	97.67161
11300.00000	97.20791	-369.69296	97.20791
11350.00000	96.75415	-370.56316	96.75415
11400.00000	96.25242	-371.68579	96.25242
11450.00000	95.89779	-373.09970	95.89779
11500.00000	95.63810	-373.22487	95.63810
11550.00000	95.25048	-373.27772	95.25048
11600.00000	95.03393	-374.28524	95.03393
11650.00000	94.74099	-373.55193	94.74099
11700.00000	94.54299	-373.56963	94.54299
11750.00000	94.35055	-373.61520	94.35055
11800.00000	94.15829	-374.13135	94.15829
11850.00000	94.10593	-373.29981	94.10593
11900.00000	93.77726	-373.94949	93.77726
11950.00000	93.75641	-373.82742	93.75641
12000.00000	93.58713	-373.68765	93.58713
12050.00000	93.46724	-373.44018	93.46724
12100.00000	93.46078	-374.45760	93.46078
12150.00000	93.41903	-374.97220	93.41903
12200.00000	93.42449	-375.78295	93.42449
12250.00000	93.45199	-375.93485	93.45199
12300.00000	94.64483	-376.83826	94.64483
12350.00000	93.51274	-377.76391	93.51274
12400.00000	93.55565	-377.89640	93.55565
12450.00000	93.59688	-378.76565	93.59688
12500.00000	93.56002	-380.39764	93.56002
12550.00000	93.60676	-381.81288	93.60676
12600.00000	93.56857	-383.73452	93.56857
12650.00000	93.72062	-385.24180	93.72062
12700.00000	93.64493	-386.72863	93.64493
12750.00000	93.61533	-388.85773	93.61533
12800.00000	93.54460	-390.61480	93.54460
12850.00000	93.22977	-392.64413	93.22977
12900.00000	93.20134	-394.92305	93.20134
12950.00000	93.22520	-396.97960	93.22520
13000.00000	93.12843	-399.40065	93.12843
13050.00000	93.04397	-400.06572	93.04397
13100.00000	92.77921	-402.61091	92.77921
13150.00000	92.65338	-405.34318	92.65338
13200.00000	92.46591	-405.79466	92.46591
13250.00000	92.29994	-407.33006	92.29994
13300.00000	91.98119	-407.73260	91.98119
13350.00000	91.83664	-409.81238	91.83664
13400.00000	91.74692	-410.60987	91.74692
13450.00000	91.33274	-410.38645	91.33274
13500.00000	91.16196	-409.82870	91.16196
13550.00000	90.73391	-412.69210	90.73391
13600.00000	90.55287	-412.53457	90.55287
13650.00000	90.50056	-413.40629	90.50056
13700.00000	90.07472	-413.18205	90.07472
13750.00000	89.90978	-413.23276	89.90978
13800.00000	89.57121	-415.08515	89.57121
13850.00000	89.34030	-415.84869	89.34030
13900.00000	89.08189	-415.63679	89.08189
13950.00000	89.17951	-416.25366	89.17951
14000.00000	89.24507	-413.95268	89.24507
14050.00000	89.09503	-414.55100	89.09503
14100.00000	88.84266	-413.08031	88.84266
14150.00000	88.90980	-412.68139	88.90980
14200.00000	88.78598	-413.11500	88.78598
14250.00000	89.04028	-410.83535	89.04028
14300.00000	88.90228	-411.60466	88.90228
14350.00000	88.82910	-408.16193	88.82910
14400.00000	88.48582	-408.46110	88.48582
14450.00000	88.55299	-406.15848	88.55299
14500.00000	88.43809	-407.14352	88.43809
14550.00000	88.55905	-405.87113	88.55905
14600.00000	88.52539	-405.91989	88.52539
14650.00000	88.94162	-403.27288	88.94162
14700.00000	89.16749	-406.01373	89.16749
14750.00000	89.08878	-405.08094	89.08878
14800.00000	89.15366	-403.55235	89.15366
14850.00000	89.59297	-402.21988	89.59297
14900.00000	89.86188	-402.20865	89.86188
14950.00000	90.18787	-401.28661	90.18787
15000.00000	90.40994	-400.60255	90.40994
15050.00000	90.50545	-399.31552	90.50545
15100.00000	90.71035	-398.57829	90.71035
15150.00000	91.27534	-399.26819	91.27534
15200.00000	91.51256	-397.41142	91.51256
15250.00000	91.72929	-398.31565	91.72929
15300.00000	92.28548	-399.23772	92.28548
15350.00000	92.52035	-399.71688	92.52035
15400.00000	92.81229	-398.87111	92.81229
15450.00000	93.10514	-399.97086	93.10514
15500.00000	93.67211	-400.49524	93.67211
15550.00000	94.11456	-401.43579	94.11456
15600.00000	94.43398	-403.25263	94.43398
15650.00000	95.01983	-402.15341	95.01983
15700.00000	95.26453	-404.55169	95.26453
15750.00000	95.77400	-405.65503	95.77400
15800.00000	96.24412	-406.21030	96.24412
15850.00000	96.55865	-407.42072	96.55865
15900.00000	96.94542	-410.02509	96.94542
15950.00000	97.48711	-412.25081	97.48711
16000.00000	97.91010	-413.67309	97.91010
16050.00000	98.39604	-416.04197	98.39604
16100.00000	98.55725	-418.91444	98.55725
16150.00000	98.89117	-421.33007	98.89117
16200.00000	99.29246	-424.51788	99.29246
16250.00000	99.66523	-426.92438	99.66523
16300.00000	100.18121	-429.67224	100.18121
16350.00000	100.40542	-432.31567	100.40542
16400.00000	100.67137	-434.66297	100.67137
16450.00000	100.99541	-437.51485	100.99541
16500.00000	101.29097	-440.14769	101.29097
16550.00000	101.60876	-443.92069	101.60876
16600.00000	101.89669	-446.82609	101.89669
16650.00000	102.10935	-449.55339	102.10935
16700.00000	102.34878	-452.37349	102.34878
16750.00000	102.51508	-455.80501	102.51508
16800.00000	102.77006	-459.37466	102.77006
16850.00000	103.04497	-462.73979	103.04497
16900.00000	103.27970	-466.04672	103.27970
16950.00000	103.47834	-469.16410	103.47834
17000.00000	103.48776	-472.72210	103.48776
17050.00000	103.72215	-475.18218	103.72215
17100.00000	103.81233	-477.43883	103.81233
17150.00000	104.03574	-481.76557	104.03574
17200.00000	104.16042	-484.73897	104.16042
17250.00000	104.22960	-488.19534	104.22960
17300.00000	104.44065	-491.47742	104.44065
17350.00000	104.40199	-494.26012	104.40199
17400.00000	104.58199	-497.32221	104.58199
17450.00000	104.60976	-500.95507	104.60976
17500.00000	104.75090	-503.95408	104.75090
17550.00000	104.85546	-506.92568	104.85546
17600.00000	105.02180	-509.38318	105.02180
17650.00000	105.06821	-513.36800	105.06821
17700.00000	105.10386	-516.28412	105.10386
17750.00000	105.33577	-518.94724	105.33577
17800.00000	105.28579	-522.45654	105.28579
17850.00000	105.37931	-525.09116	105.37931
17900.00000	105.43816	-528.35977	105.43816
17950.00000	105.57772	-531.55102	105.57772
18000.00000	105.63257	-535.21941	105.63257
18050.00000	105.85587	-537.64009	105.85587
18100.00000	105.83472	-541.16234	105.83472
18150.00000	105.88517	-543.62177	105.88517
18200.00000	105.89730	-547.23302	105.89730
18250.00000	106.04235	-549.58724	106.04235
18300.00000	106.14526	-552.75938	106.14526
18350.00000	106.23251	-555.62868	106.23251
18400.00000	106.24575	-559.04078	106.24575
18450.00000	106.27380	-563.25952	106.27380
18500.00000	106.36195	-566.20411	106.36195
18550.00000	106.41367	-568.86620	106.41367
18600.00000	106.57022	-572.41705	106.57022
18650.00000	106.49489	-575.40531	106.49489
18700.00000	106.55504	-579.17863	106.55504
18750.00000	106.65272	-582.16609	106.65272
18800.00000	106.81653	-584.97597	106.81653
18850.00000	106.74154	-588.60692	106.74154
18900.00000	106.78182	-591.73861	106.78182
18950.00000	106.84630	-595.51185	106.84630
19000.00000	106.74654	-598.56001	106.74654
19050.00000	106.92343	-602.03408	106.92343
19100.00000	106.88213	-605.29709	106.88213
19150.00000	107.06272	-608.58441	107.06272
19200.00000	107.05864	-611.67746	107.05864
19250.00000	107.07577	-616.35452	107.07577
19300.00000	106.99739	-619.06996	106.99739
19350.00000	107.05406	-622.72742	107.05406
19400.00000	107.02681	-626.12962	107.02681
19450.00000	107.09599	-629.20909	107.09599
19500.00000	107.01484	-633.86028	107.01484
19550.00000	107.04209	-637.35745	107.04209
19600.00000	107.09636	-641.46762	107.09636
19650.00000	107.02037	-644.79894	107.02037
19700.00000	106.87941	-648.84159	106.87941
19750.00000	106.81644	-652.10103	106.81644
19800.00000	106.85559	-656.84101	106.85559
19850.00000	106.79610	-660.48049	106.79610
19900.00000	106.66462	-665.15778	106.66462
19950.00000	106.53778	-669.14594	106.53778
20000.00000	106.43313	-673.22990	106.43313
20050.00000	106.30515	-677.41174	106.30515
20100.00000	106.07686	-681.56734	106.07686
20150.00000	105.93170	-684.88786	105.93170
20200.00000	105.68408	-689.76327	105.68408
20250.00000	105.39183	-693.75238	105.39183
20300.00000	105.05283	-697.87729	105.05283
20350.00000	104.83019	-702.06755	104.83019
20400.00000	104.40973	-705.14148	104.40973
20450.00000	103.95684	-709.07753	103.95684
20500.00000	103.60940	-712.98089	103.60940
20550.00000	102.95672	-715.57358	102.95672
20600.00000	102.58315	-718.44558	102.58315
20650.00000	102.06918	-721.29319	102.06918
20700.00000	101.51099	-723.78889	101.51099
20750.00000	101.05172	-725.59882	101.05172
20800.00000	100.46912	-726.99482	100.46912
20850.00000	99.97543	-728.33842	99.97543
20900.00000	99.40936	-729.16369	99.40936
20950.00000	98.90910	-729.29526	98.90910
21000.00000	98.44134	-729.28415	98.44134
21050.00000	98.16192	-728.71915	98.16192
21100.00000	97.77817	-727.87720	97.77817
21150.00000	97.55296	-727.25191	97.55296
21200.00000	97.35548	-726.38012	97.35548
21250.00000	97.17285	-726.60280	97.17285
21300.00000	97.13549	-725.39069	97.13549
21350.00000	97.03953	-724.52513	97.03953
21400.00000	96.98666	-724.63496	96.98666
21450.00000	97.01290	-724.64309	97.01290
21500.00000	97.07392	-724.89181	97.07392
21550.00000	97.01862	-724.63254	97.01862
21600.00000	97.13538	-725.12941	97.13538
21650.00000	97.16386	-726.00316	97.16386
21700.00000	97.19607	-726.44205	97.19607
21750.00000	97.33980	-727.11846	97.33980
21800.00000	97.35686	-728.01372	97.35686
21850.00000	97.36858	-729.05059	97.36858
21900.00000	97.44900	-729.89222	97.44900
21950.00000	97.53193	-730.80988	97.53193
22000.00000	97.65779	-732.07745	97.65779
22050.00000	97.67918	-732.76082	97.67918
22100.00000	97.67868	-734.05924	97.67868
22150.00000	97.72586	-735.26015	97.72586
22200.00000	97.92412	-736.58728	97.92412
22250.00000	97.93222	-737.51130	97.93222
22300.00000	97.86234	-738.75405	97.86234
22350.00000	98.06002	-740.53626	98.06002
22400.00000	98.13502	-742.16201	98.13502
22450.00000	98.21100	-743.34540	98.21100
22500.00000	98.27011	-743.66224	98.27011
22550.00000	98.26069	-745.68767	98.26069
22600.00000	98.30590	-747.94843	98.30590
22650.00000	98.35141	-749.97846	98.35141
22700.00000	98.45426	-750.92938	98.45426
22750.00000	98.46327	-750.52797	98.46327
22800.00000	98.44328	-754.35026	98.44328
22850.00000	98.63824	-756.90940	98.63824
22900.00000	98.79982	-757.32674	98.79982
22950.00000	98.76826	-758.56654	98.76826
23000.00000	98.87629	-759.97963	98.87629
23050.00000	98.77887	-762.64084	98.77887
23100.00000	98.96339	-763.82041	98.96339
23150.00000	99.02104	-764.16505	99.02104
23200.00000	99.13395	-767.50654	99.13395
23250.00000	99.01776	-769.83689	99.01776
23300.00000	99.32627	-772.37136	99.32627
23350.00000	99.08031	-773.54767	99.08031
23400.00000	99.30022	-776.13840	99.30022
23450.00000	99.28627	-777.51389	99.28627
23500.00000	99.30683	-778.32314	99.30683
23550.00000	99.37974	-779.38897	99.37974
23600.00000	99.38143	-783.30202	99.38143
23650.00000	99.46641	-784.34554	99.46641
23700.00000	99.86846	-788.68204	99.86846
23750.00000	99.68000	-788.75481	99.68000
23800.00000	99.48566	-789.89419	99.48566
23850.00000	99.70026	-790.96022	99.70026
23900.00000	100.13644	-793.37362	100.13644
23950.00000	99.89916	-795.90483	99.89916
24000.00000	99.86836	-798.46630	99.86836
24050.00000	100.04826	-798.86012	100.04826
24100.00000	100.44828	-803.54888	100.44828
24150.00000	100.41214	-804.92717	100.41214
24200.00000	100.58847	-808.36925	100.58847
24250.00000	100.23852	-808.82347	100.23852
24300.00000	100.52545	-811.67909	100.52545
24350.00000	100.67077	-814.31074	100.67077
24400.00000	100.72758	-817.60413	100.72758
24450.00000	100.47713	-819.48282	100.47713
24500.00000	101.05685	-820.80898	101.05685
24550.00000	100.91787	-466.39112	100.91787
24600.00000	101.44481	-466.78873	101.44481
24650.00000	101.12892	-111.90207	101.12892
24700.00000	101.11728	248.20605	101.11728
24750.00000	101.28686	602.64211	101.28686
24800.00000	101.31440	960.77314	101.31440
24850.00000	101.03187	1318.99851	101.03187
24900.00000	101.12915	1677.31382	101.12915
24950.00000	101.35444	2033.82547	101.35444
25000.00000	101.46350	2025.64192	101.46350
25050.00000	101.11150	2024.84269	101.11150
25100.00000	100.96319	2021.60230	100.96319
25150.00000	101.41338	2020.51255	101.41338
25200.00000	101.02661	2017.48416	101.02661
25250.00000	101.30924	2014.98323	101.30924
25300.00000	101.25940	2014.27520	101.25940
25350.00000	101.25666	2006.77219	101.25666
25400.00000	101.18642	2003.88279	101.18642
25450.00000	101.16291	2002.38789	101.16291
25500.00000	100.97122	1999.87890	100.97122
25550.00000	100.97481	1996.41088	100.97481
25600.00000	101.07759	1994.26021	101.07759
25650.00000	100.86135	1992.56031	100.86135
25700.00000	100.92002	1989.74183	100.92002
25750.00000	100.74234	1987.07346	100.74234
25800.00000	100.73093	1983.61544	100.73093
25850.00000	100.70875	1980.95815	100.70875
25900.00000	100.57373	1977.81442	100.57373
25950.00000	100.31496	1979.54831	100.31496
26000.00000	100.35093	1974.50295	100.35093
26050.00000	100.39348	1971.71242	100.39348
26100.00000	100.24162	1970.27361	100.24162
26150.00000	100.20213	1967.21907	100.20213
26200.00000	100.29935	1965.32059	100.29935
26250.00000	100.33339	1962.59221	100.33339
26300.00000	100.26804	1959.58632	100.26804
26350.00000	99.92323	1958.94999	99.92323
26400.00000	99.90548	1956.43636	99.90548
26450.00000	100.23547	1952.80394	100.23547
26500.00000	99.98107	1950.01259	99.98107
26550.00000	99.96404	1944.53937	99.96404
26600.00000	99.85858	1943.28969	99.85858
26650.00000	99.95394	1943.60826	99.95394
26700.00000	99.74999	1939.50616	99.74999
26750.00000	99.54485	1936.64752	99.54485
26800.00000	99.45461	1931.17625	99.45461
26850.00000	99.72296	1930.78443	99.72296
26900.00000	99.62793	1929.22746	99.62793
26950.00000	99.69800	1924.83010	99.69800
27000.00000	99.31842	1924.39571	99.31842
27050.00000	99.50849	1920.10253	99.50849
27100.00000	98.92352	1919.66430	98.92352
27150.00000	98.99058	1914.34690	98.99058
27200.00000	98.97443	1911.84947	98.97443
27250.00000	98.52876	1911.48936	98.52876
27300.00000	98.24370	1908.49640	98.24370
27350.00000	98.33449	1907.41884	98.33449
27400.00000	97.79493	1904.56629	97.79493
27450.00000	97.68824	1903.59075	97.68824
27500.00000	97.48044	1900.39479	97.48044
27550.00000	97.47565	1898.63730	97.47565
27600.00000	97.70979	1896.09067	97.70979
27650.00000	97.02409	1896.70957	97.02409
27700.00000	96.87789	1891.96695	96.87789
27750.00000	96.71599	1889.72799	96.71599
27800.00000	96.77827	1886.92915	96.77827
27850.00000	96.85222	1889.04203	96.85222
27900.00000	96.39044	1886.63535	96.39044
27950.00000	95.73114	1884.95289	95.73114
28000.00000	95.76329	1885.86611	95.76329
28050.00000	96.29229	1882.50800	96.29229
28100.00000	95.45360	1880.95948	95.45360
28150.00000	95.61658	1880.57416	95.61658
28200.00000	95.68350	1877.61791	95.68350
28250.00000	95.34006	1875.67367	95.34006
28300.00000	94.98874	1876.02905	94.98874
28350.00000	95.22460	1875.56902	95.22460
28400.00000	95.01108	1875.00603	95.01108
28450.00000	95.57168	1871.66443	95.57168
28500.00000	95.11658	1871.95090	95.11658
28550.00000	94.85290	1872.82754	94.85290
28600.00000	94.91772	1871.16634	94.91772
28650.00000	95.27239	1867.24399	95.27239
28700.00000	95.15133	1867.82109	95.15133
28750.00000	95.70403	1867.98680	95.70403
28800.00000	95.35346	1865.45022	95.35346
28850.00000	94.73359	1861.29534	94.73359
28900.00000	94.91052	1860.12378	94.91052
28950.00000	94.82432	1860.10017	94.82432
29000.00000	95.17015	1858.39609	95.17015
29050.00000	94.88604	1858.01805	94.88604
29100.00000	94.91635	1857.24706	94.91635
29150.00000	94.68691	1854.18299	94.68691
29200.00000	94.69867	1851.39686	94.69867
29250.00000	95.21813	1850.60895	95.21813
29300.00000	94.78638	1847.82708	94.78638
29350.00000	94.98778	1844.57591	94.98778
29400.00000	95.07779	1843.79748	95.07779
29450.00000	94.96409	1841.08343	94.96409
29500.00000	95.35206	1839.55993	95.35206
29550.00000	94.83788	1834.89566	94.83788
29600.00000	95.00267	1833.52633	95.00267
29650.00000	94.93997	1830.40821	94.93997
29700.00000	94.78152	1830.14315	94.78152
29750.00000	94.77091	1828.35934	94.77091
29800.00000	94.42470	1823.37841	94.42470
29850.00000	94.49464	1821.03957	94.49464
29900.00000	94.77629	1819.45304	94.77629
29950.00000	93.82599	1817.51708	93.82599
30000.00000	94.12470	1816.09738	94.12470
30050.00000	94.04583	1811.95835	94.04583
30100.00000	93.64952	1810.49467	93.64952
30150.00000	93.78143	1806.68563	93.78143
30200.00000	93.46860	1802.84143	93.46860
30250.00000	92.98109	1801.68710	92.98109
30300.00000	92.77006	1802.22735	92.77006
30350.00000	92.72313	1800.73224	92.72313
30400.00000	92.46708	1798.44781	92.46708
30450.00000	91.93208	1797.18216	91.93208
30500.00000	91.81578	1794.25421	91.81578
30550.00000	91.60551	1795.06382	91.60551
30600.00000	91.41484	1796.43236	91.41484
30650.00000	91.37333	1794.09959	91.37333
30700.00000	90.94520	1793.03059	90.94520
30750.00000	90.94363	1794.29207	90.94363
30800.00000	90.80195	1794.10830	90.80195
30850.00000	90.77095	1795.46636	90.77095
30900.00000	90.88965	1797.61288	90.88965
30950.00000	91.02370	1796.12857	91.02370
31000.00000	91.03708	1797.01071	91.03708
31050.00000	91.40521	1797.25564	91.40521
31100.00000	91.64889	1797.47258	91.64889
31150.00000	91.78634	1798.53035	91.78634
31200.00000	92.60837	1798.03710	92.60837
31250.00000	92.66050	1798.00037	92.66050
31300.00000	92.90074	1797.78254	92.90074
31350.00000	93.54740	1796.24708	93.54740
31400.00000	93.55585	1794.74144	93.55585
31450.00000	94.04156	1795.04820	94.04156
31500.00000	94.56692	1791.16874	94.56692
31550.00000	94.98659	1789.72751	94.98659
31600.00000	95.53536	1787.91688	95.53536
31650.00000	95.90493	1786.76779	95.90493
31700.00000	96.25418	1783.16931	96.25418
31750.00000	96.80421	1783.25820	96.80421
31800.00000	96.99021	1779.22353	96.99021
31850.00000	97.27345	1777.23522	97.27345
31900.00000	97.34099	1774.74879	97.34099
31950.00000	97.78906	1772.41457	97.78906
32000.00000	97.86519	1768.23988	97.86519
32050.00000	98.13854	1766.41836	98.13854
32100.00000	98.62361	1763.35567	98.62361
32150.00000	98.81797	1761.06925	98.81797
32200.00000	99.08752	1757.84774	99.08752
32250.00000	99.20610	1754.49737	99.20610
32300.00000	99.12677	1752.94395	99.12677
32350.00000	99.30962	1751.06891	99.30962
32400.00000	99.69396	1747.81816	99.69396
32450.00000	99.69524	1743.49978	99.69524
32500.00000	99.73914	1741.88406	99.73914
32550.00000	99.87413	1740.14743	99.87413
32600.00000	100.06027	1737.92175	100.06027
32650.00000	100.16113	1735.32902	100.16113
32700.00000	100.16326	1733.26023	100.16326
32750.00000	100.13176	1729.21090	100.13176
32800.00000	100.33805	1726.94736	100.33805
32850.00000	100.30779	1725.35927	100.30779
32900.00000	100.29743	1722.89626	100.29743
32950.00000	100.16766	1719.32892	100.16766
33000.00000	100.15925	1718.43060	100.15925
33050.00000	100.17208	1715.24839	100.17208
33100.00000	100.04586	1714.08451	100.04586
33150.00000	100.15540	1712.80509	100.15540
33200.00000	100.37285	1713.02612	100.37285
33250.00000	100.26963	1710.11382	100.26963
33300.00000	100.16423	1706.58304	100.16423
33350.00000	100.20544	1705.44031	100.20544
33400.00000	100.23016	1702.16775	100.23016
33450.00000	99.92634	1701.00780	99.92634
33500.00000	100.36268	1702.22747	100.36268
33550.00000	100.09257	1698.54062	100.09257
33600.00000	100.00350	1697.49700	100.00350
33650.00000	100.19748	1695.04029	100.19748
33700.00000	100.14476	1694.40587	100.14476
33750.00000	99.90516	1692.97288	99.90516
33800.00000	100.08615	1693.03033	100.08615
33850.00000	100.08230	1690.34260	100.08230
33900.00000	100.10354	1689.49274	100.10354
33950.00000	100.12974	1687.93094	100.12974
34000.00000	100.10264	1685.59764	100.10264
34050.00000	100.01102	1684.89160	100.01102
34100.00000	100.10213	1685.04000	100.10213
34150.00000	100.34646	1682.68872	100.34646
34200.00000	100.21180	1683.52484	100.21180
34250.00000	100.17901	1679.81972	100.17901
34300.00000	100.11658	1680.59891	100.11658
34350.00000	100.20849	1678.64574	100.20849
34400.00000	100.26138	1679.80554	100.26138
34450.00000	100.60378	1676.19542	100.60378
34500.00000	100.23083	1676.02878	100.23083
34550.00000	100.46861	1675.50245	100.46861
34600.00000	99.82966	1673.82973	99.82966
34650.00000	100.64387	1676.55867	100.64387
34700.00000	100.37842	1676.16987	100.37842
34750.00000	100.59711	1669.52962	100.59711
34800.00000	100.81963	1672.68698	100.81963
34850.00000	101.11256	1673.27325	101.11256
34900.00000	101.45160	1673.87646	101.45160
34950.00000	101.35734	1671.63574	101.35734
35000.00000	101.53471	1670.19197	101.53471
35050.00000	101.52318	1671.47507	101.52318
35100.00000	101.73482	1669.34640	101.73482
35150.00000	101.68441	1669.01186	101.68441
35200.00000	101.60361	1666.66983	101.60361
35250.00000	101.75326	1666.66744	101.75326
35300.00000	102.20614	1665.73018	102.20614
35350.00000	102.56834	1665.87341	102.56834
35400.00000	102.54236	1665.34031	102.54236
35450.00000	102.86590	1662.90817	102.86590
35500.00000	102.59600	1663.48267	102.59600
35550.00000	102.99371	1662.83407	102.99371
35600.00000	103.27131	1662.40456	103.27131
35650.00000	103.74059	1660.69500	103.74059
35700.00000	103.64951	1659.87714	103.64951
35750.00000	103.61184	1659.59131	103.61184
35800.00000	103.93988	1658.60055	103.93988
35850.00000	104.11306	1657.94167	104.11306
35900.00000	104.38243	1658.04175	104.38243
35950.00000	104.82360	1654.94389	104.82360
36000.00000	104.84957	1656.08572	104.84957
36050.00000	104.99023	1654.13704	104.99023
36100.00000	105.31376	1652.45561	105.31376
36150.00000	105.38881	1651.66059	105.38881
36200.00000	105.54778	1651.63914	105.54778
36250.00000	106.53503	1645.83532	106.53503
36300.00000	105.83195	1648.90113	105.83195
36350.00000	106.04428	1647.05223	106.04428
36400.00000	106.39597	1647.22643	106.39597
36450.00000	106.57197	1645.45902	106.57197
36500.00000	107.06420	1644.81960	107.06420
36550.00000	106.91086	1641.73240	106.91086
36600.00000	107.36237	1641.50407	107.36237
36650.00000	107.63343	1640.40263	107.63343
36700.00000	107.88563	1637.31949	107.88563
36750.00000	108.09046	1635.37220	108.09046
36800.00000	108.37501	1636.14755	108.37501
36850.00000	108.45888	1633.49635	108.45888
36900.00000	108.73972	1630.47589	108.73972
36950.00000	108.91103	1628.76105	108.91103
37000.00000	108.72071	1627.40814	108.72071
37050.00000	109.06858	1626.05139	109.06858
37100.00000	109.60395	1622.15606	109.60395
37150.00000	109.69377	1619.97486	109.69377
37200.00000	110.17482	1618.22843	110.17482
37250.00000	110.00878	1615.55496	110.00878
37300.00000	110.26472	1612.03760	110.26472
37350.00000	110.68550	1610.75024	110.68550
37400.00000	110.56063	1609.87401	110.56063
37450.00000	110.75533	1607.56728	110.75533
37500.00000	111.35509	1603.43527	111.35509
37550.00000	111.20112	1600.70003	111.20112
37600.00000	111.34003	1598.03444	111.34003
37650.00000	111.89783	1595.60917	111.89783
37700.00000	112.19508	1592.19843	112.19508
37750.00000	112.38197	1588.85397	112.38197
37800.00000	112.55993	1585.12652	112.55993
37850.00000	112.75263	1580.18082	112.75263
37900.00000	113.00810	1577.92252	113.00810
37950.00000	113.40413	1574.84465	113.40413
38000.00000	113.51360	1571.46625	113.51360
38050.00000	113.97777	1566.54518	113.97777
38100.00000	114.32333	1561.88458	114.32333
38150.00000	114.66417	1557.21784	114.66417
38200.00000	115.11651	1551.95264	115.11651
38250.00000	115.27861	1547.30915	115.27861
38300.00000	115.74122	1541.61464	115.74122
38350.00000	115.93524	1536.84875	115.93524
38400.00000	116.25280	1530.99280	116.25280
38450.00000	116.58619	1524.62178	116.58619
38500.00000	116.82555	1518.48789	116.82555
38550.00000	117.16971	1513.71008	117.16971
38600.00000	117.49756	1507.52358	117.49756
38650.00000	117.72746	1500.83530	117.72746
38700.00000	117.88982	1494.41787	117.88982
38750.00000	118.17486	1488.02664	118.17486
38800.00000	118.38117	1481.19206	118.38117
38850.00000	118.55102	1474.68344	118.55102
38900.00000	118.70111	1467.80907	118.70111
38950.00000	118.77228	1460.86414	118.77228
39000.00000	118.91028	1454.21883	118.91028
39050.00000	119.03754	1447.25440	119.03754
39100.00000	118.93700	1440.39100	118.93700
39150.00000	118.91908	1433.55263	118.91908
39200.00000	118.93408	1427.12559	118.93408
39250.00000	118.90247	1419.88737	118.90247
39300.00000	118.82678	1412.77375	118.82678
39350.00000	118.64256	1406.67179	118.64256
39400.00000	118.47127	1399.67650	118.47127
39450.00000	118.25803	1393.73440	118.25803
39500.00000	118.06125	1387.22315	118.06125
39550.00000	117.74940	1380.44487	117.74940
39600.00000	117.37446	1374.22776	117.37446
39650.00000	117.07358	1368.64659	117.07358
39700.00000	116.66723	1363.27037	116.66723
39750.00000	116.35431	1356.93282	116.35431
39800.00000	115.93952	1351.45578	115.93952
39850.00000	115.42827	1346.42510	115.42827
39900.00000	114.89421	1341.85451	114.89421
39950.00000	114.40708	1337.26997	114.40708
40000.00000	113.74613	1334.08044	113.74613
40050.00000	113.35374	1328.69836	113.35374
40100.00000	112.81817	1324.60635	112.81817
40150.00000	112.16084	1320.64439	112.16084
40200.00000	111.54354	1317.31473	111.54354
40250.00000	110.94988	1314.56029	110.94988
40300.00000	110.47797	1312.03518	110.47797
40350.00000	109.77797	1308.76073	109.77797
40400.00000	109.09167	1306.58621	109.09167
40450.00000	108.53577	1305.61715	108.53577
40500.00000	107.82714	1304.80731	107.82714
40550.00000	107.38822	1302.26318	107.38822
40600.00000	106.75720	1301.53020	106.75720
40650.00000	106.17518	1301.65206	106.17518
40700.00000	105.51707	1302.01693	105.51707
40750.00000	105.08300	1300.11669	105.08300
40800.00000	104.41057	1300.22995	104.41057
40850.00000	103.99335	1301.71108	103.99335
40900.00000	103.45717	1301.81979	103.45717
40950.00000	102.93149	1303.23552	102.93149
41000.00000	102.25172	1303.88542	102.25172
41050.00000	102.05958	1306.28745	102.05958
41100.00000	101.45440	1305.52743	101.45440
41150.00000	101.37439	1308.37337	101.37439
41200.00000	101.23343	1309.86294	101.23343
41250.00000	100.47744	1311.87093	100.47744
41300.00000	100.02624	1315.55023	100.02624
41350.00000	100.00538	1317.39611	100.00538
41400.00000	99.88172	1312.64409	99.88172
41450.00000	99.80722	1321.46453	99.80722
41500.00000	99.37098	1321.65882	99.37098
41550.00000	99.23978	1328.94632	99.23978
41600.00000	98.76127	1327.79988	98.76127
41650.00000	98.76051	1330.90671	98.76051
41700.00000	98.93117	1330.82325	98.93117
41750.00000	98.47831	1336.82144	98.47831
41800.00000	97.98681	1337.17860	97.98681
41850.00000	97.15112	1337.13695	97.15112
41900.00000	97.20654	1338.94667	97.20654
41950.00000	98.72177	1354.57073	98.72177
42000.00000	97.69633	1347.03421	97.69633
42050.00000	96.43233	1348.80190	96.43233
42100.00000	96.53030	1348.71060	96.53030
42150.00000	95.96422	1348.52338	95.96422
42200.00000	95.42791	1358.47297	95.42791
42250.00000	95.44035	1353.29612	95.44035
42300.00000	95.84063	1357.00947	95.84063
42350.00000	94.57608	1367.11208	94.57608
42400.00000	93.62792	1364.03928	93.62792
42450.00000	95.67383	1359.28934	95.67383
42500.00000	93.25657	1356.32177	93.25657
42550.00000	92.53993	1374.69547	92.53993
42600.00000	92.24421	1366.48461	92.24421
42650.00000	91.57933	1360.18936	91.57933
42700.00000	91.86056	1369.83690	91.86056
42750.00000	92.72569	1358.32996	92.72569
42800.00000	91.92545	1357.59521	91.92545
42850.00000	89.79933	1349.59781	89.79933
42900.00000	88.86569	1338.29172	88.86569
42950.00000	90.91080	1339.49271	90.91080
43000.00000	90.75377	1339.29288	90.75377
43050.00000	88.01629	1312.34822	88.01629
43100.00000	89.89362	1310.40773	89.89362
43150.00000	90.23663	1323.70982	90.23663
43200.00000	90.56908	1295.61935	90.56908
43250.00000	89.95133	1281.96913	89.95133
43300.00000	93.14988	1274.48879	93.14988
43350.00000	93.22012	1265.94484	93.22012
43400.00000	94.24773	1255.63585	94.24773
43450.00000	95.75500	1251.24944	95.75500
43500.00000	94.30320	1234.43671	94.30320
43550.00000	96.72539	1238.22367	96.72539
43600.00000	97.06910	1227.84434	97.06910
43650.00000	97.25343	1223.82348	97.25343
43700.00000	98.44227	1217.23600	98.44227
43750.00000	99.37378	1218.14413	99.37378
43800.00000	99.64103	1207.47375	99.64103
43850.00000	100.65364	1199.93728	100.65364
43900.00000	101.03926	1202.66414	101.03926
43950.00000	102.08451	1195.50204	102.08451
44000.00000	101.61287	1191.27978	101.61287
44050.00000	102.39882	1186.65409	102.39882
44100.00000	102.71397	1173.74428	102.71397
44150.00000	102.27428	1176.54682	102.27428
44200.00000	102.91106	1173.54755	102.91106
44250.00000	102.98949	1168.77247	102.98949
44300.00000	103.77143	1161.75381	103.77143
44350.00000	103.08803	1158.35605	103.08803
44400.00000	103.41480	1154.06909	103.41480
44450.00000	104.22098	1150.34888	104.22098
44500.00000	104.09488	1147.30144	104.09488
44550.00000	105.88586	1141.79751	105.88586
44600.00000	104.23872	1141.95016	104.23872
44650.00000	104.49169	1132.68684	104.49169
44700.00000	104.23095	1132.70628	104.23095
44750.00000	104.46582	1128.17657	104.46582
44800.00000	105.57482	1123.30719	105.57482
44850.00000	104.97629	1117.29186	104.97629
44900.00000	104.74763	1115.28480	104.74763
44950.00000	105.08863	1109.87702	105.08863
45000.00000	105.29676	1102.51531	105.29676
45050.00000	104.18365	1110.58723	104.18365
45100.00000	104.63424	1099.60405	104.63424
45150.00000	104.79662	1090.59158	104.79662
45200.00000	104.08366	1093.43009	104.08366
45250.00000	104.67692	1087.93806	104.67692
45300.00000	104.15069	1085.19485	104.15069
45350.00000	103.82500	1079.29894	103.82500
45400.00000	103.99632	1079.79233	103.99632
45450.00000	103.76721	1070.53381	103.76721
45500.00000	102.71001	1067.83884	102.71001
45550.00000	102.90244	1070.34127	102.90244
45600.00000	103.65045	1062.30532	103.65045
45650.00000	102.25671	1055.79185	102.25671
45700.00000	102.54887	1052.76462	102.54887
45750.00000	102.54313	1058.66358	102.54313
45800.00000	101.60542	1048.94240	101.60542
45850.00000	101.73117	1048.20577	101.73117
45900.00000	102.10069	1047.62598	102.10069
45950.00000	101.00541	1046.57213	101.00541
46000.00000	99.72861	1028.81644	99.72861
46050.00000	100.13466	1034.42554	100.13466
46100.00000	99.37465	1037.30731	99.37465
46150.00000	99.46923	1036.67162	99.46923
46200.00000	96.46615	1022.40150	96.46615
46250.00000	98.24088	1025.29684	98.24088
46300.00000	97.00039	1020.18824	97.00039
46350.00000	99.31978	1022.73451	99.31978
46400.00000	97.02064	1016.25448	97.02064
46450.00000	94.92505	1017.35152	94.92505
46500.00000	96.43506	1023.03611	96.43506
46550.00000	95.83988	1024.31469	95.83988
46600.00000	96.26420	1026.84437	96.26420
46650.00000	93.29355	1020.09305	93.29355
46700.00000	93.65465	1035.28499	93.65465
46750.00000	94.62876	1037.86876	94.62876
46800.00000	93.00361	1028.43505	93.00361
46850.00000	93.95579	682.91544	93.95579
46900.00000	93.48674	676.90250	93.48674
46950.00000	94.38014	671.98709	94.38014
47000.00000	93.74605	681.68646	93.74605
47050.00000	96.34670	668.27096	96.34670
47100.00000	93.84966	674.27971	93.84966
47150.00000	95.55181	669.96456	95.55181
47200.00000	94.73062	675.67954	94.73062
47250.00000	95.86387	666.74086	95.86387
47300.00000	95.25408	662.39773	95.25408
47350.00000	94.34452	309.60626	94.34452
47400.00000	94.49687	313.09838	94.49687
47450.00000	95.77920	314.18429	95.77920
47500.00000	93.89718	305.61151	93.89718
47550.00000	93.87523	-53.95301	93.87523
47600.00000	93.78914	-54.91395	93.78914
47650.00000	96.16951	-53.37981	96.16951
47700.00000	95.00282	-60.81236	95.00282
47750.00000	93.32272	-53.00940	93.32272
47800.00000	93.72783	-69.37237	93.72783
47850.00000	95.10666	-419.99027	95.10666
47900.00000	94.87769	-772.87336	94.87769
47950.00000	93.26357	-777.17512	93.26357
48000.00000	93.96502	-775.57205	93.96502
48050.00000	95.24325	-780.57518	95.24325
48100.00000	93.66962	-778.03031	93.66962
48150.00000	94.34440	-1138.33584	94.34440
48200.00000	94.89825	-1133.80263	94.89825
48250.00000	93.94063	-1144.47618	93.94063
48300.00000	95.16603	-1140.94340	95.16603
48350.00000	94.52230	-1150.38451	94.52230
48400.00000	95.64318	-1493.11538	95.64318
48450.00000	96.66623	-1501.37498	96.66623
48500.00000	95.49736	-1504.33346	95.49736
48550.00000	94.43812	-1511.88701	94.43812
48600.00000	96.55524	-1859.16610	96.55524
48650.00000	96.72438	-1861.71649	96.72438
48700.00000	97.04496	-1871.02397	97.04496
48750.00000	96.81590	-2225.92599	96.81590
48800.00000	96.79689	-2234.64114	96.79689
48850.00000	96.99985	-2233.92927	96.99985
48900.00000	96.39883	-2589.94954	96.39883
48950.00000	97.05916	-2605.82143	97.05916
49000.00000	97.96204	-2609.17861	97.96204
49050.00000	97.43062	-2612.41576	97.43062
49100.00000	98.01857	-2972.27971	98.01857
49150.00000	99.39918	-3330.90069	99.39918
49200.00000	98.68486	-3346.54929	98.68486
49250.00000	98.18740	-3694.19051	98.18740
49300.00000	98.72419	-3352.63385	98.72419
49350.00000	96.57839	-3337.50912	96.57839
49400.00000	97.33209	-2992.67511	97.33209
49450.00000	96.50243	-2637.87466	96.50243
49500.00000	97.21432	-2292.02417	97.21432
49550.00000	97.15746	-1937.67498	97.15746
49600.00000	95.81398	-1935.32166	95.81398
49650.00000	95.37958	-1936.79652	95.37958
49700.00000	94.59049	-1610.30064	94.59049
49750.00000	95.16919	-1600.32294	95.16919
49800.00000	92.35019	-1594.41203	92.35019
49850.00000	89.39218	-1582.76268	89.39218
49900.00000	84.83611	-1225.49989	84.83611
49950.00000	84.95511	-932.62183	84.95511
