---ACOUSTIC CALIBRATION---
Filename: C:\Data\AZH DATA\AZH52\RightPrimary.calib
Date: 8/27/2019 11:39:45 AM
Format: 4
Probe Tube Correction File: C:\Data\Probe Tube Calibrations\50_ProbeTube.calib
Experiment VIs: 850
EPL_CFTS.exe V12.0.1 (2012)
DAQmx V9.6

Attenuation (dB): 40.000000
Min Freq (Hz): 50.000000
Max Freq (Hz): 49950.000000
Freq Step (Hz): 50.000000
Sample Rate (Hz): 100000.000000
[Smoothing]
Method=None
MA.Iterations=0
MA.Length=0
Loess.Length=0
Loess.Type=Linear
Loess.Robust=FALSE


Freq(Hz)	Mag(dB)	Phase(deg)	Unsmoothed(dB)

50.00000	104.93625	411.56267	104.93625
100.00000	72.43519	476.96346	72.43519
150.00000	85.00584	493.49746	85.00584
200.00000	81.40107	477.90474	81.40107
250.00000	92.70366	439.13331	92.70366
300.00000	96.07761	402.06215	96.07761
350.00000	87.70570	400.19786	87.70570
400.00000	88.79859	383.75631	88.79859
450.00000	89.89228	372.66469	89.89228
500.00000	94.13683	364.79138	94.13683
550.00000	95.04071	371.27081	95.04071
600.00000	97.77601	365.34296	97.77601
650.00000	100.26445	348.02939	100.26445
700.00000	102.50240	332.49059	102.50240
750.00000	104.29267	316.11184	104.29267
800.00000	105.06620	289.61931	105.06620
850.00000	104.23933	274.49428	104.23933
900.00000	102.29482	256.65636	102.29482
950.00000	100.68907	255.98873	100.68907
1000.00000	99.28344	256.39660	99.28344
1050.00000	97.23895	272.15250	97.23895
1100.00000	99.11443	293.95659	99.11443
1150.00000	101.84423	299.09323	101.84423
1200.00000	104.69514	297.79455	104.69514
1250.00000	106.32155	290.54044	106.32155
1300.00000	108.07630	284.61060	108.07630
1350.00000	109.30092	275.12782	109.30092
1400.00000	110.33644	268.52424	110.33644
1450.00000	111.31512	260.90316	111.31512
1500.00000	112.71908	255.61510	112.71908
1550.00000	113.21492	244.57420	113.21492
1600.00000	114.53589	235.02250	114.53589
1650.00000	115.59132	217.95554	115.59132
1700.00000	114.29820	208.33560	114.29820
1750.00000	114.12601	202.46307	114.12601
1800.00000	113.85450	197.75989	113.85450
1850.00000	114.06142	197.03724	114.06142
1900.00000	115.23261	191.78996	115.23261
1950.00000	115.84260	178.04416	115.84260
2000.00000	114.80059	165.94807	114.80059
2050.00000	113.46210	171.23395	113.46210
2100.00000	115.46241	171.31324	115.46241
2150.00000	115.96950	158.55166	115.96950
2200.00000	115.85093	148.47342	115.85093
2250.00000	115.19246	141.25737	115.19246
2300.00000	115.23829	135.84820	115.23829
2350.00000	114.93220	129.24830	114.93220
2400.00000	114.62135	123.92912	114.62135
2450.00000	114.28385	117.41318	114.28385
2500.00000	113.85556	112.79666	113.85556
2550.00000	113.37319	107.25411	113.37319
2600.00000	112.78318	103.24969	112.78318
2650.00000	112.30387	99.63245	112.30387
2700.00000	111.64065	96.39250	111.64065
2750.00000	111.07114	92.68048	111.07114
2800.00000	110.36799	90.34147	110.36799
2850.00000	109.68257	88.83216	109.68257
2900.00000	108.94023	87.71925	108.94023
2950.00000	108.09050	88.04352	108.09050
3000.00000	107.22662	89.07664	107.22662
3050.00000	106.22920	92.01497	106.22920
3100.00000	105.50902	97.41262	105.50902
3150.00000	104.85407	105.32218	104.85407
3200.00000	104.69934	117.33687	104.69934
3250.00000	105.35797	128.28786	105.35797
3300.00000	106.47525	136.82878	106.47525
3350.00000	108.01402	144.87716	108.01402
3400.00000	110.02355	150.49881	110.02355
3450.00000	112.15988	150.92401	112.15988
3500.00000	114.30425	147.67595	114.30425
3550.00000	115.94806	141.88871	115.94806
3600.00000	117.42547	135.92229	117.42547
3650.00000	118.65775	128.68161	118.65775
3700.00000	119.77808	121.51618	119.77808
3750.00000	120.79062	113.45784	120.79062
3800.00000	121.60469	104.92318	121.60469
3850.00000	122.19929	96.74382	122.19929
3900.00000	122.76959	89.46032	122.76959
3950.00000	123.33322	82.10057	123.33322
4000.00000	123.87651	74.63080	123.87651
4050.00000	124.41422	67.19043	124.41422
4100.00000	124.97329	59.45890	124.97329
4150.00000	125.69371	50.90181	125.69371
4200.00000	126.07427	40.92321	126.07427
4250.00000	126.40554	30.45578	126.40554
4300.00000	126.52355	19.59740	126.52355
4350.00000	126.41537	 8.86354	126.41537
4400.00000	126.13753	-0.99258	126.13753
4450.00000	125.77018	-10.18664	125.77018
4500.00000	125.36347	-18.58065	125.36347
4550.00000	124.93468	-26.77462	124.93468
4600.00000	124.44763	-34.58484	124.44763
4650.00000	123.97214	-42.09782	123.97214
4700.00000	123.42922	-49.94965	123.42922
4750.00000	122.72213	-57.87114	122.72213
4800.00000	121.82112	-65.38470	121.82112
4850.00000	120.70053	-71.54008	120.70053
4900.00000	119.47835	-75.70150	119.47835
4950.00000	118.31024	-77.65594	118.31024
5000.00000	117.26344	-78.04092	117.26344
5050.00000	116.37800	-77.92009	116.37800
5100.00000	115.45289	-74.27966	115.45289
5150.00000	115.58423	-70.19464	115.58423
5200.00000	115.31707	-65.82566	115.31707
5250.00000	117.00823	-63.40265	117.00823
5300.00000	117.70513	-74.14922	117.70513
5350.00000	117.26754	-81.52783	117.26754
5400.00000	116.76417	-85.43586	116.76417
5450.00000	116.38072	-88.00190	116.38072
5500.00000	116.10551	-90.35536	116.10551
5550.00000	115.88080	-92.62133	115.88080
5600.00000	115.69502	-94.75777	115.69502
5650.00000	115.53411	-96.92933	115.53411
5700.00000	115.39411	-99.29859	115.39411
5750.00000	115.29082	-101.32888	115.29082
5800.00000	115.18531	-103.43780	115.18531
5850.00000	115.14264	-105.63493	115.14264
5900.00000	115.12375	-107.96647	115.12375
5950.00000	115.14121	-110.45843	115.14121
6000.00000	115.16460	-113.24713	115.16460
6050.00000	115.15180	-116.36784	115.15180
6100.00000	115.12173	-119.64794	115.12173
6150.00000	115.06555	-122.88236	115.06555
6200.00000	114.97276	-126.13171	114.97276
6250.00000	114.87846	-129.33345	114.87846
6300.00000	114.79722	-132.45144	114.79722
6350.00000	114.68566	-135.65842	114.68566
6400.00000	114.58676	-138.72792	114.58676
6450.00000	114.51612	-141.94411	114.51612
6500.00000	114.40245	-145.14670	114.40245
6550.00000	114.29282	-148.26387	114.29282
6600.00000	114.18347	-151.44813	114.18347
6650.00000	114.09200	-154.55011	114.09200
6700.00000	114.00741	-157.92785	114.00741
6750.00000	113.89979	-161.29535	113.89979
6800.00000	113.80429	-164.53514	113.80429
6850.00000	113.70263	-167.92195	113.70263
6900.00000	113.57661	-171.31607	113.57661
6950.00000	113.47159	-174.67675	113.47159
7000.00000	113.35387	-178.28243	113.35387
7050.00000	113.21100	-181.96310	113.21100
7100.00000	113.08876	-185.72980	113.08876
7150.00000	112.92516	-189.35303	112.92516
7200.00000	112.74607	-193.22764	112.74607
7250.00000	112.51949	-197.19180	112.51949
7300.00000	112.31451	-201.04389	112.31451
7350.00000	112.05229	-204.84403	112.05229
7400.00000	111.78274	-208.75071	111.78274
7450.00000	111.48024	-212.68979	111.48024
7500.00000	111.14675	-216.53078	111.14675
7550.00000	110.77806	-220.00781	110.77806
7600.00000	110.36293	-223.58979	110.36293
7650.00000	109.94345	-226.98974	109.94345
7700.00000	109.53216	-230.31905	109.53216
7750.00000	109.03282	-233.42640	109.03282
7800.00000	108.56405	-236.39717	108.56405
7850.00000	108.09042	-238.77555	108.09042
7900.00000	107.65685	-241.06161	107.65685
7950.00000	107.23557	-243.08739	107.23557
8000.00000	106.80474	-244.81696	106.80474
8050.00000	106.42481	-246.60880	106.42481
8100.00000	106.04858	-246.87497	106.04858
8150.00000	105.63729	-248.19710	105.63729
8200.00000	105.28373	-248.38469	105.28373
8250.00000	104.91981	-248.92639	104.91981
8300.00000	104.55652	-249.23893	104.55652
8350.00000	104.18562	-249.43946	104.18562
8400.00000	103.79372	-250.41989	103.79372
8450.00000	103.37640	-251.24815	103.37640
8500.00000	103.03008	-252.31706	103.03008
8550.00000	102.77356	-253.62351	102.77356
8600.00000	102.55653	-255.60303	102.55653
8650.00000	102.37929	-257.19513	102.37929
8700.00000	102.31848	-259.61655	102.31848
8750.00000	102.23806	-259.88583	102.23806
8800.00000	102.25017	-261.48907	102.25017
8850.00000	102.20877	-262.19466	102.20877
8900.00000	102.17357	-262.40513	102.17357
8950.00000	102.07194	-262.65818	102.07194
9000.00000	101.80727	-262.62690	101.80727
9050.00000	101.60460	-263.04487	101.60460
9100.00000	101.33374	-263.64082	101.33374
9150.00000	101.01253	-264.84519	101.01253
9200.00000	100.76316	-266.37789	100.76316
9250.00000	100.47342	-268.45452	100.47342
9300.00000	100.26132	-271.19017	100.26132
9350.00000	100.32174	-273.40419	100.32174
9400.00000	100.25557	-274.98971	100.25557
9450.00000	100.36116	-276.02603	100.36116
9500.00000	100.54280	-275.88089	100.54280
9550.00000	100.75557	-275.52366	100.75557
9600.00000	100.88725	-276.38253	100.88725
9650.00000	100.85906	-276.93512	100.85906
9700.00000	100.73201	-276.89039	100.73201
9750.00000	100.62904	-278.41476	100.62904
9800.00000	100.40890	-279.47281	100.40890
9850.00000	100.26487	-280.93024	100.26487
9900.00000	100.10997	-283.24991	100.10997
9950.00000	100.10171	-285.34137	100.10171
10000.00000	100.16972	-288.03213	100.16972
10050.00000	100.27142	-289.68988	100.27142
10100.00000	100.37944	-290.98456	100.37944
10150.00000	100.38873	-292.61050	100.38873
10200.00000	100.41121	-293.81966	100.41121
10250.00000	100.32678	-295.25728	100.32678
10300.00000	100.31773	-297.03746	100.31773
10350.00000	100.16773	-298.98744	100.16773
10400.00000	99.97700	-301.72041	99.97700
10450.00000	100.00501	-304.93198	100.00501
10500.00000	99.98669	-307.87550	99.98669
10550.00000	100.04523	-311.15450	100.04523
10600.00000	100.09397	-313.64308	100.09397
10650.00000	100.07532	-315.70469	100.07532
10700.00000	100.07098	-318.59436	100.07098
10750.00000	100.02011	-320.89112	100.02011
10800.00000	99.80307	-323.01880	99.80307
10850.00000	99.61593	-326.22900	99.61593
10900.00000	99.41056	-328.72858	99.41056
10950.00000	99.21036	-331.25300	99.21036
11000.00000	99.02446	-334.06930	99.02446
11050.00000	98.72089	-336.81501	98.72089
11100.00000	98.50470	-339.65581	98.50470
11150.00000	98.20513	-341.66204	98.20513
11200.00000	97.98401	-343.59098	97.98401
11250.00000	97.66001	-345.79606	97.66001
11300.00000	97.26939	-347.84186	97.26939
11350.00000	96.94080	-349.32897	96.94080
11400.00000	96.48775	-351.27450	96.48775
11450.00000	96.21458	-353.32158	96.21458
11500.00000	96.01937	-354.16202	96.01937
11550.00000	95.64358	-355.02783	95.64358
11600.00000	95.44836	-356.72438	95.44836
11650.00000	95.14845	-356.57423	95.14845
11700.00000	94.93002	-357.21297	94.93002
11750.00000	94.73410	-358.18166	94.73410
11800.00000	94.50857	-359.19483	94.50857
11850.00000	94.36975	-359.07102	94.36975
11900.00000	94.04533	-360.49815	94.04533
11950.00000	93.92670	-360.40851	93.92670
12000.00000	93.72381	-360.06361	93.72381
12050.00000	93.48369	-360.28753	93.48369
12100.00000	93.34883	-361.57214	93.34883
12150.00000	93.14513	-362.24203	93.14513
12200.00000	93.13915	-363.60718	93.13915
12250.00000	92.99503	-364.42180	92.99503
12300.00000	94.09535	-365.82476	94.09535
12350.00000	92.96736	-366.22924	92.96736
12400.00000	92.87241	-366.17389	92.87241
12450.00000	92.76557	-366.36798	92.76557
12500.00000	92.62169	-367.63483	92.62169
12550.00000	92.43791	-368.18226	92.43791
12600.00000	92.12011	-370.18963	92.12011
12650.00000	92.20237	-371.69697	92.20237
12700.00000	92.04399	-373.01625	92.04399
12750.00000	91.92790	-374.68071	91.92790
12800.00000	91.77145	-375.46474	91.77145
12850.00000	91.29791	-375.61152	91.29791
12900.00000	91.12632	-376.69695	91.12632
12950.00000	90.87361	-376.97655	90.87361
13000.00000	90.66872	-378.94001	90.66872
13050.00000	90.52941	-378.60499	90.52941
13100.00000	90.09374	-379.72077	90.09374
13150.00000	89.98098	-380.17057	89.98098
13200.00000	89.76832	-379.08529	89.76832
13250.00000	89.59198	-378.74162	89.59198
13300.00000	89.26671	-376.01898	89.26671
13350.00000	89.00235	-375.99696	89.00235
13400.00000	88.93483	-375.67642	88.93483
13450.00000	88.60087	-373.91246	88.60087
13500.00000	88.71374	-373.01531	88.71374
13550.00000	88.36398	-371.38518	88.36398
13600.00000	88.52591	-370.51168	88.52591
13650.00000	88.36628	-367.81980	88.36628
13700.00000	88.22403	-366.65479	88.22403
13750.00000	87.97524	-365.07136	87.97524
13800.00000	88.01891	-365.65059	88.01891
13850.00000	87.88823	-366.11320	87.88823
13900.00000	87.98236	-364.27076	87.98236
13950.00000	88.35950	-363.33760	88.35950
14000.00000	88.85719	-359.75092	88.85719
14050.00000	88.94902	-357.14651	88.94902
14100.00000	88.89889	-355.59245	88.89889
14150.00000	89.20271	-353.54301	89.20271
14200.00000	89.32799	-353.34021	89.32799
14250.00000	89.98256	-351.34966	89.98256
14300.00000	90.30299	-350.45572	90.30299
14350.00000	90.69616	-348.43643	90.69616
14400.00000	90.76636	-347.34656	90.76636
14450.00000	91.09159	-345.20294	91.09159
14500.00000	91.48194	-345.27506	91.48194
14550.00000	91.89778	-344.31636	91.89778
14600.00000	92.11714	-345.12872	92.11714
14650.00000	92.92098	-343.76651	92.92098
14700.00000	93.39866	-346.75831	93.39866
14750.00000	93.86311	-346.43381	93.86311
14800.00000	94.27414	-345.94605	94.27414
14850.00000	94.97840	-346.10247	94.97840
14900.00000	95.47560	-346.36548	95.47560
14950.00000	95.94121	-347.45807	95.94121
15000.00000	96.50557	-348.94310	96.50557
15050.00000	96.94257	-348.63556	96.94257
15100.00000	97.59277	-349.52077	97.59277
15150.00000	98.29571	-351.63559	98.29571
15200.00000	98.72348	-351.00247	98.72348
15250.00000	99.02636	-353.99072	99.02636
15300.00000	99.73073	-356.54186	99.73073
15350.00000	100.22180	-359.81274	100.22180
15400.00000	100.67082	-361.26749	100.67082
15450.00000	101.22725	-364.32431	101.22725
15500.00000	101.78296	-366.92690	101.78296
15550.00000	102.28274	-369.79207	102.28274
15600.00000	102.65306	-373.28397	102.65306
15650.00000	103.25285	-374.69779	103.25285
15700.00000	103.46934	-379.52731	103.46934
15750.00000	104.01856	-382.69292	104.01856
15800.00000	104.43715	-385.48256	104.43715
15850.00000	104.77933	-388.92048	104.77933
15900.00000	104.96911	-393.07563	104.96911
15950.00000	105.37718	-396.59816	105.37718
16000.00000	105.64783	-400.34164	105.64783
16050.00000	105.99495	-404.01274	105.99495
16100.00000	106.09355	-408.17438	106.09355
16150.00000	106.26669	-411.71114	106.26669
16200.00000	106.46232	-416.04941	106.46232
16250.00000	106.66515	-419.42383	106.66515
16300.00000	106.95086	-423.07717	106.95086
16350.00000	107.06936	-426.64706	107.06936
16400.00000	107.21724	-429.67781	107.21724
16450.00000	107.33224	-432.92787	107.33224
16500.00000	107.47106	-436.06875	107.47106
16550.00000	107.61198	-440.33227	107.61198
16600.00000	107.74363	-443.32883	107.74363
16650.00000	107.79230	-446.65110	107.79230
16700.00000	107.94939	-449.58104	107.94939
16750.00000	107.95347	-453.26281	107.95347
16800.00000	108.09663	-456.84367	108.09663
16850.00000	108.26928	-459.96060	108.26928
16900.00000	108.37056	-463.24971	108.37056
16950.00000	108.47558	-466.47116	108.47558
17000.00000	108.41687	-469.82261	108.41687
17050.00000	108.55676	-472.35280	108.55676
17100.00000	108.60236	-475.00034	108.60236
17150.00000	108.77239	-478.34958	108.77239
17200.00000	108.84731	-481.43574	108.84731
17250.00000	108.89072	-485.06989	108.89072
17300.00000	109.01943	-488.04346	109.01943
17350.00000	108.97408	-490.95796	108.97408
17400.00000	109.12765	-494.02025	109.12765
17450.00000	109.13349	-497.63972	109.13349
17500.00000	109.24493	-500.89982	109.24493
17550.00000	109.31355	-504.00303	109.31355
17600.00000	109.46598	-506.80897	109.46598
17650.00000	109.48117	-510.90261	109.48117
17700.00000	109.42202	-514.43488	109.42202
17750.00000	109.69476	-516.91339	109.69476
17800.00000	109.62633	-521.09542	109.62633
17850.00000	109.68607	-524.04552	109.68607
17900.00000	109.67989	-527.55252	109.67989
17950.00000	109.78980	-531.24656	109.78980
18000.00000	109.76743	-535.31535	109.76743
18050.00000	109.92691	-538.32451	109.92691
18100.00000	109.83035	-542.33990	109.83035
18150.00000	109.80169	-545.31919	109.80169
18200.00000	109.72256	-549.62407	109.72256
18250.00000	109.75229	-552.35249	109.75229
18300.00000	109.67986	-555.76550	109.67986
18350.00000	109.68413	-559.26814	109.68413
18400.00000	109.55866	-562.91461	109.55866
18450.00000	109.44234	-567.68920	109.44234
18500.00000	109.38703	-570.84863	109.38703
18550.00000	109.26516	-573.71349	109.26516
18600.00000	109.26563	-577.42374	109.26563
18650.00000	109.00838	-580.33957	109.00838
18700.00000	108.86787	-584.13786	108.86787
18750.00000	108.78426	-587.17803	108.78426
18800.00000	108.75654	-589.76821	108.75654
18850.00000	108.48883	-592.86951	108.48883
18900.00000	108.26072	-595.88011	108.26072
18950.00000	108.21968	-599.13096	108.21968
19000.00000	107.93679	-601.44472	107.93679
19050.00000	107.92996	-604.28518	107.92996
19100.00000	107.74103	-606.73890	107.74103
19150.00000	107.71627	-609.38299	107.71627
19200.00000	107.55641	-611.52491	107.55641
19250.00000	107.43759	-615.19481	107.43759
19300.00000	107.23441	-616.98721	107.23441
19350.00000	107.13602	-619.57712	107.13602
19400.00000	106.98068	-621.82014	106.98068
19450.00000	106.95406	-623.83052	106.95406
19500.00000	106.76066	-627.41349	106.76066
19550.00000	106.68366	-629.29098	106.68366
19600.00000	106.64506	-632.24567	106.64506
19650.00000	106.47258	-634.23370	106.47258
19700.00000	106.26997	-636.83459	106.26997
19750.00000	106.15821	-638.70935	106.15821
19800.00000	106.15309	-641.97712	106.15309
19850.00000	106.06044	-644.05554	106.06044
19900.00000	105.88593	-647.23023	105.88593
19950.00000	105.75458	-649.43257	105.75458
20000.00000	105.64157	-651.90163	105.64157
20050.00000	105.52567	-654.29328	105.52567
20100.00000	105.35675	-656.49597	105.35675
20150.00000	105.26413	-658.23447	105.26413
20200.00000	105.09570	-661.42348	105.09570
20250.00000	104.90106	-663.58762	104.90106
20300.00000	104.69152	-665.89972	104.69152
20350.00000	104.59680	-668.20013	104.59680
20400.00000	104.35361	-669.61737	104.35361
20450.00000	104.11401	-671.82400	104.11401
20500.00000	104.00632	-674.04529	104.00632
20550.00000	103.58678	-675.23823	103.58678
20600.00000	103.49450	-676.76329	103.49450
20650.00000	103.29452	-678.29481	103.29452
20700.00000	103.04054	-679.64885	103.04054
20750.00000	102.95286	-680.77668	102.95286
20800.00000	102.72915	-681.44973	102.72915
20850.00000	102.64821	-682.48327	102.64821
20900.00000	102.44211	-683.29690	102.44211
20950.00000	102.32608	-683.51725	102.32608
21000.00000	102.25249	-683.93538	102.25249
21050.00000	102.33341	-683.98995	102.33341
21100.00000	102.29203	-684.15706	102.29203
21150.00000	102.40081	-684.99544	102.40081
21200.00000	102.50629	-685.33462	102.50629
21250.00000	102.59530	-687.26983	102.59530
21300.00000	102.75816	-687.71765	102.75816
21350.00000	102.85907	-688.92512	102.85907
21400.00000	102.97376	-690.86555	102.97376
21450.00000	103.12630	-692.59594	103.12630
21500.00000	103.23859	-694.78035	103.23859
21550.00000	103.23366	-696.42845	103.23366
21600.00000	103.37154	-698.76247	103.37154
21650.00000	103.39479	-701.02441	103.39479
21700.00000	103.43777	-703.13956	103.43777
21750.00000	103.47702	-705.29137	103.47702
21800.00000	103.45971	-707.60201	103.45971
21850.00000	103.39678	-709.65035	103.39678
21900.00000	103.40517	-711.80812	103.40517
21950.00000	103.36471	-713.64700	103.36471
22000.00000	103.37971	-715.36898	103.37971
22050.00000	103.33441	-717.13534	103.33441
22100.00000	103.27800	-719.02339	103.27800
22150.00000	103.21320	-720.75438	103.21320
22200.00000	103.26180	-722.74631	103.26180
22250.00000	103.17880	-723.92236	103.17880
22300.00000	103.05332	-725.81793	103.05332
22350.00000	103.16147	-727.71628	103.16147
22400.00000	103.18669	-729.52699	103.18669
22450.00000	103.10641	-731.17282	103.10641
22500.00000	103.01150	-731.69559	103.01150
22550.00000	103.00566	-733.71823	103.00566
22600.00000	103.00063	-736.53089	103.00063
22650.00000	102.99031	-737.79642	102.99031
22700.00000	102.97454	-739.13056	102.97454
22750.00000	102.94011	-739.16192	102.94011
22800.00000	102.89501	-742.78037	102.89501
22850.00000	103.01245	-745.06376	103.01245
22900.00000	102.88955	-745.44594	102.88955
22950.00000	103.01421	-747.15337	103.01421
23000.00000	102.91606	-748.18029	102.91606
23050.00000	102.86529	-750.71620	102.86529
23100.00000	102.98291	-751.13476	102.98291
23150.00000	102.83139	-752.02255	102.83139
23200.00000	102.94390	-754.83474	102.94390
23250.00000	102.79269	-757.67072	102.79269
23300.00000	103.07127	-758.99269	103.07127
23350.00000	102.84028	-760.72477	102.84028
23400.00000	102.70510	-762.12259	102.70510
23450.00000	102.87435	-763.86311	102.87435
23500.00000	102.76501	-764.80819	102.76501
23550.00000	102.73750	-765.14213	102.73750
23600.00000	102.67824	-768.46757	102.67824
23650.00000	102.79410	-769.37300	102.79410
23700.00000	103.02859	-773.04248	103.02859
23750.00000	102.86680	-773.65003	102.86680
23800.00000	102.69343	-773.69333	102.69343
23850.00000	102.81551	-774.55198	102.81551
23900.00000	103.26167	-777.14752	103.26167
23950.00000	102.88820	-779.29805	102.88820
24000.00000	102.93109	-782.21176	102.93109
24050.00000	103.00240	-782.15262	103.00240
24100.00000	103.30110	-784.97008	103.30110
24150.00000	103.30507	-786.51402	103.30507
24200.00000	103.39535	-789.94848	103.39535
24250.00000	103.02923	-790.09269	103.02923
24300.00000	103.61847	-791.74775	103.61847
24350.00000	103.43726	-794.09898	103.43726
24400.00000	103.40870	-797.04763	103.40870
24450.00000	103.21675	-799.03729	103.21675
24500.00000	103.73954	-800.21585	103.73954
24550.00000	103.61582	-804.40261	103.61582
24600.00000	104.15142	-805.12149	104.15142
24650.00000	103.85688	-449.44498	103.85688
24700.00000	103.82353	-89.59183	103.82353
24750.00000	103.90879	266.31932	103.90879
24800.00000	104.00467	623.93630	104.00467
24850.00000	103.77593	982.69913	103.77593
24900.00000	103.99283	1341.73732	103.99283
24950.00000	104.08977	1696.87872	104.08977
25000.00000	104.15660	1689.85794	104.15660
25050.00000	104.06650	1688.15445	104.06650
25100.00000	103.86285	1686.77609	103.86285
25150.00000	104.18844	1685.80839	104.18844
25200.00000	103.95421	1681.10796	103.95421
25250.00000	104.14173	1680.06633	104.14173
25300.00000	104.26257	1678.02124	104.26257
25350.00000	104.09172	1671.52746	104.09172
25400.00000	104.11521	1667.66816	104.11521
25450.00000	104.11316	1665.77685	104.11316
25500.00000	103.93445	1663.78926	103.93445
25550.00000	103.86136	1660.13396	103.86136
25600.00000	103.90525	1657.72301	103.90525
25650.00000	103.73377	1656.53772	103.73377
25700.00000	103.73962	1653.01381	103.73962
25750.00000	103.55533	1649.67783	103.55533
25800.00000	103.40700	1646.73868	103.40700
25850.00000	103.38814	1643.85860	103.38814
25900.00000	103.28109	1640.11221	103.28109
25950.00000	103.03048	1641.34214	103.03048
26000.00000	103.03282	1636.70186	103.03282
26050.00000	103.01932	1634.54383	103.01932
26100.00000	102.84545	1631.40439	102.84545
26150.00000	102.75503	1630.14578	102.75503
26200.00000	102.82846	1627.86223	102.82846
26250.00000	102.51296	1625.65714	102.51296
26300.00000	102.57911	1622.45507	102.57911
26350.00000	102.19854	1621.63195	102.19854
26400.00000	102.18831	1619.71868	102.18831
26450.00000	102.37905	1616.60966	102.37905
26500.00000	102.13091	1614.70099	102.13091
26550.00000	101.99751	1609.23134	101.99751
26600.00000	101.86387	1607.52537	101.86387
26650.00000	101.92640	1608.79737	101.92640
26700.00000	101.83592	1604.93222	101.83592
26750.00000	101.55280	1603.01922	101.55280
26800.00000	101.56807	1598.63986	101.56807
26850.00000	101.67764	1598.60267	101.67764
26900.00000	101.70148	1597.71906	101.70148
26950.00000	101.76680	1594.61856	101.76680
27000.00000	101.44075	1593.77998	101.44075
27050.00000	101.60315	1590.38079	101.60315
27100.00000	101.31015	1590.33997	101.31015
27150.00000	101.30409	1586.50719	101.30409
27200.00000	101.42108	1584.91479	101.42108
27250.00000	101.01905	1583.96721	101.01905
27300.00000	100.91438	1581.74884	100.91438
27350.00000	101.07608	1581.42083	101.07608
27400.00000	100.62112	1578.39359	100.62112
27450.00000	100.58946	1577.15509	100.58946
27500.00000	100.59829	1574.81049	100.59829
27550.00000	100.60633	1573.80059	100.60633
27600.00000	100.84627	1570.35190	100.84627
27650.00000	100.39095	1570.96781	100.39095
27700.00000	100.47043	1566.00285	100.47043
27750.00000	100.35249	1564.15199	100.35249
27800.00000	100.53684	1561.72235	100.53684
27850.00000	100.75007	1563.86687	100.75007
27900.00000	100.49297	1561.54243	100.49297
27950.00000	99.64092	1560.14889	99.64092
28000.00000	99.81562	1559.13188	99.81562
28050.00000	100.48892	1556.84292	100.48892
28100.00000	99.91491	1555.74820	99.91491
28150.00000	99.94467	1555.31553	99.94467
28200.00000	100.20006	1550.87271	100.20006
28250.00000	99.85477	1548.89264	99.85477
28300.00000	99.63452	1549.35296	99.63452
28350.00000	99.89536	1548.97466	99.89536
28400.00000	99.86493	1549.19029	99.86493
28450.00000	100.49313	1545.50710	100.49313
28500.00000	100.17240	1546.75899	100.17240
28550.00000	100.04443	1546.82302	100.04443
28600.00000	100.17952	1544.52838	100.17952
28650.00000	100.50278	1540.06827	100.50278
28700.00000	100.44783	1541.60975	100.44783
28750.00000	101.16426	1540.93305	101.16426
28800.00000	101.04693	1538.11518	101.04693
28850.00000	100.42047	1533.77267	100.42047
28900.00000	100.71945	1532.60741	100.71945
28950.00000	100.78385	1532.43495	100.78385
29000.00000	100.95686	1530.86035	100.95686
29050.00000	100.78589	1530.44509	100.78589
29100.00000	101.16825	1528.71741	101.16825
29150.00000	100.85105	1527.90018	100.85105
29200.00000	100.65486	1524.30593	100.65486
29250.00000	101.22796	1523.26399	101.22796
29300.00000	100.91615	1520.88913	100.91615
29350.00000	101.26685	1517.94798	101.26685
29400.00000	101.25643	1517.00760	101.25643
29450.00000	101.05414	1514.80592	101.05414
29500.00000	101.51052	1513.64093	101.51052
29550.00000	101.09628	1509.17255	101.09628
29600.00000	100.96483	1509.61936	100.96483
29650.00000	101.18004	1506.84085	101.18004
29700.00000	101.04022	1508.25833	101.04022
29750.00000	100.90966	1506.33830	100.90966
29800.00000	100.65728	1503.37039	100.65728
29850.00000	100.82058	1500.73581	100.82058
29900.00000	100.90373	1502.01442	100.90373
29950.00000	100.15311	1500.98386	100.15311
30000.00000	100.51481	1500.47478	100.51481
30050.00000	100.52790	1498.75665	100.52790
30100.00000	100.23472	1499.82506	100.23472
30150.00000	100.35275	1495.94076	100.35275
30200.00000	100.36414	1494.96108	100.36414
30250.00000	100.10717	1494.92887	100.10717
30300.00000	99.70938	1496.80047	99.70938
30350.00000	99.96095	1497.13981	99.96095
30400.00000	99.87503	1494.38712	99.87503
30450.00000	99.51685	1495.19703	99.51685
30500.00000	99.56953	1494.15830	99.56953
30550.00000	99.53054	1495.87382	99.53054
30600.00000	99.57197	1496.39332	99.57197
30650.00000	99.59875	1497.03410	99.59875
30700.00000	99.69001	1496.58711	99.69001
30750.00000	99.59993	1498.50326	99.59993
30800.00000	99.74919	1498.82327	99.74919
30850.00000	100.04954	1500.89471	100.04954
30900.00000	99.97282	1502.30440	99.97282
30950.00000	100.42342	1501.70608	100.42342
31000.00000	100.75998	1501.89926	100.75998
31050.00000	101.11153	1502.71853	101.11153
31100.00000	101.59935	1503.62589	101.59935
31150.00000	101.64116	1503.18837	101.64116
31200.00000	102.41499	1502.40351	102.41499
31250.00000	102.72524	1501.91143	102.72524
31300.00000	103.21215	1500.72719	103.21215
31350.00000	103.70223	1499.58608	103.70223
31400.00000	103.99554	1497.35347	103.99554
31450.00000	104.46225	1495.46779	104.46225
31500.00000	104.76556	1492.20630	104.76556
31550.00000	105.23877	1490.66317	105.23877
31600.00000	105.73236	1486.76715	105.73236
31650.00000	105.99347	1483.95274	105.99347
31700.00000	106.33943	1481.58826	106.33943
31750.00000	106.71318	1479.68494	106.71318
31800.00000	106.85743	1475.78107	106.85743
31850.00000	107.25415	1471.67309	107.25415
31900.00000	107.29490	1469.06981	107.29490
31950.00000	107.59033	1465.70750	107.59033
32000.00000	107.83781	1462.63932	107.83781
32050.00000	108.07026	1459.60553	108.07026
32100.00000	108.16315	1455.74494	108.16315
32150.00000	108.38391	1453.03407	108.38391
32200.00000	108.56003	1449.01134	108.56003
32250.00000	108.72139	1445.30773	108.72139
32300.00000	108.75605	1442.48034	108.75605
32350.00000	108.84012	1439.31288	108.84012
32400.00000	109.07252	1437.12488	109.07252
32450.00000	109.09100	1432.99068	109.09100
32500.00000	109.27337	1430.31368	109.27337
32550.00000	109.36901	1426.34573	109.36901
32600.00000	109.46152	1423.66751	109.46152
32650.00000	109.65430	1420.35615	109.65430
32700.00000	109.59701	1417.19402	109.59701
32750.00000	109.70919	1413.61150	109.70919
32800.00000	109.94006	1410.96721	109.94006
32850.00000	110.04918	1408.04956	110.04918
32900.00000	110.04440	1403.01275	110.04440
32950.00000	109.99308	1399.43859	109.99308
33000.00000	110.04809	1398.00990	110.04809
33050.00000	110.04958	1393.85389	110.04958
33100.00000	110.15539	1391.14449	110.15539
33150.00000	110.33019	1388.21979	110.33019
33200.00000	110.50563	1386.11156	110.50563
33250.00000	110.34441	1383.16912	110.34441
33300.00000	110.43846	1379.17351	110.43846
33350.00000	110.39742	1376.28250	110.39742
33400.00000	110.42504	1374.55870	110.42504
33450.00000	110.47693	1370.17058	110.47693
33500.00000	110.70746	1369.04080	110.70746
33550.00000	110.45170	1364.73254	110.45170
33600.00000	110.68744	1362.53812	110.68744
33650.00000	110.77098	1359.29555	110.77098
33700.00000	110.71841	1356.65201	110.71841
33750.00000	110.58503	1354.00949	110.58503
33800.00000	110.79818	1351.03825	110.79818
33850.00000	110.56331	1348.65193	110.56331
33900.00000	110.74103	1345.30273	110.74103
33950.00000	110.77808	1343.45568	110.77808
34000.00000	110.86606	1340.32598	110.86606
34050.00000	110.76753	1337.97906	110.76753
34100.00000	110.74739	1335.97342	110.74739
34150.00000	110.88756	1332.70499	110.88756
34200.00000	110.90433	1331.63293	110.90433
34250.00000	110.84709	1327.96359	110.84709
34300.00000	110.84093	1326.14309	110.84093
34350.00000	111.03961	1322.99919	111.03961
34400.00000	110.79250	1323.34844	110.79250
34450.00000	111.05988	1318.18431	111.05988
34500.00000	111.03073	1317.04297	111.03073
34550.00000	111.07924	1314.02704	111.07924
34600.00000	110.78782	1311.53887	110.78782
34650.00000	111.13700	1310.70875	111.13700
34700.00000	110.68011	1310.00307	110.68011
34750.00000	111.01667	1304.33225	111.01667
34800.00000	111.12033	1305.21197	111.12033
34850.00000	111.29431	1305.26676	111.29431
34900.00000	111.51065	1301.10365	111.51065
34950.00000	111.40001	1300.25756	111.40001
35000.00000	111.45699	1297.76443	111.45699
35050.00000	111.65664	1297.19238	111.65664
35100.00000	111.91612	1293.52005	111.91612
35150.00000	111.68529	1293.30707	111.68529
35200.00000	111.82841	1289.85231	111.82841
35250.00000	111.94673	1288.23463	111.94673
35300.00000	112.21881	1286.29157	112.21881
35350.00000	112.27086	1284.09350	112.27086
35400.00000	112.23926	1282.05311	112.23926
35450.00000	112.54644	1281.14422	112.54644
35500.00000	112.39156	1278.89926	112.39156
35550.00000	112.78072	1277.81233	112.78072
35600.00000	112.81694	1274.69041	112.81694
35650.00000	113.06739	1273.08556	113.06739
35700.00000	113.13129	1270.61956	113.13129
35750.00000	113.04613	1270.30528	113.04613
35800.00000	113.37421	1269.69763	113.37421
35850.00000	113.62095	1266.23399	113.62095
35900.00000	113.71831	1264.43669	113.71831
35950.00000	114.02538	1262.42831	114.02538
36000.00000	114.06131	1260.37247	114.06131
36050.00000	114.38413	1258.27189	114.38413
36100.00000	114.65128	1256.33853	114.65128
36150.00000	114.68165	1254.48447	114.68165
36200.00000	114.90658	1252.28922	114.90658
36250.00000	113.58032	1251.83776	113.58032
36300.00000	115.26830	1247.82140	115.26830
36350.00000	115.47779	1245.77668	115.47779
36400.00000	115.78118	1243.74019	115.78118
36450.00000	115.78950	1240.38670	115.78950
36500.00000	116.12581	1239.37298	116.12581
36550.00000	116.17737	1235.21820	116.17737
36600.00000	116.41418	1232.66913	116.41418
36650.00000	116.71238	1230.79788	116.71238
36700.00000	116.91640	1227.14052	116.91640
36750.00000	117.06158	1224.02909	117.06158
36800.00000	117.21090	1221.65995	117.21090
36850.00000	117.21578	1218.82229	117.21578
36900.00000	117.61898	1215.35886	117.61898
36950.00000	117.53923	1212.22084	117.53923
37000.00000	117.47836	1209.63106	117.47836
37050.00000	117.56507	1207.17385	117.56507
37100.00000	117.82824	1202.90970	117.82824
37150.00000	118.02921	1199.55162	118.02921
37200.00000	118.32065	1197.39745	118.32065
37250.00000	117.99734	1193.18488	117.99734
37300.00000	118.06866	1190.33254	118.06866
37350.00000	118.38961	1187.60879	118.38961
37400.00000	118.20174	1184.88973	118.20174
37450.00000	118.14923	1182.09721	118.14923
37500.00000	118.57737	1178.00640	118.57737
37550.00000	118.30655	1176.00697	118.30655
37600.00000	118.43274	1172.72555	118.43274
37650.00000	118.45267	1170.00789	118.45267
37700.00000	118.57536	1165.89145	118.57536
37750.00000	118.58132	1163.96824	118.58132
37800.00000	118.54174	1159.91936	118.54174
37850.00000	118.59116	1155.53292	118.59116
37900.00000	118.58860	1153.33314	118.58860
37950.00000	118.67148	1151.35615	118.67148
38000.00000	118.57713	1148.61358	118.57713
38050.00000	118.71628	1144.82986	118.71628
38100.00000	118.79754	1141.98844	118.79754
38150.00000	118.80978	1138.29656	118.80978
38200.00000	118.97908	1134.71603	118.97908
38250.00000	119.03404	1131.86480	119.03404
38300.00000	119.16646	1127.87323	119.16646
38350.00000	119.16335	1125.13902	119.16335
38400.00000	119.24872	1121.63662	119.24872
38450.00000	119.39721	1117.35539	119.39721
38500.00000	119.53134	1113.57292	119.53134
38550.00000	119.66362	1110.42421	119.66362
38600.00000	119.79984	1106.43035	119.79984
38650.00000	119.94859	1102.07615	119.94859
38700.00000	119.97005	1097.70146	119.97005
38750.00000	120.11139	1093.75930	120.11139
38800.00000	120.24178	1089.49015	120.24178
38850.00000	120.34839	1084.92230	120.34839
38900.00000	120.47792	1080.31364	120.47792
38950.00000	120.54579	1075.25128	120.54579
39000.00000	120.60402	1070.10431	120.60402
39050.00000	120.69023	1065.18901	120.69023
39100.00000	120.61215	1060.26338	120.61215
39150.00000	120.56997	1054.75315	120.56997
39200.00000	120.57908	1049.86996	120.57908
39250.00000	120.51491	1044.24224	120.51491
39300.00000	120.46736	1039.01084	120.46736
39350.00000	120.27755	1034.23358	120.27755
39400.00000	120.13658	1028.50711	120.13658
39450.00000	119.88754	1023.77290	119.88754
39500.00000	119.73075	1018.63610	119.73075
39550.00000	119.44505	1013.56167	119.44505
39600.00000	119.07143	1009.10469	119.07143
39650.00000	118.86670	1004.51257	118.86670
39700.00000	118.50587	1000.33391	118.50587
39750.00000	118.22557	995.77473	118.22557
39800.00000	117.86991	991.60833	117.86991
39850.00000	117.51793	987.76342	117.51793
39900.00000	117.15858	984.50264	117.15858
39950.00000	116.79313	981.05429	116.79313
40000.00000	116.25880	979.05753	116.25880
40050.00000	116.01695	974.48959	116.01695
40100.00000	115.71853	971.26702	115.71853
40150.00000	115.29639	968.27820	115.29639
40200.00000	114.94745	965.11130	114.94745
40250.00000	114.52470	963.27036	114.52470
40300.00000	114.30884	960.69245	114.30884
40350.00000	113.76811	958.86577	113.76811
40400.00000	113.37879	956.58289	113.37879
40450.00000	113.03751	954.48958	113.03751
40500.00000	112.86776	953.08345	112.86776
40550.00000	112.45768	950.94274	112.45768
40600.00000	112.14340	949.51806	112.14340
40650.00000	111.76997	948.77225	111.76997
40700.00000	111.33946	947.63075	111.33946
40750.00000	111.18202	946.31261	111.18202
40800.00000	110.84144	945.10874	110.84144
40850.00000	110.52588	945.46921	110.52588
40900.00000	110.20742	942.83459	110.20742
40950.00000	109.84439	943.97381	109.84439
41000.00000	109.39702	943.60129	109.39702
41050.00000	109.26554	942.98469	109.26554
41100.00000	109.29103	941.79248	109.29103
41150.00000	109.13264	943.43533	109.13264
41200.00000	108.97555	942.20810	108.97555
41250.00000	108.60742	940.78033	108.60742
41300.00000	108.23924	942.00071	108.23924
41350.00000	108.31603	944.04324	108.31603
41400.00000	108.07476	939.99784	108.07476
41450.00000	108.02817	942.17143	108.02817
41500.00000	107.71412	941.62567	107.71412
41550.00000	107.47558	944.98983	107.47558
41600.00000	107.08631	945.56228	107.08631
41650.00000	107.40931	943.23671	107.40931
41700.00000	107.58982	944.81450	107.58982
41750.00000	107.14011	949.07872	107.14011
41800.00000	106.25489	944.02290	106.25489
41850.00000	106.05158	944.44553	106.05158
41900.00000	105.74900	945.29745	105.74900
41950.00000	106.79352	951.79355	106.79352
42000.00000	105.76676	947.27669	105.76676
42050.00000	104.88102	946.36446	104.88102
42100.00000	104.91513	948.49509	104.91513
42150.00000	104.71320	940.89155	104.71320
42200.00000	104.39571	951.70874	104.39571
42250.00000	104.42896	951.70168	104.42896
42300.00000	102.74846	950.10807	102.74846
42350.00000	104.05539	951.63868	104.05539
42400.00000	103.18086	953.60833	103.18086
42450.00000	104.09457	948.59519	104.09457
42500.00000	102.59434	948.14010	102.59434
42550.00000	103.44054	963.27578	103.44054
42600.00000	102.55226	955.11805	102.55226
42650.00000	102.85532	959.51515	102.85532
42700.00000	102.08202	955.52473	102.08202
42750.00000	103.53084	955.67973	103.53084
42800.00000	102.76159	949.51758	102.76159
42850.00000	102.44604	946.23281	102.44604
42900.00000	103.81009	953.20329	103.81009
42950.00000	102.50525	948.89213	102.50525
43000.00000	103.49888	941.04210	103.49888
43050.00000	103.11990	938.64511	103.11990
43100.00000	104.20148	939.25310	104.20148
43150.00000	103.23207	935.97406	103.23207
43200.00000	104.03190	932.86585	104.03190
43250.00000	103.81570	926.76295	103.81570
43300.00000	104.16399	925.25239	104.16399
43350.00000	105.27234	920.97727	105.27234
43400.00000	104.75445	913.99715	104.75445
43450.00000	106.18992	918.20595	106.18992
43500.00000	104.97777	905.06187	104.97777
43550.00000	105.62446	901.38982	105.62446
43600.00000	105.43539	897.08749	105.43539
43650.00000	106.58158	886.98249	106.58158
43700.00000	106.40929	887.09876	106.40929
43750.00000	105.85450	883.98066	105.85450
43800.00000	106.75113	876.78338	106.75113
43850.00000	107.39191	871.33249	107.39191
43900.00000	108.00083	867.25058	108.00083
43950.00000	107.86051	858.96673	107.86051
44000.00000	107.51705	853.87737	107.51705
44050.00000	108.31835	847.67041	108.31835
44100.00000	108.23921	836.31473	108.23921
44150.00000	108.57260	836.91139	108.57260
44200.00000	108.36660	833.80775	108.36660
44250.00000	109.02769	828.68724	109.02769
44300.00000	109.14464	818.63281	109.14464
44350.00000	108.51797	815.36851	108.51797
44400.00000	109.18232	811.01725	109.18232
44450.00000	109.57855	806.51668	109.57855
44500.00000	109.42642	803.15905	109.42642
44550.00000	110.62545	791.57918	110.62545
44600.00000	109.44237	791.45442	109.44237
44650.00000	109.13318	783.04371	109.13318
44700.00000	109.09856	780.23942	109.09856
44750.00000	109.32228	777.74835	109.32228
44800.00000	109.65930	771.47631	109.65930
44850.00000	109.46647	764.06055	109.46647
44900.00000	109.23329	761.78462	109.23329
44950.00000	109.43334	755.70190	109.43334
45000.00000	109.28976	747.82425	109.28976
45050.00000	108.21507	751.74118	108.21507
45100.00000	108.73006	744.01958	108.73006
45150.00000	108.36167	731.91011	108.36167
45200.00000	108.01291	735.85509	108.01291
45250.00000	108.10680	729.22984	108.10680
45300.00000	107.89084	726.03561	107.89084
45350.00000	107.43594	716.85848	107.43594
45400.00000	107.20608	716.07667	107.20608
45450.00000	107.52701	709.41299	107.52701
45500.00000	105.40867	702.17982	105.40867
45550.00000	105.78218	707.68943	105.78218
45600.00000	106.82420	696.71604	106.82420
45650.00000	105.22168	692.35661	105.22168
45700.00000	104.91542	690.05416	104.91542
45750.00000	105.97588	692.28571	105.97588
45800.00000	104.51004	686.30687	104.51004
45850.00000	104.45928	680.56402	104.45928
45900.00000	103.84756	678.53315	103.84756
45950.00000	103.54419	679.70829	103.54419
46000.00000	102.42083	665.06617	102.42083
46050.00000	102.28001	664.76458	102.28001
46100.00000	101.10288	670.46175	101.10288
46150.00000	101.15726	669.50675	101.15726
46200.00000	99.39755	655.98686	99.39755
46250.00000	100.73630	659.99050	100.73630
46300.00000	98.96775	659.18841	98.96775
46350.00000	100.30842	651.31265	100.30842
46400.00000	98.60244	648.71796	98.60244
46450.00000	96.36300	653.12659	96.36300
46500.00000	97.42159	656.93047	97.42159
46550.00000	97.09146	658.51060	97.09146
46600.00000	98.03229	661.98274	98.03229
46650.00000	94.67176	653.38513	94.67176
46700.00000	94.82423	664.72804	94.82423
46750.00000	95.59251	672.72270	95.59251
46800.00000	93.96463	660.84294	93.96463
46850.00000	95.17392	318.46792	95.17392
46900.00000	95.34122	308.71432	95.34122
46950.00000	95.65825	312.00155	95.65825
47000.00000	95.47796	312.82435	95.47796
47050.00000	96.94119	308.05959	96.94119
47100.00000	95.66036	306.61617	95.66036
47150.00000	96.75812	306.11188	96.75812
47200.00000	96.01737	307.11484	96.01737
47250.00000	97.58601	304.23245	97.58601
47300.00000	96.84363	297.33292	96.84363
47350.00000	96.51510	-53.31125	96.51510
47400.00000	95.61017	-55.51735	95.61017
47450.00000	97.68037	-55.10014	97.68037
47500.00000	95.43380	-67.62930	95.43380
47550.00000	94.64320	-419.92407	94.64320
47600.00000	95.46309	-421.35589	95.46309
47650.00000	97.41861	-424.96897	97.41861
47700.00000	96.23304	-427.42097	96.23304
47750.00000	94.27371	-424.23816	94.27371
47800.00000	95.16465	-440.80656	95.16465
47850.00000	95.58564	-790.57968	95.58564
47900.00000	96.44068	-1142.04571	96.44068
47950.00000	95.24798	-1143.70145	95.24798
48000.00000	95.12129	-1142.02215	95.12129
48050.00000	96.64181	-1150.71860	96.64181
48100.00000	95.09766	-1155.43478	95.09766
48150.00000	95.19183	-1508.40015	95.19183
48200.00000	96.39170	-1503.51229	96.39170
48250.00000	95.10881	-1514.61757	95.10881
48300.00000	95.88609	-1515.51353	95.88609
48350.00000	96.21040	-1521.08122	96.21040
48400.00000	96.59582	-1865.78898	96.59582
48450.00000	97.33731	-1871.28404	97.33731
48500.00000	96.64184	-1873.88413	96.64184
48550.00000	95.61254	-1880.84227	95.61254
48600.00000	97.42174	-2237.08100	97.42174
48650.00000	97.93140	-2235.57531	97.93140
48700.00000	98.13962	-2248.02010	98.13962
48750.00000	97.52625	-2594.12586	97.52625
48800.00000	97.64003	-2610.13349	97.64003
48850.00000	97.59322	-2614.13753	97.59322
48900.00000	96.69656	-2971.49110	96.69656
48950.00000	97.86176	-2984.08411	97.86176
49000.00000	98.05319	-2987.33865	98.05319
49050.00000	97.32995	-2992.57352	97.32995
49100.00000	96.98761	-3351.93294	96.98761
49150.00000	98.32779	-3710.86487	98.32779
49200.00000	97.45112	-3718.95080	97.45112
49250.00000	96.62527	-4074.85483	96.62527
49300.00000	97.53837	-3729.89240	97.53837
49350.00000	94.59405	-3716.40378	94.59405
49400.00000	95.52040	-3371.45819	95.52040
49450.00000	94.98833	-3017.21033	94.98833
49500.00000	94.63735	-2669.35274	94.63735
49550.00000	95.59463	-2316.27521	95.59463
49600.00000	92.61511	-2304.75657	92.61511
49650.00000	93.97762	-2303.56410	93.97762
49700.00000	91.73353	-1969.49358	91.73353
49750.00000	92.69426	-1972.61111	92.69426
49800.00000	89.55596	-1969.60060	89.55596
49850.00000	83.92729	-1938.95203	83.92729
49900.00000	84.17532	-1623.32743	84.17532
49950.00000	80.90153	-1228.50232	80.90153
