---ACOUSTIC CALIBRATION---
Filename: C:\Data\CL0809 DATA\CL08090\RightSecondary.calib
Date: 8/9/2019 8:46:36 AM
Format: 4
Probe Tube Correction File: C:\Data\Probe Tube Calibrations\74_ProbeTube.calib
Experiment VIs: 2128
EPL_CFTS.exe V15.0.1f5 (2015)
DAQmx V15.1

Attenuation (dB): 40.000000
Min Freq (Hz): 50.000000
Max Freq (Hz): 99950.000000
Freq Step (Hz): 50.000000
Sample Rate (Hz): 200000.000000
[Smoothing]
Method=None
MA.Iterations=0
MA.Length=0
Loess.Length=0
Loess.Type=Linear
Loess.Robust=FALSE


Freq(Hz)	Mag(dB)	Phase(deg)	Unsmoothed(dB)

50.00000	99.27161	138.61213	99.27161
100.00000	72.38540	71.63560	72.38540
150.00000	68.29798	210.68865	68.29798
200.00000	68.30539	387.57106	68.30539
250.00000	68.04270	585.23180	68.04270
300.00000	75.29559	742.53678	75.29559
350.00000	76.39105	943.63395	76.39105
400.00000	77.02247	1009.08322	77.02247
450.00000	80.78907	1046.23735	80.78907
500.00000	85.31675	1167.28080	85.31675
550.00000	91.71444	1093.71805	91.71444
600.00000	89.53038	1056.18794	89.53038
650.00000	96.22294	1046.91830	96.22294
700.00000	94.82908	1046.34294	94.82908
750.00000	98.29283	1016.72104	98.29283
800.00000	99.58060	1003.45654	99.58060
850.00000	98.81926	995.55123	98.81926
900.00000	99.59858	993.36035	99.59858
950.00000	101.80592	979.14036	101.80592
1000.00000	102.34637	970.96119	102.34637
1050.00000	102.90236	954.29439	102.90236
1100.00000	102.56976	941.00317	102.56976
1150.00000	101.70609	934.48600	101.70609
1200.00000	101.06702	935.55464	101.06702
1250.00000	101.41282	936.62700	101.41282
1300.00000	102.40943	936.24199	102.40943
1350.00000	103.40721	931.15576	103.40721
1400.00000	103.94183	926.82245	103.94183
1450.00000	104.64426	923.03805	104.64426
1500.00000	105.70552	919.27704	105.70552
1550.00000	106.70589	911.23855	106.70589
1600.00000	107.70469	904.45205	107.70469
1650.00000	108.50687	897.82865	108.50687
1700.00000	112.16464	879.79226	112.16464
1750.00000	108.82436	857.97653	108.82436
1800.00000	108.16741	852.64168	108.16741
1850.00000	107.63641	845.76867	107.63641
1900.00000	107.39894	839.72185	107.39894
1950.00000	106.84529	833.80843	106.84529
2000.00000	106.20275	827.40472	106.20275
2050.00000	105.24092	824.36514	105.24092
2100.00000	104.82809	827.70249	104.82809
2150.00000	105.89003	826.24595	105.89003
2200.00000	106.26154	815.54579	106.26154
2250.00000	105.62805	807.69287	105.62805
2300.00000	105.09446	804.09691	105.09446
2350.00000	104.83448	799.14418	104.83448
2400.00000	104.65753	795.00777	104.65753
2450.00000	104.11534	788.87209	104.11534
2500.00000	103.26776	787.49522	103.26776
2550.00000	103.08927	786.01568	103.08927
2600.00000	102.88441	783.77856	102.88441
2650.00000	102.70947	782.36421	102.70947
2700.00000	102.61710	779.45641	102.61710
2750.00000	102.47721	777.02150	102.47721
2800.00000	102.38618	773.67905	102.38618
2850.00000	102.29970	770.87108	102.29970
2900.00000	102.22469	767.56849	102.22469
2950.00000	102.11673	764.36107	102.11673
3000.00000	101.95748	761.50114	101.95748
3050.00000	101.79237	757.94970	101.79237
3100.00000	101.57633	754.47452	101.57633
3150.00000	101.16804	751.71288	101.16804
3200.00000	100.91202	748.56893	100.91202
3250.00000	100.69981	746.48690	100.69981
3300.00000	100.29908	744.34642	100.29908
3350.00000	100.11205	742.79668	100.11205
3400.00000	99.76068	741.18293	99.76068
3450.00000	99.49864	740.73714	99.49864
3500.00000	99.25195	740.91668	99.25195
3550.00000	99.52318	739.89465	99.52318
3600.00000	99.19360	737.60739	99.19360
3650.00000	99.16037	738.69496	99.16037
3700.00000	99.09946	738.82413	99.09946
3750.00000	99.39910	737.75709	99.39910
3800.00000	100.08841	737.47537	100.08841
3850.00000	100.51507	729.17920	100.51507
3900.00000	100.72303	721.88416	100.72303
3950.00000	99.69855	718.71350	99.69855
4000.00000	99.01809	720.56043	99.01809
4050.00000	99.02710	722.42774	99.02710
4100.00000	99.31582	723.61728	99.31582
4150.00000	100.51430	722.32941	100.51430
4200.00000	101.11222	719.68697	101.11222
4250.00000	100.96957	709.11382	100.96957
4300.00000	100.79278	708.18142	100.79278
4350.00000	101.03780	705.71449	101.03780
4400.00000	101.24132	701.43865	101.24132
4450.00000	101.17339	696.29984	101.17339
4500.00000	101.15987	692.11985	101.15987
4550.00000	100.98369	688.66974	100.98369
4600.00000	100.95748	684.93621	100.95748
4650.00000	100.94026	681.51149	100.94026
4700.00000	100.82840	677.70079	100.82840
4750.00000	100.68909	674.43578	100.68909
4800.00000	100.61004	671.74485	100.61004
4850.00000	100.58778	668.51165	100.58778
4900.00000	100.55062	664.66635	100.55062
4950.00000	100.51605	661.05626	100.51605
5000.00000	100.45000	657.01479	100.45000
5050.00000	100.35410	652.76881	100.35410
5100.00000	100.22090	648.49300	100.22090
5150.00000	100.02634	644.10757	100.02634
5200.00000	99.78610	639.43307	99.78610
5250.00000	99.33385	634.33820	99.33385
5300.00000	98.43018	632.06415	98.43018
5350.00000	98.56677	633.85133	98.56677
5400.00000	98.73296	629.12100	98.73296
5450.00000	98.51324	624.48089	98.51324
5500.00000	98.16225	620.07441	98.16225
5550.00000	97.79474	616.86014	97.79474
5600.00000	97.47229	613.26034	97.47229
5650.00000	97.02947	610.26429	97.02947
5700.00000	96.61219	607.21957	96.61219
5750.00000	96.21545	604.42212	96.21545
5800.00000	95.78754	602.18558	95.78754
5850.00000	95.36086	599.89364	95.36086
5900.00000	94.90663	597.60392	94.90663
5950.00000	94.52825	595.79982	94.52825
6000.00000	94.12381	594.14914	94.12381
6050.00000	93.73745	592.49303	93.73745
6100.00000	93.37271	590.81923	93.37271
6150.00000	92.95610	589.19287	92.95610
6200.00000	92.57526	587.91197	92.57526
6250.00000	92.23772	586.32995	92.23772
6300.00000	91.84612	585.40590	91.84612
6350.00000	91.48184	584.35851	91.48184
6400.00000	91.06169	583.81437	91.06169
6450.00000	90.67150	582.90644	90.67150
6500.00000	90.35576	582.60579	90.35576
6550.00000	89.98580	582.59247	89.98580
6600.00000	89.65051	582.52935	89.65051
6650.00000	89.35570	582.38564	89.35570
6700.00000	89.07738	582.51265	89.07738
6750.00000	88.83912	583.72908	88.83912
6800.00000	88.73539	584.12093	88.73539
6850.00000	88.68583	585.03500	88.68583
6900.00000	88.75716	585.09882	88.75716
6950.00000	88.70807	584.59706	88.70807
7000.00000	88.78257	583.70691	88.78257
7050.00000	88.76114	582.47898	88.76114
7100.00000	88.65105	581.14786	88.65105
7150.00000	88.51255	579.53927	88.51255
7200.00000	88.36326	578.20431	88.36326
7250.00000	88.08053	577.43542	88.08053
7300.00000	87.85789	576.75684	87.85789
7350.00000	87.63595	576.99248	87.63595
7400.00000	87.40731	576.79161	87.40731
7450.00000	87.22152	577.30316	87.22152
7500.00000	87.09453	577.39229	87.09453
7550.00000	87.03327	578.41922	87.03327
7600.00000	87.10420	578.92562	87.10420
7650.00000	87.18568	580.28028	87.18568
7700.00000	87.29307	580.07570	87.29307
7750.00000	87.45367	580.72481	87.45367
7800.00000	87.62248	580.42102	87.62248
7850.00000	87.76490	579.60344	87.76490
7900.00000	87.89200	579.16927	87.89200
7950.00000	88.02733	578.09222	88.02733
8000.00000	88.12177	577.25384	88.12177
8050.00000	88.25532	575.99524	88.25532
8100.00000	88.27424	574.66190	88.27424
8150.00000	88.36096	573.83056	88.36096
8200.00000	88.53885	572.18258	88.53885
8250.00000	88.58422	571.46134	88.58422
8300.00000	88.64633	570.50864	88.64633
8350.00000	88.70195	569.13250	88.70195
8400.00000	88.81842	567.50195	88.81842
8450.00000	88.89535	566.47787	88.89535
8500.00000	88.91696	564.84279	88.91696
8550.00000	88.90878	564.09437	88.90878
8600.00000	89.07832	563.25137	89.07832
8650.00000	89.07906	561.34167	89.07906
8700.00000	89.16040	559.98433	89.16040
8750.00000	89.20809	558.74362	89.20809
8800.00000	89.33024	557.55651	89.33024
8850.00000	89.34341	555.81749	89.34341
8900.00000	89.42387	554.96633	89.42387
8950.00000	89.44547	553.66590	89.44547
9000.00000	89.56204	552.44270	89.56204
9050.00000	89.73553	551.04028	89.73553
9100.00000	89.72945	550.04201	89.72945
9150.00000	89.79954	548.08113	89.79954
9200.00000	89.91790	547.17272	89.91790
9250.00000	90.00387	545.74474	90.00387
9300.00000	90.09480	544.44613	90.09480
9350.00000	90.11837	543.08873	90.11837
9400.00000	90.23501	541.87823	90.23501
9450.00000	90.31661	540.80069	90.31661
9500.00000	90.44701	539.13011	90.44701
9550.00000	90.50139	537.56634	90.50139
9600.00000	90.63622	535.95954	90.63622
9650.00000	90.70364	534.97361	90.70364
9700.00000	90.84203	533.74286	90.84203
9750.00000	90.96732	532.26408	90.96732
9800.00000	90.97909	530.59631	90.97909
9850.00000	91.16572	529.45602	91.16572
9900.00000	91.32739	528.85748	91.32739
9950.00000	91.38113	527.19115	91.38113
10000.00000	91.56388	526.23526	91.56388
10050.00000	91.75034	525.41880	91.75034
10100.00000	92.08198	523.40584	92.08198
10150.00000	92.22514	521.61182	92.22514
10200.00000	92.39537	519.60448	92.39537
10250.00000	92.56627	517.92517	92.56627
10300.00000	92.76715	516.47851	92.76715
10350.00000	93.01191	514.75437	93.01191
10400.00000	93.18552	512.78488	93.18552
10450.00000	93.44530	510.86036	93.44530
10500.00000	93.69451	508.29486	93.69451
10550.00000	93.97319	506.43189	93.97319
10600.00000	94.26622	503.32439	94.26622
10650.00000	94.54920	500.92436	94.54920
10700.00000	94.78261	497.61345	94.78261
10750.00000	95.06021	494.75852	95.06021
10800.00000	95.30972	491.13426	95.30972
10850.00000	95.58676	487.64497	95.58676
10900.00000	95.79502	483.97748	95.79502
10950.00000	95.98127	480.13061	95.98127
11000.00000	96.20863	475.97430	96.20863
11050.00000	96.29631	472.10509	96.29631
11100.00000	96.41705	467.77260	96.41705
11150.00000	96.48799	463.22279	96.48799
11200.00000	96.52813	458.99146	96.52813
11250.00000	96.45376	454.34593	96.45376
11300.00000	96.38236	450.14083	96.38236
11350.00000	96.28929	445.48884	96.28929
11400.00000	96.10393	441.13664	96.10393
11450.00000	95.88926	436.54050	95.88926
11500.00000	95.70462	432.37993	95.70462
11550.00000	95.45486	428.24137	95.45486
11600.00000	95.18274	424.34942	95.18274
11650.00000	94.89608	420.68713	94.89608
11700.00000	94.63717	417.06060	94.63717
11750.00000	94.28456	413.96437	94.28456
11800.00000	94.03805	411.22049	94.03805
11850.00000	93.76737	408.44736	93.76737
11900.00000	93.44190	406.25103	93.44190
11950.00000	93.17562	403.95298	93.17562
12000.00000	92.89496	402.37915	92.89496
12050.00000	92.62416	401.12631	92.62416
12100.00000	92.30082	399.29054	92.30082
12150.00000	91.99363	398.15031	91.99363
12200.00000	91.72896	396.63046	91.72896
12250.00000	91.42933	395.30064	91.42933
12300.00000	91.03609	393.90659	91.03609
12350.00000	90.83434	392.87962	90.83434
12400.00000	90.50881	390.91389	90.50881
12450.00000	90.31022	389.54118	90.31022
12500.00000	90.12804	388.69586	90.12804
12550.00000	89.86063	387.30902	89.86063
12600.00000	89.86093	385.43330	89.86093
12650.00000	89.71149	384.87104	89.71149
12700.00000	89.49288	383.15849	89.49288
12750.00000	89.28985	382.56841	89.28985
12800.00000	89.21830	381.37827	89.21830
12850.00000	88.96442	380.35553	88.96442
12900.00000	88.72233	378.95840	88.72233
12950.00000	88.73481	376.51606	88.73481
13000.00000	88.49491	374.07807	88.49491
13050.00000	88.35713	372.27931	88.35713
13100.00000	88.39634	369.12115	88.39634
13150.00000	88.40412	366.99143	88.40412
13200.00000	88.57466	362.76077	88.57466
13250.00000	89.10021	357.58446	89.10021
13300.00000	89.80509	357.21599	89.80509
13350.00000	90.77954	355.29809	90.77954
13400.00000	91.79108	358.75188	91.79108
13450.00000	92.31401	367.61448	92.31401
13500.00000	91.86857	381.48482	91.86857
13550.00000	90.47872	388.02864	90.47872
13600.00000	88.73387	390.56291	88.73387
13650.00000	86.91686	387.57478	86.91686
13700.00000	85.42797	382.85874	85.42797
13750.00000	84.56282	374.44591	84.56282
13800.00000	84.16496	365.45843	84.16496
13850.00000	84.10731	356.95587	84.10731
13900.00000	84.34894	348.69013	84.34894
13950.00000	85.19139	341.95611	85.19139
14000.00000	86.39266	337.64617	86.39266
14050.00000	88.10236	338.04459	88.10236
14100.00000	89.97148	341.13545	89.97148
14150.00000	91.27385	354.08278	91.27385
14200.00000	91.17639	370.63278	91.17639
14250.00000	89.76143	382.06487	89.76143
14300.00000	88.34291	385.18527	88.34291
14350.00000	86.83256	384.29090	86.83256
14400.00000	85.88225	382.46846	85.88225
14450.00000	85.07275	378.62465	85.07275
14500.00000	84.91286	372.38247	84.91286
14550.00000	84.78239	366.44175	84.78239
14600.00000	84.75487	361.70990	84.75487
14650.00000	85.30169	357.15729	85.30169
14700.00000	86.05559	352.27433	86.05559
14750.00000	86.66388	348.85977	86.66388
14800.00000	87.58680	347.14439	87.58680
14850.00000	88.70147	348.16820	88.70147
14900.00000	89.58732	349.32847	89.58732
14950.00000	89.91187	353.68180	89.91187
15000.00000	90.27064	357.24025	90.27064
15050.00000	89.98725	361.60318	89.98725
15100.00000	89.65785	363.94322	89.65785
15150.00000	89.17512	362.75229	89.17512
15200.00000	88.84768	360.83904	88.84768
15250.00000	88.40871	358.25700	88.40871
15300.00000	88.48780	354.09573	88.48780
15350.00000	88.43304	351.58204	88.43304
15400.00000	88.90744	347.17635	88.90744
15450.00000	89.35867	343.34782	89.35867
15500.00000	89.66444	341.39522	89.66444
15550.00000	90.23089	340.04179	90.23089
15600.00000	90.77119	338.66532	90.77119
15650.00000	91.24463	337.61418	91.24463
15700.00000	91.49426	338.18057	91.49426
15750.00000	91.98028	339.18784	91.98028
15800.00000	91.91621	338.91450	91.91621
15850.00000	92.02672	339.79827	92.02672
15900.00000	91.87163	337.56664	91.87163
15950.00000	91.78066	334.62389	91.78066
16000.00000	91.93588	332.85154	91.93588
16050.00000	92.07782	329.85967	92.07782
16100.00000	92.20282	326.61568	92.20282
16150.00000	92.43678	323.91639	92.43678
16200.00000	92.83212	321.82212	92.83212
16250.00000	93.05673	319.36940	93.05673
16300.00000	93.44682	317.25560	93.44682
16350.00000	93.82922	315.68833	93.82922
16400.00000	94.09796	314.56687	94.09796
16450.00000	94.40319	313.59875	94.40319
16500.00000	94.54329	311.45432	94.54329
16550.00000	94.71638	310.00886	94.71638
16600.00000	94.80706	308.06366	94.80706
16650.00000	94.95880	305.35954	94.95880
16700.00000	95.09174	302.16446	95.09174
16750.00000	95.21298	299.62300	95.21298
16800.00000	95.34793	296.66768	95.34793
16850.00000	95.53692	293.65878	95.53692
16900.00000	95.84357	290.90041	95.84357
16950.00000	96.01647	288.42859	96.01647
17000.00000	96.19396	286.03683	96.19396
17050.00000	96.37401	284.15798	96.37401
17100.00000	96.54370	281.21202	96.54370
17150.00000	96.68793	278.96912	96.68793
17200.00000	96.79615	277.20890	96.79615
17250.00000	96.84223	274.10797	96.84223
17300.00000	97.00478	271.23393	97.00478
17350.00000	97.02623	268.12467	97.02623
17400.00000	97.15404	265.63259	97.15404
17450.00000	97.24313	262.91907	97.24313
17500.00000	97.34757	259.50571	97.34757
17550.00000	97.47673	256.64650	97.47673
17600.00000	97.58642	254.27464	97.58642
17650.00000	97.70732	251.74187	97.70732
17700.00000	97.85621	249.49693	97.85621
17750.00000	97.91138	246.91738	97.91138
17800.00000	98.02515	244.50085	98.02515
17850.00000	98.04767	241.92067	98.04767
17900.00000	98.10271	239.82642	98.10271
17950.00000	98.21268	237.16326	98.21268
18000.00000	98.26354	234.36187	98.26354
18050.00000	98.33191	231.60493	98.33191
18100.00000	98.33205	229.00448	98.33205
18150.00000	98.45559	226.22026	98.45559
18200.00000	98.53538	223.55457	98.53538
18250.00000	98.63518	220.74522	98.63518
18300.00000	98.67737	218.16672	98.67737
18350.00000	98.73222	215.57009	98.73222
18400.00000	98.78442	212.94893	98.78442
18450.00000	98.84743	210.14989	98.84743
18500.00000	98.91331	207.71929	98.91331
18550.00000	99.01130	204.87124	99.01130
18600.00000	98.97130	202.27381	98.97130
18650.00000	99.03414	199.52089	99.03414
18700.00000	99.10168	197.04358	99.10168
18750.00000	99.12307	194.24056	99.12307
18800.00000	99.12638	191.55305	99.12638
18850.00000	99.13873	188.92925	99.13873
18900.00000	99.13880	186.38410	99.13880
18950.00000	99.15299	183.74052	99.15299
19000.00000	99.10942	180.86147	99.10942
19050.00000	99.11936	178.13858	99.11936
19100.00000	99.13953	175.93062	99.13953
19150.00000	99.12167	173.58974	99.12167
19200.00000	99.12889	171.16703	99.12889
19250.00000	99.09274	168.83837	99.09274
19300.00000	99.11477	166.68236	99.11477
19350.00000	99.12080	164.02271	99.12080
19400.00000	99.07286	161.99044	99.07286
19450.00000	99.08179	159.68841	99.08179
19500.00000	99.12155	157.66001	99.12155
19550.00000	99.14535	155.53108	99.14535
19600.00000	99.15412	153.31120	99.15412
19650.00000	99.18664	151.01926	99.18664
19700.00000	99.24686	148.84583	99.24686
19750.00000	99.26210	146.51850	99.26210
19800.00000	99.35891	144.51687	99.35891
19850.00000	99.39752	142.39641	99.39752
19900.00000	99.43909	140.09912	99.43909
19950.00000	99.46884	137.81324	99.46884
20000.00000	99.51685	135.22069	99.51685
20050.00000	99.57907	133.09707	99.57907
20100.00000	99.66125	130.44403	99.66125
20150.00000	99.71185	127.84691	99.71185
20200.00000	99.75579	125.67900	99.75579
20250.00000	99.82139	123.46672	99.82139
20300.00000	99.89281	120.84198	99.89281
20350.00000	99.95703	118.34185	99.95703
20400.00000	100.00110	115.67586	100.00110
20450.00000	100.09673	113.13344	100.09673
20500.00000	100.14195	110.61110	100.14195
20550.00000	100.14789	107.72219	100.14789
20600.00000	100.22807	104.97039	100.22807
20650.00000	100.29518	102.36393	100.29518
20700.00000	100.34708	99.95879	100.34708
20750.00000	100.33244	96.93325	100.33244
20800.00000	100.30759	94.14884	100.30759
20850.00000	100.37779	90.99695	100.37779
20900.00000	100.39479	88.27093	100.39479
20950.00000	100.39151	85.48514	100.39151
21000.00000	100.46292	82.37546	100.46292
21050.00000	100.46476	79.60629	100.46476
21100.00000	100.44548	76.71142	100.44548
21150.00000	100.43630	73.78668	100.43630
21200.00000	100.42242	70.90965	100.42242
21250.00000	100.33676	68.35322	100.33676
21300.00000	100.31334	65.05770	100.31334
21350.00000	100.25944	62.20651	100.25944
21400.00000	100.25379	58.92158	100.25379
21450.00000	100.20529	56.34166	100.20529
21500.00000	100.15382	53.86793	100.15382
21550.00000	100.10373	50.89773	100.10373
21600.00000	100.02538	48.15300	100.02538
21650.00000	99.95942	45.49191	99.95942
21700.00000	99.83466	42.66211	99.83466
21750.00000	99.75644	39.67249	99.75644
21800.00000	99.66018	36.75966	99.66018
21850.00000	99.62071	34.43012	99.62071
21900.00000	99.47926	31.60698	99.47926
21950.00000	99.40752	29.27832	99.40752
22000.00000	99.19959	26.57555	99.19959
22050.00000	99.12222	24.75538	99.12222
22100.00000	99.02894	22.53689	99.02894
22150.00000	98.87761	20.36356	98.87761
22200.00000	98.80924	17.91951	98.80924
22250.00000	98.71117	15.75904	98.71117
22300.00000	98.70577	13.46336	98.70577
22350.00000	98.62932	11.02051	98.62932
22400.00000	98.49293	 8.61221	98.49293
22450.00000	98.46591	 6.52246	98.46591
22500.00000	98.34114	 4.00715	98.34114
22550.00000	98.30367	 1.78591	98.30367
22600.00000	98.15069	-0.32951	98.15069
22650.00000	98.09026	-2.49817	98.09026
22700.00000	98.03890	-4.40573	98.03890
22750.00000	97.95808	-7.08165	97.95808
22800.00000	97.91569	-9.01793	97.91569
22850.00000	97.81082	-11.14276	97.81082
22900.00000	97.79891	-12.86996	97.79891
22950.00000	97.71466	-15.19637	97.71466
23000.00000	97.63274	-17.43851	97.63274
23050.00000	97.53731	-19.45936	97.53731
23100.00000	97.46649	-22.07730	97.46649
23150.00000	97.36083	-23.91409	97.36083
23200.00000	97.27816	-26.56436	97.27816
23250.00000	97.23174	-28.94286	97.23174
23300.00000	97.23372	-31.64682	97.23372
23350.00000	97.07567	-32.96851	97.07567
23400.00000	96.99097	-35.39693	96.99097
23450.00000	96.85080	-37.47015	96.85080
23500.00000	96.83876	-39.42338	96.83876
23550.00000	96.72064	-41.06368	96.72064
23600.00000	96.59624	-43.72876	96.59624
23650.00000	96.43691	-45.58807	96.43691
23700.00000	96.47994	-47.35402	96.47994
23750.00000	96.38150	-49.62478	96.38150
23800.00000	96.29220	-51.73755	96.29220
23850.00000	96.17301	-53.06235	96.17301
23900.00000	96.05528	-55.30398	96.05528
23950.00000	95.93365	-57.13024	95.93365
24000.00000	95.87201	-58.76900	95.87201
24050.00000	95.77509	-61.21429	95.77509
24100.00000	95.68854	-63.70412	95.68854
24150.00000	95.62846	-64.81826	95.62846
24200.00000	95.55809	-66.77079	95.55809
24250.00000	95.53013	-68.88484	95.53013
24300.00000	95.44393	-71.26435	95.44393
24350.00000	95.35453	-71.98795	95.35453
24400.00000	95.30683	-74.36963	95.30683
24450.00000	95.18532	-75.68402	95.18532
24500.00000	95.00418	-78.00575	95.00418
24550.00000	95.01547	-79.99571	95.01547
24600.00000	94.94373	-81.81313	94.94373
24650.00000	94.86051	-84.07375	94.86051
24700.00000	94.84418	-85.47815	94.84418
24750.00000	94.76589	-87.34860	94.76589
24800.00000	94.66699	-88.35370	94.66699
24850.00000	94.60540	-89.91584	94.60540
24900.00000	94.49696	-92.05426	94.49696
24950.00000	94.47144	-93.82138	94.47144
25000.00000	94.41892	-95.47480	94.41892
25050.00000	94.38056	-96.90986	94.38056
25100.00000	94.36362	-98.00681	94.36362
25150.00000	94.26958	-99.58439	94.26958
25200.00000	94.28428	-101.32526	94.28428
25250.00000	94.13321	-103.98181	94.13321
25300.00000	94.11311	-105.38253	94.11311
25350.00000	94.18949	-106.82582	94.18949
25400.00000	94.13807	-108.73263	94.13807
25450.00000	94.17798	-110.94672	94.17798
25500.00000	94.17461	-112.47435	94.17461
25550.00000	94.10440	-114.05395	94.10440
25600.00000	94.09811	-115.68345	94.09811
25650.00000	94.02191	-118.46704	94.02191
25700.00000	94.05573	-119.91160	94.05573
25750.00000	94.02126	-122.51062	94.02126
25800.00000	94.01957	-123.74876	94.01957
25850.00000	93.98965	-125.98030	93.98965
25900.00000	93.93734	-128.25463	93.93734
25950.00000	93.93132	-129.72285	93.93132
26000.00000	93.87911	-131.71630	93.87911
26050.00000	93.90933	-134.16694	93.90933
26100.00000	93.85507	-136.08076	93.85507
26150.00000	93.79954	-138.97151	93.79954
26200.00000	93.63935	-140.67718	93.63935
26250.00000	93.66272	-143.02582	93.66272
26300.00000	93.49792	-145.59622	93.49792
26350.00000	93.54687	-147.69598	93.54687
26400.00000	93.45430	-150.18946	93.45430
26450.00000	93.38603	-152.55954	93.38603
26500.00000	93.28210	-154.42605	93.28210
26550.00000	93.14964	-156.51566	93.14964
26600.00000	93.06493	-158.62779	93.06493
26650.00000	92.93194	-160.76669	92.93194
26700.00000	92.79000	-162.72994	92.79000
26750.00000	92.68290	-164.74541	92.68290
26800.00000	92.49445	-166.99203	92.49445
26850.00000	92.30148	-168.55735	92.30148
26900.00000	92.13203	-170.54193	92.13203
26950.00000	91.90440	-172.41462	91.90440
27000.00000	91.73202	-173.75293	91.73202
27050.00000	91.58780	-175.03077	91.58780
27100.00000	91.43346	-176.83704	91.43346
27150.00000	91.24902	-178.32949	91.24902
27200.00000	91.16784	-180.12252	91.16784
27250.00000	90.95713	-181.14956	90.95713
27300.00000	90.79266	-182.49411	90.79266
27350.00000	90.64974	-183.38808	90.64974
27400.00000	90.52585	-184.46626	90.52585
27450.00000	90.41118	-185.60415	90.41118
27500.00000	90.33053	-186.56115	90.33053
27550.00000	90.13130	-187.17504	90.13130
27600.00000	90.08209	-188.83556	90.08209
27650.00000	89.88998	-189.50642	89.88998
27700.00000	89.80787	-190.72840	89.80787
27750.00000	89.69831	-191.28951	89.69831
27800.00000	89.59093	-192.07765	89.59093
27850.00000	89.54157	-193.30874	89.54157
27900.00000	89.52889	-193.84965	89.52889
27950.00000	89.42487	-194.25965	89.42487
28000.00000	89.34603	-194.99557	89.34603
28050.00000	89.30996	-196.03638	89.30996
28100.00000	89.25872	-196.75218	89.25872
28150.00000	89.22611	-197.72474	89.22611
28200.00000	89.20887	-198.25004	89.20887
28250.00000	89.09511	-199.20979	89.09511
28300.00000	89.03482	-200.45009	89.03482
28350.00000	89.05348	-200.82612	89.05348
28400.00000	88.99829	-201.81726	88.99829
28450.00000	89.00243	-202.37452	89.00243
28500.00000	89.08198	-203.67160	89.08198
28550.00000	88.96584	-203.88900	88.96584
28600.00000	89.08286	-204.55574	89.08286
28650.00000	89.02144	-205.06164	89.02144
28700.00000	88.95107	-206.45140	88.95107
28750.00000	89.02457	-206.29968	89.02457
28800.00000	88.95978	-208.20391	88.95978
28850.00000	88.94005	-208.99050	88.94005
28900.00000	89.01577	-209.61854	89.01577
28950.00000	89.06861	-209.94849	89.06861
29000.00000	89.13123	-210.88271	89.13123
29050.00000	89.22494	-211.41655	89.22494
29100.00000	89.14767	-211.78060	89.14767
29150.00000	89.19256	-213.43878	89.19256
29200.00000	89.30169	-213.86573	89.30169
29250.00000	89.28724	-214.35929	89.28724
29300.00000	89.27900	-215.00785	89.27900
29350.00000	89.41964	-215.46674	89.41964
29400.00000	89.42591	-216.63141	89.42591
29450.00000	89.52651	-217.60968	89.52651
29500.00000	89.68245	-218.51546	89.68245
29550.00000	89.76809	-218.90847	89.76809
29600.00000	89.85647	-219.88847	89.85647
29650.00000	89.89420	-220.22986	89.89420
29700.00000	90.03386	-221.06528	90.03386
29750.00000	90.14757	-221.93863	90.14757
29800.00000	90.15890	-223.07503	90.15890
29850.00000	90.38617	-223.71138	90.38617
29900.00000	90.52714	-224.39567	90.52714
29950.00000	90.58434	-224.92260	90.58434
30000.00000	90.76593	-226.46599	90.76593
30050.00000	90.85573	-227.26498	90.85573
30100.00000	91.06329	-227.49798	91.06329
30150.00000	91.13197	-229.02843	91.13197
30200.00000	91.32583	-229.91531	91.32583
30250.00000	91.39337	-230.94677	91.39337
30300.00000	91.54014	-231.91438	91.54014
30350.00000	91.79286	-232.75259	91.79286
30400.00000	91.92162	-234.21836	91.92162
30450.00000	92.14530	-235.07266	92.14530
30500.00000	92.38331	-236.43645	92.38331
30550.00000	92.50010	-237.32228	92.50010
30600.00000	92.75227	-239.05989	92.75227
30650.00000	92.91937	-240.27456	92.91937
30700.00000	93.13949	-241.84126	93.13949
30750.00000	93.32031	-243.05015	93.32031
30800.00000	93.39938	-244.22275	93.39938
30850.00000	93.71724	-245.87826	93.71724
30900.00000	93.89021	-247.59190	93.89021
30950.00000	94.12621	-249.14300	94.12621
31000.00000	94.31594	-250.61261	94.31594
31050.00000	94.48251	-252.42336	94.48251
31100.00000	94.76280	-253.68401	94.76280
31150.00000	94.99057	-255.49462	94.99057
31200.00000	95.12419	-257.53601	95.12419
31250.00000	95.35573	-259.49464	95.35573
31300.00000	95.61346	-261.22564	95.61346
31350.00000	95.78634	-263.00830	95.78634
31400.00000	96.00665	-265.14439	96.00665
31450.00000	96.22277	-267.15789	96.22277
31500.00000	96.39555	-269.42864	96.39555
31550.00000	96.62280	-271.67961	96.62280
31600.00000	96.83535	-274.03365	96.83535
31650.00000	97.01362	-276.45401	97.01362
31700.00000	97.14064	-278.58159	97.14064
31750.00000	97.33496	-281.06950	97.33496
31800.00000	97.50402	-283.93475	97.50402
31850.00000	97.63342	-285.72061	97.63342
31900.00000	97.77130	-288.50146	97.77130
31950.00000	97.93214	-291.16954	97.93214
32000.00000	98.01942	-293.52336	98.01942
32050.00000	98.16089	-296.32992	98.16089
32100.00000	98.29797	-298.87458	98.29797
32150.00000	98.32806	-301.45116	98.32806
32200.00000	98.43448	-303.85591	98.43448
32250.00000	98.54747	-306.27739	98.54747
32300.00000	98.56697	-308.61206	98.56697
32350.00000	98.65377	-311.23535	98.65377
32400.00000	98.69444	-313.61235	98.69444
32450.00000	98.74068	-316.16086	98.74068
32500.00000	98.75734	-318.74202	98.75734
32550.00000	98.79652	-321.03734	98.79652
32600.00000	98.82736	-323.24595	98.82736
32650.00000	98.86949	-325.57620	98.86949
32700.00000	98.85352	-327.69670	98.85352
32750.00000	98.88909	-329.96530	98.88909
32800.00000	98.87068	-332.10452	98.87068
32850.00000	98.86638	-334.14438	98.86638
32900.00000	98.86701	-336.08802	98.86701
32950.00000	98.89927	-337.96758	98.89927
33000.00000	98.93061	-339.96495	98.93061
33050.00000	98.89914	-341.80473	98.89914
33100.00000	98.87901	-343.85188	98.87901
33150.00000	98.89308	-345.41664	98.89308
33200.00000	98.92052	-347.25726	98.92052
33250.00000	98.88154	-348.68314	98.88154
33300.00000	98.91522	-350.37462	98.91522
33350.00000	98.97938	-351.76438	98.97938
33400.00000	98.96303	-353.27552	98.96303
33450.00000	98.94932	-354.99824	98.94932
33500.00000	98.96832	-355.93166	98.96832
33550.00000	99.00420	-357.04683	99.00420
33600.00000	99.06659	-358.42176	99.06659
33650.00000	99.14266	-359.92415	99.14266
33700.00000	99.19831	-360.68612	99.19831
33750.00000	99.30631	-362.29704	99.30631
33800.00000	99.33625	-363.41799	99.33625
33850.00000	99.48352	-364.55169	99.48352
33900.00000	99.58055	-365.70555	99.58055
33950.00000	99.70155	-366.65492	99.70155
34000.00000	99.81110	-367.53097	99.81110
34050.00000	99.96491	-368.60473	99.96491
34100.00000	100.09085	-370.25158	100.09085
34150.00000	100.26266	-371.25770	100.26266
34200.00000	100.45874	-372.52118	100.45874
34250.00000	100.61696	-373.25338	100.61696
34300.00000	100.80725	-374.79919	100.80725
34350.00000	101.04621	-376.27209	101.04621
34400.00000	101.28448	-377.65417	101.28448
34450.00000	101.49090	-379.14900	101.49090
34500.00000	101.71603	-380.50532	101.71603
34550.00000	101.91159	-382.59496	101.91159
34600.00000	102.14911	-384.25031	102.14911
34650.00000	102.34440	-386.10881	102.34440
34700.00000	102.48351	-387.88294	102.48351
34750.00000	102.71366	-389.86848	102.71366
34800.00000	102.81943	-391.17047	102.81943
34850.00000	103.06823	-392.58456	103.06823
34900.00000	103.30701	-394.11008	103.30701
34950.00000	103.55182	-395.68721	103.55182
35000.00000	103.81103	-397.30481	103.81103
35050.00000	104.09640	-399.17816	104.09640
35100.00000	104.39263	-401.04829	104.39263
35150.00000	104.66286	-402.86406	104.66286
35200.00000	104.91185	-404.83969	104.91185
35250.00000	105.21285	-407.05597	105.21285
35300.00000	105.48778	-409.15847	105.48778
35350.00000	105.74363	-411.24098	105.74363
35400.00000	106.04544	-413.57249	106.04544
35450.00000	106.34645	-415.83195	106.34645
35500.00000	106.59730	-418.26368	106.59730
35550.00000	106.88145	-420.74864	106.88145
35600.00000	107.13016	-423.30589	107.13016
35650.00000	107.44551	-425.83770	107.44551
35700.00000	107.72587	-428.59662	107.72587
35750.00000	107.99472	-431.28267	107.99472
35800.00000	108.29086	-433.94457	108.29086
35850.00000	108.56391	-436.71405	108.56391
35900.00000	108.81672	-439.48716	108.81672
35950.00000	109.06438	-442.44183	109.06438
36000.00000	109.35858	-445.36343	109.35858
36050.00000	109.58903	-448.54948	109.58903
36100.00000	109.82276	-451.50134	109.82276
36150.00000	110.06422	-454.65168	110.06422
36200.00000	110.31187	-457.88301	110.31187
36250.00000	110.50567	-460.96592	110.50567
36300.00000	110.72226	-464.12718	110.72226
36350.00000	110.93467	-467.45002	110.93467
36400.00000	111.13403	-470.58704	111.13403
36450.00000	111.33530	-473.95730	111.33530
36500.00000	111.52260	-477.13664	111.52260
36550.00000	111.71313	-480.41744	111.71313
36600.00000	111.89096	-483.63670	111.89096
36650.00000	112.05781	-486.88052	112.05781
36700.00000	112.23722	-490.08123	112.23722
36750.00000	112.39791	-493.24888	112.39791
36800.00000	112.59436	-496.38401	112.59436
36850.00000	112.74968	-499.47003	112.74968
36900.00000	112.91528	-502.72817	112.91528
36950.00000	113.09269	-505.88536	113.09269
37000.00000	113.26638	-509.01647	113.26638
37050.00000	113.45121	-512.16109	113.45121
37100.00000	113.62603	-515.34444	113.62603
37150.00000	113.80902	-518.55019	113.80902
37200.00000	114.01146	-521.66242	114.01146
37250.00000	114.21452	-524.93909	114.21452
37300.00000	114.41714	-528.18247	114.41714
37350.00000	114.63434	-531.45365	114.63434
37400.00000	114.86287	-534.98488	114.86287
37450.00000	115.09433	-538.43439	115.09433
37500.00000	115.31539	-541.93213	115.31539
37550.00000	115.56145	-545.68376	115.56145
37600.00000	115.79737	-549.52064	115.79737
37650.00000	116.04716	-553.45636	116.04716
37700.00000	116.28600	-557.44439	116.28600
37750.00000	116.52455	-561.72954	116.52455
37800.00000	116.75276	-566.07238	116.75276
37850.00000	116.96309	-570.62103	116.96309
37900.00000	117.15100	-575.35624	117.15100
37950.00000	117.31137	-580.21096	117.31137
38000.00000	117.45354	-585.10304	117.45354
38050.00000	117.55907	-590.24038	117.55907
38100.00000	117.62835	-595.21097	117.62835
38150.00000	117.65743	-600.26690	117.65743
38200.00000	117.66752	-605.26433	117.66752
38250.00000	117.64566	-610.13471	117.64566
38300.00000	117.61929	-614.89119	117.61929
38350.00000	117.57530	-619.64012	117.57530
38400.00000	117.51454	-624.19110	117.51454
38450.00000	117.45488	-628.69887	117.45488
38500.00000	117.38982	-633.10140	117.38982
38550.00000	117.31998	-637.55243	117.31998
38600.00000	117.24399	-641.86009	117.24399
38650.00000	117.16870	-646.17921	117.16870
38700.00000	117.09080	-650.44135	117.09080
38750.00000	117.00524	-654.71871	117.00524
38800.00000	116.91494	-658.99776	116.91494
38850.00000	116.83206	-663.35938	116.83206
38900.00000	116.72627	-667.63824	116.72627
38950.00000	116.61539	-671.91244	116.61539
39000.00000	116.50033	-676.26887	116.50033
39050.00000	116.37579	-680.64561	116.37579
39100.00000	116.21587	-685.02842	116.21587
39150.00000	116.05212	-689.38959	116.05212
39200.00000	115.87168	-693.61934	115.87168
39250.00000	115.67000	-697.78983	115.67000
39300.00000	115.46340	-701.87239	115.46340
39350.00000	115.24457	-705.90769	115.24457
39400.00000	115.03758	-709.91639	115.03758
39450.00000	114.81393	-713.83219	114.81393
39500.00000	114.59419	-717.70931	114.59419
39550.00000	114.36231	-721.48213	114.36231
39600.00000	114.11172	-725.39926	114.11172
39650.00000	113.86474	-729.19281	113.86474
39700.00000	113.58935	-732.96750	113.58935
39750.00000	113.29376	-736.60657	113.29376
39800.00000	112.99763	-740.21486	112.99763
39850.00000	112.69041	-743.54586	112.69041
39900.00000	112.38122	-746.87158	112.38122
39950.00000	112.05984	-750.19090	112.05984
40000.00000	111.74516	-753.22436	111.74516
40050.00000	111.42961	-756.21811	111.42961
40100.00000	111.12061	-759.18545	111.12061
40150.00000	110.81127	-761.95183	110.81127
40200.00000	110.48358	-764.71844	110.48358
40250.00000	110.18426	-767.42624	110.18426
40300.00000	109.86931	-770.09360	109.86931
40350.00000	109.57918	-772.54853	109.57918
40400.00000	109.29890	-775.01459	109.29890
40450.00000	108.94906	-777.41461	108.94906
40500.00000	108.64105	-779.79073	108.64105
40550.00000	108.33237	-782.11555	108.33237
40600.00000	108.03062	-784.25743	108.03062
40650.00000	107.71277	-786.36312	107.71277
40700.00000	107.41244	-788.38502	107.41244
40750.00000	107.10949	-790.51055	107.10949
40800.00000	106.78002	-792.42436	106.78002
40850.00000	106.47496	-794.25620	106.47496
40900.00000	106.19358	-795.79631	106.19358
40950.00000	105.84277	-797.39461	105.84277
41000.00000	105.57491	-798.97956	105.57491
41050.00000	105.23592	-800.21328	105.23592
41100.00000	104.98281	-801.57073	104.98281
41150.00000	104.67352	-802.62437	104.67352
41200.00000	104.38556	-803.58172	104.38556
41250.00000	104.16018	-804.29522	104.16018
41300.00000	103.88223	-804.97657	103.88223
41350.00000	103.67162	-805.60380	103.67162
41400.00000	103.47155	-806.05345	103.47155
41450.00000	103.31314	-806.39304	103.31314
41500.00000	103.15130	-806.01135	103.15130
41550.00000	103.03696	-806.63019	103.03696
41600.00000	102.97669	-807.04127	102.97669
41650.00000	102.92477	-807.04805	102.92477
41700.00000	102.90136	-807.44940	102.90136
41750.00000	102.94152	-807.72795	102.94152
41800.00000	102.97697	-808.24671	102.97697
41850.00000	103.00958	-808.54836	103.00958
41900.00000	103.11421	-809.82276	103.11421
41950.00000	103.27145	-810.61176	103.27145
42000.00000	103.42171	-811.78299	103.42171
42050.00000	103.45221	-813.00586	103.45221
42100.00000	103.60520	-814.54676	103.60520
42150.00000	103.72216	-816.01103	103.72216
42200.00000	103.83922	-817.59795	103.83922
42250.00000	103.96249	-819.62738	103.96249
42300.00000	104.05822	-821.13343	104.05822
42350.00000	104.10984	-823.21629	104.10984
42400.00000	104.23383	-825.08772	104.23383
42450.00000	104.32889	-827.18453	104.32889
42500.00000	104.38592	-829.13794	104.38592
42550.00000	104.48765	-831.36998	104.48765
42600.00000	104.46986	-833.73238	104.46986
42650.00000	104.59969	-835.41661	104.59969
42700.00000	104.62492	-837.77515	104.62492
42750.00000	104.70894	-840.26548	104.70894
42800.00000	104.76326	-842.42508	104.76326
42850.00000	104.85162	-844.36774	104.85162
42900.00000	104.88254	-846.92505	104.88254
42950.00000	104.89455	-849.60090	104.89455
43000.00000	104.97822	-851.39172	104.97822
43050.00000	104.96622	-853.84254	104.96622
43100.00000	105.04755	-856.53984	105.04755
43150.00000	105.10945	-857.97520	105.10945
43200.00000	105.17518	-861.06474	105.17518
43250.00000	105.18288	-863.11132	105.18288
43300.00000	105.24958	-865.53257	105.24958
43350.00000	105.31607	-868.25912	105.31607
43400.00000	105.33185	-870.42998	105.33185
43450.00000	105.36498	-872.95188	105.36498
43500.00000	105.39826	-875.11418	105.39826
43550.00000	105.46460	-878.00383	105.46460
43600.00000	105.42442	-880.13150	105.42442
43650.00000	105.48398	-883.17747	105.48398
43700.00000	105.47579	-885.75873	105.47579
43750.00000	105.48728	-888.88406	105.48728
43800.00000	105.46393	-891.60506	105.46393
43850.00000	105.44871	-894.29267	105.44871
43900.00000	105.46611	-897.12178	105.46611
43950.00000	105.41511	-900.20569	105.41511
44000.00000	105.38944	-902.60973	105.38944
44050.00000	105.41242	-905.74064	105.41242
44100.00000	105.31208	-908.75735	105.31208
44150.00000	105.28263	-911.17189	105.28263
44200.00000	105.28280	-914.55172	105.28280
44250.00000	105.17434	-917.42223	105.17434
44300.00000	105.06410	-920.30053	105.06410
44350.00000	105.02859	-922.92529	105.02859
44400.00000	104.99413	-925.65769	104.99413
44450.00000	104.82022	-928.39040	104.82022
44500.00000	104.70592	-930.40581	104.70592
44550.00000	104.49538	-932.78449	104.49538
44600.00000	104.43177	-935.56831	104.43177
44650.00000	104.26740	-937.73228	104.26740
44700.00000	104.07205	-940.33323	104.07205
44750.00000	103.97779	-942.66480	103.97779
44800.00000	103.82247	-944.08863	103.82247
44850.00000	103.65366	-947.20295	103.65366
44900.00000	103.55226	-949.29347	103.55226
44950.00000	103.36794	-950.91660	103.36794
45000.00000	103.16779	-952.33980	103.16779
45050.00000	103.15733	-954.35652	103.15733
45100.00000	103.11012	-956.69534	103.11012
45150.00000	102.93929	-957.85190	102.93929
45200.00000	102.76995	-959.29360	102.76995
45250.00000	102.75305	-961.61507	102.75305
45300.00000	102.73167	-964.62867	102.73167
45350.00000	102.70009	-965.02142	102.70009
45400.00000	102.52735	-967.43754	102.52735
45450.00000	102.47347	-969.31254	102.47347
45500.00000	102.49435	-970.93348	102.49435
45550.00000	102.38704	-972.61058	102.38704
45600.00000	102.13098	-974.61259	102.13098
45650.00000	102.18222	-975.84255	102.18222
45700.00000	102.17712	-976.84395	102.17712
45750.00000	102.22700	-978.99954	102.22700
45800.00000	102.06290	-981.06966	102.06290
45850.00000	102.03044	-983.15121	102.03044
45900.00000	101.94144	-985.39665	101.94144
45950.00000	101.83134	-987.87626	101.83134
46000.00000	101.76364	-989.13580	101.76364
46050.00000	101.53326	-991.45912	101.53326
46100.00000	101.44941	-992.45935	101.44941
46150.00000	101.28350	-994.08278	101.28350
46200.00000	101.11787	-994.03768	101.11787
46250.00000	101.17292	-996.63467	101.17292
46300.00000	100.99109	-997.41191	100.99109
46350.00000	100.83540	-998.61936	100.83540
46400.00000	100.90676	-999.51220	100.90676
46450.00000	100.93446	-1000.43972	100.93446
46500.00000	100.94503	-1001.83295	100.94503
46550.00000	100.71833	-1001.33837	100.71833
46600.00000	100.83617	-1002.62265	100.83617
46650.00000	100.80891	-1004.03142	100.80891
46700.00000	100.95305	-1005.16184	100.95305
46750.00000	100.94781	-1006.13266	100.94781
46800.00000	101.04949	-1007.79409	101.04949
46850.00000	101.19650	-1008.09608	101.19650
46900.00000	101.35976	-1008.45500	101.35976
46950.00000	101.38491	-1010.27614	101.38491
47000.00000	101.64618	-1011.26123	101.64618
47050.00000	101.71012	-1012.67051	101.71012
47100.00000	101.74703	-1014.60118	101.74703
47150.00000	101.95617	-1015.12338	101.95617
47200.00000	102.10345	-1016.99826	102.10345
47250.00000	102.41500	-1018.40403	102.41500
47300.00000	102.49650	-1020.14747	102.49650
47350.00000	102.66992	-1022.07330	102.66992
47400.00000	102.78397	-1023.44548	102.78397
47450.00000	103.09913	-1024.69487	103.09913
47500.00000	103.24020	-1026.45669	103.24020
47550.00000	103.36180	-1029.08351	103.36180
47600.00000	103.65811	-1029.90342	103.65811
47650.00000	103.87795	-1032.04482	103.87795
47700.00000	104.00232	-1035.21725	104.00232
47750.00000	104.17688	-1037.26122	104.17688
47800.00000	104.39456	-1038.81207	104.39456
47850.00000	104.69893	-1041.76906	104.69893
47900.00000	104.88220	-1043.39479	104.88220
47950.00000	105.15984	-1046.24284	105.15984
48000.00000	105.35237	-1049.52443	105.35237
48050.00000	105.66518	-1050.84598	105.66518
48100.00000	105.79703	-1054.01846	105.79703
48150.00000	106.06460	-1057.04496	106.06460
48200.00000	106.16743	-1059.68041	106.16743
48250.00000	106.37946	-1063.22060	106.37946
48300.00000	106.59982	-1066.28979	106.59982
48350.00000	106.84239	-1068.99172	106.84239
48400.00000	107.00385	-1072.88400	107.00385
48450.00000	107.10333	-1075.93213	107.10333
48500.00000	107.40854	-1079.52960	107.40854
48550.00000	107.44758	-1082.77377	107.44758
48600.00000	107.62965	-1086.95500	107.62965
48650.00000	107.84093	-1090.81543	107.84093
48700.00000	107.91960	-1093.66224	107.91960
48750.00000	108.04025	-738.38160	108.04025
48800.00000	108.08819	-741.50311	108.08819
48850.00000	108.04930	-745.65988	108.04930
48900.00000	108.31182	-389.54559	108.31182
48950.00000	108.23258	-33.74464	108.23258
49000.00000	108.37715	322.66937	108.37715
49050.00000	108.36802	678.04142	108.36802
49100.00000	108.32630	1034.90445	108.32630
49150.00000	108.37578	1389.60905	108.37578
49200.00000	108.31064	1746.79374	108.31064
49250.00000	108.30591	2103.12187	108.30591
49300.00000	108.26283	2459.78797	108.26283
49350.00000	108.10608	2815.99836	108.10608
49400.00000	107.87747	3171.42367	107.87747
49450.00000	107.92858	3528.26649	107.92858
49500.00000	107.81843	3885.25586	107.81843
49550.00000	107.65297	4241.28416	107.65297
49600.00000	107.61680	4598.42036	107.61680
49650.00000	107.55264	4953.89230	107.55264
49700.00000	107.21308	5310.90994	107.21308
49750.00000	107.17662	5668.25449	107.17662
49800.00000	106.99708	5665.46799	106.99708
49850.00000	106.95772	6381.33139	106.95772
49900.00000	106.87926	6378.76671	106.87926
49950.00000	106.60115	6736.35685	106.60115
50000.00000	106.67124	6733.58928	106.67124
50050.00000	106.36497	6730.15829	106.36497
50100.00000	106.19092	6727.32323	106.19092
50150.00000	106.22555	6724.41197	106.22555
50200.00000	106.04997	6721.46066	106.04997
50250.00000	105.90625	6718.88992	105.90625
50300.00000	105.78997	6716.19968	105.78997
50350.00000	105.73281	6714.22444	105.73281
50400.00000	105.65097	6711.67347	105.65097
50450.00000	105.48291	6708.80112	105.48291
50500.00000	105.37667	6706.86500	105.37667
50550.00000	105.15500	6703.78401	105.15500
50600.00000	105.25083	6701.05827	105.25083
50650.00000	105.19339	6698.58886	105.19339
50700.00000	104.94125	6695.25248	104.94125
50750.00000	104.90168	6692.86454	104.90168
50800.00000	104.80654	6689.50603	104.80654
50850.00000	104.74299	6687.38868	104.74299
50900.00000	104.52058	6684.07989	104.52058
50950.00000	104.55390	6680.99919	104.55390
51000.00000	104.55607	6677.84855	104.55607
51050.00000	104.35801	6675.01400	104.35801
51100.00000	104.24143	6672.06139	104.24143
51150.00000	104.08390	6668.25953	104.08390
51200.00000	103.76930	6665.50401	103.76930
51250.00000	103.67350	6662.65133	103.67350
51300.00000	103.50614	6658.60629	103.50614
51350.00000	103.28093	6657.61710	103.28093
51400.00000	103.02441	6653.38630	103.02441
51450.00000	102.60647	6651.80735	102.60647
51500.00000	102.28690	6649.08704	102.28690
51550.00000	101.99743	6647.20852	101.99743
51600.00000	101.67949	6644.23039	101.67949
51650.00000	101.14878	6643.20227	101.14878
51700.00000	101.05463	6641.09913	101.05463
51750.00000	100.67719	6640.33971	100.67719
51800.00000	100.51028	6639.08313	100.51028
51850.00000	100.33344	6637.81532	100.33344
51900.00000	100.02839	6636.96985	100.02839
51950.00000	99.54923	6637.81338	99.54923
52000.00000	99.43653	6636.81716	99.43653
52050.00000	99.44991	6636.26873	99.44991
52100.00000	99.27834	6635.96235	99.27834
52150.00000	99.13502	6636.63385	99.13502
52200.00000	99.19481	6635.40554	99.19481
52250.00000	99.21647	6633.84769	99.21647
52300.00000	99.04863	6635.47902	99.04863
52350.00000	99.17603	6634.64779	99.17603
52400.00000	99.15027	6632.00590	99.15027
52450.00000	99.34539	6631.78719	99.34539
52500.00000	99.50959	6630.07447	99.50959
52550.00000	99.51064	6631.19608	99.51064
52600.00000	99.53536	6628.53256	99.53536
52650.00000	99.67342	6627.68864	99.67342
52700.00000	99.82780	6626.18181	99.82780
52750.00000	99.99857	6624.73890	99.99857
52800.00000	100.23396	6623.55114	100.23396
52850.00000	100.27353	6621.90833	100.27353
52900.00000	100.33221	6620.37953	100.33221
52950.00000	100.64071	6618.15445	100.64071
53000.00000	100.66530	6616.03463	100.66530
53050.00000	100.70086	6614.51740	100.70086
53100.00000	101.05588	6611.31764	101.05588
53150.00000	101.20402	6609.96427	101.20402
53200.00000	101.24639	6606.71795	101.24639
53250.00000	101.42657	6605.43005	101.42657
53300.00000	101.56548	6601.92515	101.56548
53350.00000	101.49351	6600.09268	101.49351
53400.00000	101.87091	6598.00763	101.87091
53450.00000	101.81028	6594.83158	101.81028
53500.00000	102.06510	6592.59062	102.06510
53550.00000	102.20654	6589.14285	102.20654
53600.00000	102.28949	6585.77440	102.28949
53650.00000	102.44270	6583.02145	102.44270
53700.00000	102.53222	6579.50116	102.53222
53750.00000	102.61933	6575.49605	102.61933
53800.00000	102.64860	6572.70807	102.64860
53850.00000	102.72196	6569.00414	102.72196
53900.00000	102.72538	6566.81565	102.72538
53950.00000	102.70707	6563.19870	102.70707
54000.00000	102.74712	6559.47896	102.74712
54050.00000	102.77385	6556.21391	102.77385
54100.00000	102.84687	6552.15478	102.84687
54150.00000	102.79322	6548.51383	102.79322
54200.00000	102.61018	6545.47470	102.61018
54250.00000	102.56829	6541.16472	102.56829
54300.00000	102.53558	6537.56558	102.53558
54350.00000	102.40719	6534.67336	102.40719
54400.00000	102.53342	6532.38861	102.53342
54450.00000	102.25098	6527.80626	102.25098
54500.00000	102.13821	6525.20331	102.13821
54550.00000	101.91220	6521.61848	101.91220
54600.00000	101.85095	6518.22506	101.85095
54650.00000	101.79915	6514.81209	101.79915
54700.00000	101.53029	6512.74131	101.53029
54750.00000	101.46348	6508.45423	101.46348
54800.00000	101.11896	6505.57523	101.11896
54850.00000	100.96995	6503.27861	100.96995
54900.00000	100.82427	6499.90264	100.82427
54950.00000	100.72348	6498.06319	100.72348
55000.00000	100.68864	6494.93268	100.68864
55050.00000	100.40293	6491.51147	100.40293
55100.00000	100.24568	6488.12583	100.24568
55150.00000	100.14922	6486.66159	100.14922
55200.00000	99.88372	6483.74525	99.88372
55250.00000	99.76655	6481.34054	99.76655
55300.00000	99.59762	6478.94747	99.59762
55350.00000	99.36153	6476.53711	99.36153
55400.00000	99.32069	6473.37059	99.32069
55450.00000	99.10677	6471.32663	99.10677
55500.00000	98.90798	6468.42351	98.90798
55550.00000	98.81752	6465.39000	98.81752
55600.00000	98.56974	6463.26718	98.56974
55650.00000	98.49295	6460.27695	98.49295
55700.00000	98.26009	6458.30405	98.26009
55750.00000	98.16631	6455.79565	98.16631
55800.00000	97.93130	6452.51716	97.93130
55850.00000	97.78760	6450.09777	97.78760
55900.00000	97.43200	6446.61917	97.43200
55950.00000	97.21623	6445.10778	97.21623
56000.00000	97.18495	6441.76720	97.18495
56050.00000	96.87849	6440.46279	96.87849
56100.00000	96.60815	6437.02923	96.60815
56150.00000	96.39220	6434.42694	96.39220
56200.00000	96.24708	6433.28950	96.24708
56250.00000	95.91503	6429.10450	95.91503
56300.00000	95.73033	6427.71031	95.73033
56350.00000	95.51266	6426.08403	95.51266
56400.00000	95.01964	6424.73858	95.01964
56450.00000	94.82152	6423.93223	94.82152
56500.00000	94.45985	6420.32778	94.45985
56550.00000	94.45190	6419.91512	94.45190
56600.00000	94.02993	6418.59225	94.02993
56650.00000	93.83423	6418.09248	93.83423
56700.00000	93.71814	6415.58338	93.71814
56750.00000	93.57030	6415.16981	93.57030
56800.00000	93.26478	6413.76406	93.26478
56850.00000	93.03006	6413.02252	93.03006
56900.00000	93.01925	6412.25258	93.01925
56950.00000	92.89520	6411.30262	92.89520
57000.00000	92.65916	6410.03275	92.65916
57050.00000	92.54687	6408.82842	92.54687
57100.00000	92.54772	6407.98522	92.54772
57150.00000	92.55987	6406.35164	92.55987
57200.00000	92.61109	6405.82548	92.61109
57250.00000	92.20162	6403.20144	92.20162
57300.00000	92.39315	6401.85750	92.39315
57350.00000	92.19295	6401.24550	92.19295
57400.00000	92.12104	6400.59398	92.12104
57450.00000	92.06792	6399.13905	92.06792
57500.00000	92.06067	6396.35366	92.06067
57550.00000	92.01025	6394.80859	92.01025
57600.00000	91.93579	6393.44319	91.93579
57650.00000	91.95739	6391.95976	91.95739
57700.00000	91.59962	6391.75441	91.59962
57750.00000	91.83309	6390.90340	91.83309
57800.00000	91.58284	6388.57035	91.58284
57850.00000	91.64714	6387.87102	91.64714
57900.00000	91.63819	6384.44235	91.63819
57950.00000	91.46768	6383.98772	91.46768
58000.00000	91.55315	6382.26705	91.55315
58050.00000	91.57857	6381.76772	91.57857
58100.00000	91.41763	6380.76254	91.41763
58150.00000	91.35067	6377.88057	91.35067
58200.00000	91.27954	6378.02887	91.27954
58250.00000	91.28218	6375.45718	91.28218
58300.00000	91.22114	6374.67793	91.22114
58350.00000	91.26808	6372.26689	91.26808
58400.00000	91.12695	6371.59560	91.12695
58450.00000	91.08575	6370.57463	91.08575
58500.00000	91.06918	6369.01360	91.06918
58550.00000	91.01525	6368.38982	91.01525
58600.00000	91.04386	6367.19656	91.04386
58650.00000	90.88657	6365.78210	90.88657
58700.00000	90.75560	6365.42680	90.75560
58750.00000	90.78625	6363.46675	90.78625
58800.00000	90.71079	6363.15438	90.71079
58850.00000	90.74178	6362.71486	90.74178
58900.00000	90.59916	6361.17591	90.59916
58950.00000	90.71155	6361.23340	90.71155
59000.00000	90.70180	6360.55704	90.70180
59050.00000	90.60432	6360.34626	90.60432
59100.00000	90.69345	6359.59648	90.69345
59150.00000	90.74908	6358.93794	90.74908
59200.00000	90.95020	6359.56755	90.95020
59250.00000	91.06870	6358.52194	91.06870
59300.00000	91.15203	6358.79352	91.15203
59350.00000	91.29991	6358.66724	91.29991
59400.00000	91.46087	6358.66831	91.46087
59450.00000	91.80725	6358.18785	91.80725
59500.00000	92.15462	6357.82529	92.15462
59550.00000	92.57160	6357.89513	92.57160
59600.00000	93.03087	6357.14103	93.03087
59650.00000	93.46322	6355.19191	93.46322
59700.00000	93.97405	6354.02215	93.97405
59750.00000	94.42100	6352.13796	94.42100
59800.00000	94.92433	6349.46806	94.92433
59850.00000	95.48232	6346.86870	95.48232
59900.00000	95.95830	6343.49207	95.95830
59950.00000	96.46671	6340.05911	96.46671
60000.00000	96.89466	6335.64538	96.89466
60050.00000	97.21449	6331.23855	97.21449
60100.00000	97.57099	6326.59208	97.57099
60150.00000	97.78421	6321.75694	97.78421
60200.00000	98.00415	6316.24693	98.00415
60250.00000	98.18285	6311.25067	98.18285
60300.00000	98.18550	6306.22219	98.18550
60350.00000	98.16623	6301.19044	98.16623
60400.00000	98.17049	6296.35389	98.17049
60450.00000	98.04400	6291.84937	98.04400
60500.00000	97.92677	6287.38726	97.92677
60550.00000	97.70589	6283.18896	97.70589
60600.00000	97.51310	6279.55554	97.51310
60650.00000	97.39355	6275.82109	97.39355
60700.00000	97.17168	6272.57061	97.17168
60750.00000	96.94340	6269.12473	96.94340
60800.00000	96.79640	6266.25210	96.79640
60850.00000	96.52623	6263.16185	96.52623
60900.00000	96.37135	6260.54807	96.37135
60950.00000	96.20464	6257.94795	96.20464
61000.00000	96.02959	6255.97596	96.02959
61050.00000	95.89055	6253.06426	95.89055
61100.00000	95.74373	6251.21212	95.74373
61150.00000	95.61517	6249.36405	95.61517
61200.00000	95.52065	6246.97228	95.52065
61250.00000	95.41012	6245.14000	95.41012
61300.00000	95.26015	6242.62204	95.26015
61350.00000	95.17696	6241.12918	95.17696
61400.00000	95.09311	6238.86192	95.09311
61450.00000	95.04117	6237.58062	95.04117
61500.00000	94.85584	6235.65648	94.85584
61550.00000	94.85585	6233.85246	94.85585
61600.00000	94.84094	6232.25716	94.84094
61650.00000	94.88290	6230.96869	94.88290
61700.00000	94.79073	6229.17393	94.79073
61750.00000	94.85372	6227.46766	94.85372
61800.00000	94.80881	6225.53892	94.80881
61850.00000	94.88783	6223.96769	94.88783
61900.00000	94.91429	6222.41990	94.91429
61950.00000	95.05040	6220.65523	95.05040
62000.00000	95.17614	6218.55826	95.17614
62050.00000	95.25728	6217.06242	95.25728
62100.00000	95.42018	6214.61030	95.42018
62150.00000	95.59597	6212.03945	95.59597
62200.00000	95.64441	6210.43834	95.64441
62250.00000	95.81763	6207.25087	95.81763
62300.00000	95.91958	6204.91392	95.91958
62350.00000	96.07840	6202.18992	96.07840
62400.00000	96.31494	6198.80834	96.31494
62450.00000	96.36461	6195.50769	96.36461
62500.00000	96.53579	6192.18090	96.53579
62550.00000	96.64830	6189.26768	96.64830
62600.00000	96.64035	6185.78347	96.64035
62650.00000	96.78212	6182.19160	96.78212
62700.00000	96.78992	6178.43674	96.78992
62750.00000	96.74693	6175.65655	96.74693
62800.00000	96.80136	6171.69574	96.80136
62850.00000	96.76260	6168.12460	96.76260
62900.00000	96.82310	6164.12600	96.82310
62950.00000	96.68145	6160.79358	96.68145
63000.00000	96.57794	6157.35680	96.57794
63050.00000	96.56438	6154.49912	96.56438
63100.00000	96.47914	6150.93225	96.47914
63150.00000	96.41968	6147.65053	96.41968
63200.00000	96.37935	6144.86490	96.37935
63250.00000	96.29054	6141.24377	96.29054
63300.00000	96.08214	6138.82819	96.08214
63350.00000	96.23104	6135.43115	96.23104
63400.00000	96.08936	6131.62695	96.08936
63450.00000	95.92552	6128.56424	95.92552
63500.00000	95.93273	6124.98383	95.93273
63550.00000	95.86332	6121.88076	95.86332
63600.00000	95.64554	6118.33218	95.64554
63650.00000	95.58631	6114.01292	95.58631
63700.00000	95.41958	6110.87020	95.41958
63750.00000	95.07426	6106.71978	95.07426
63800.00000	94.93637	6103.89162	94.93637
63850.00000	94.55638	6101.32894	94.55638
63900.00000	94.21107	6098.82359	94.21107
63950.00000	94.03519	6096.57469	94.03519
64000.00000	93.62423	6095.86222	93.62423
64050.00000	93.59943	6094.25564	93.59943
64100.00000	93.45023	6093.09016	93.45023
64150.00000	93.45464	6090.64687	93.45464
64200.00000	93.44758	6088.78437	93.44758
64250.00000	93.34781	6086.31197	93.34781
64300.00000	93.37089	6084.38790	93.37089
64350.00000	93.12121	6081.41403	93.12121
64400.00000	93.00145	6078.53082	93.00145
64450.00000	92.93235	6077.19023	92.93235
64500.00000	92.95539	6075.00127	92.95539
64550.00000	92.76311	6073.68021	92.76311
64600.00000	92.66949	6071.49501	92.66949
64650.00000	92.61335	6069.12395	92.61335
64700.00000	92.59765	6065.28476	92.59765
64750.00000	92.58270	6063.10527	92.58270
64800.00000	92.49389	6060.71290	92.49389
64850.00000	92.42192	6058.81358	92.42192
64900.00000	92.49884	6056.61063	92.49884
64950.00000	92.21400	6053.28004	92.21400
65000.00000	92.13721	6051.33501	92.13721
65050.00000	92.05588	6048.37473	92.05588
65100.00000	91.82480	6046.21561	91.82480
65150.00000	91.68856	6042.88327	91.68856
65200.00000	91.75335	6042.26388	91.75335
65250.00000	91.65245	6039.67524	91.65245
65300.00000	91.61353	6037.88160	91.61353
65350.00000	91.44376	6035.36783	91.44376
65400.00000	91.29505	6033.12405	91.29505
65450.00000	91.04455	6029.93369	91.04455
65500.00000	91.06005	6028.61686	91.06005
65550.00000	91.14597	6026.67458	91.14597
65600.00000	90.89569	6023.97789	90.89569
65650.00000	90.99628	6022.54427	90.99628
65700.00000	90.82734	6020.34292	90.82734
65750.00000	90.78917	6019.10097	90.78917
65800.00000	90.76014	6016.95220	90.76014
65850.00000	90.72829	6014.37491	90.72829
65900.00000	90.82545	6013.06541	90.82545
65950.00000	90.70490	6010.17558	90.70490
66000.00000	90.63268	6006.38277	90.63268
66050.00000	90.74643	6005.78547	90.74643
66100.00000	90.67876	6002.79841	90.67876
66150.00000	90.32464	6000.50820	90.32464
66200.00000	90.28764	5997.67576	90.28764
66250.00000	90.36351	5995.28479	90.36351
66300.00000	90.24661	5992.58097	90.24661
66350.00000	90.16809	5991.60895	90.16809
66400.00000	90.10643	5989.50100	90.10643
66450.00000	90.25897	5987.65428	90.25897
66500.00000	90.05604	5984.97059	90.05604
66550.00000	90.07316	5983.69162	90.07316
66600.00000	90.11382	5980.84295	90.11382
66650.00000	90.07631	5978.58375	90.07631
66700.00000	90.12623	5975.78939	90.12623
66750.00000	90.07066	5972.35734	90.07066
66800.00000	89.97426	5970.47616	89.97426
66850.00000	90.02522	5968.60746	90.02522
66900.00000	90.11559	5965.82098	90.11559
66950.00000	90.02816	5963.72990	90.02816
67000.00000	89.93703	5960.45337	89.93703
67050.00000	89.95354	5958.02961	89.95354
67100.00000	89.89212	5955.41342	89.89212
67150.00000	89.96748	5952.60810	89.96748
67200.00000	90.15500	5948.94085	90.15500
67250.00000	89.92422	5947.25267	89.92422
67300.00000	89.87466	5944.16374	89.87466
67350.00000	89.90304	5941.40232	89.90304
67400.00000	89.73056	5937.70250	89.73056
67450.00000	89.70501	5934.96795	89.70501
67500.00000	89.59814	5931.91883	89.59814
67550.00000	89.42674	5929.15221	89.42674
67600.00000	89.30943	5926.87814	89.30943
67650.00000	89.17778	5923.26559	89.17778
67700.00000	89.05464	5921.31778	89.05464
67750.00000	88.84793	5918.73716	88.84793
67800.00000	88.80541	5915.57503	88.80541
67850.00000	88.74907	5912.96640	88.74907
67900.00000	88.39907	5909.92828	88.39907
67950.00000	88.34149	5908.06338	88.34149
68000.00000	88.10987	5904.93075	88.10987
68050.00000	87.89661	5903.17118	87.89661
68100.00000	87.63364	5900.97036	87.63364
68150.00000	87.61348	5899.06370	87.61348
68200.00000	87.53662	5897.32540	87.53662
68250.00000	87.20957	5894.38146	87.20957
68300.00000	87.21108	5893.62242	87.21108
68350.00000	86.95582	5890.52702	86.95582
68400.00000	86.95099	5889.85706	86.95099
68450.00000	86.83249	5888.75572	86.83249
68500.00000	86.91654	5886.72920	86.91654
68550.00000	86.79406	5885.82350	86.79406
68600.00000	86.85996	5883.40385	86.85996
68650.00000	86.77230	5882.24424	86.77230
68700.00000	86.77096	5879.36560	86.77096
68750.00000	86.88738	5878.18422	86.88738
68800.00000	86.78681	5874.88583	86.78681
68850.00000	86.83867	5872.16941	86.83867
68900.00000	86.93920	5870.75167	86.93920
68950.00000	86.97426	5869.44442	86.97426
69000.00000	86.91974	5866.93250	86.91974
69050.00000	86.92779	5864.34003	86.92779
69100.00000	87.05374	5862.03406	87.05374
69150.00000	87.06854	5859.97775	87.06854
69200.00000	87.26686	5857.73764	87.26686
69250.00000	87.26922	5854.72979	87.26922
69300.00000	87.39566	5851.56074	87.39566
69350.00000	87.50486	5849.30276	87.50486
69400.00000	87.57185	5846.00316	87.57185
69450.00000	87.65023	5842.44098	87.65023
69500.00000	87.82082	5838.98513	87.82082
69550.00000	87.94649	5834.82864	87.94649
69600.00000	87.91503	5831.10120	87.91503
69650.00000	88.04144	5827.82923	88.04144
69700.00000	87.98389	5823.49690	87.98389
69750.00000	88.06288	5819.45683	88.06288
69800.00000	88.04634	5814.94847	88.04634
69850.00000	88.01803	5810.48355	88.01803
69900.00000	87.88690	5806.10200	87.88690
69950.00000	87.84001	5800.61452	87.84001
70000.00000	87.78292	5796.58673	87.78292
70050.00000	87.60553	5792.12592	87.60553
70100.00000	87.38947	5787.64076	87.38947
70150.00000	87.23262	5782.39112	87.23262
70200.00000	86.89703	5777.79017	86.89703
70250.00000	86.68616	5772.07982	86.68616
70300.00000	86.35345	5768.19143	86.35345
70350.00000	86.11236	5763.40041	86.11236
70400.00000	85.60603	5757.62354	85.60603
70450.00000	85.11019	5754.21417	85.11019
70500.00000	84.55787	5750.10784	84.55787
70550.00000	84.00957	5746.34027	84.00957
70600.00000	83.30230	5741.92513	83.30230
70650.00000	82.55020	5741.31114	82.55020
70700.00000	81.93447	5737.29367	81.93447
70750.00000	81.05694	5738.40577	81.05694
70800.00000	80.29499	5738.58310	80.29499
70850.00000	79.78262	5739.40058	79.78262
70900.00000	79.87466	5739.24449	79.87466
70950.00000	80.18416	5742.83900	80.18416
71000.00000	80.22926	5744.13671	80.22926
71050.00000	80.55864	5740.03001	80.55864
71100.00000	81.05197	5737.86819	81.05197
71150.00000	81.37338	5732.67534	81.37338
71200.00000	81.16752	5727.59110	81.16752
71250.00000	81.03704	5720.66853	81.03704
71300.00000	81.13266	5714.46424	81.13266
71350.00000	80.04870	5710.17063	80.04870
71400.00000	80.25084	5706.49992	80.25084
71450.00000	79.89103	5699.30991	79.89103
71500.00000	79.37251	5694.94473	79.37251
71550.00000	78.95972	5690.41990	78.95972
71600.00000	78.35505	5689.42767	78.35505
71650.00000	77.38554	5681.03857	77.38554
71700.00000	77.00044	5678.19511	77.00044
71750.00000	75.86003	5675.12011	75.86003
71800.00000	75.17576	5670.29326	75.17576
71850.00000	74.39180	5666.11458	74.39180
71900.00000	72.38509	5662.89824	72.38509
71950.00000	72.05503	5659.59511	72.05503
72000.00000	70.94121	5661.19091	70.94121
72050.00000	68.52891	5656.47581	68.52891
72100.00000	67.37466	5665.86352	67.37466
72150.00000	68.26333	5667.04443	68.26333
72200.00000	68.62041	5658.24371	68.62041
72250.00000	67.17125	5666.76430	67.17125
72300.00000	66.21815	5679.93126	66.21815
72350.00000	66.68571	5665.35092	66.68571
72400.00000	65.69464	5661.67279	65.69464
72450.00000	64.63800	5678.23454	64.63800
72500.00000	66.36722	5667.72522	66.36722
72550.00000	64.60912	5667.21798	64.60912
72600.00000	63.19002	5643.23122	63.19002
72650.00000	63.48234	5643.75501	63.48234
72700.00000	62.78087	5662.11331	62.78087
72750.00000	60.16664	5625.83168	60.16664
72800.00000	60.03155	5587.19742	60.03155
72850.00000	55.39523	5548.25851	55.39523
72900.00000	57.73426	5501.77614	57.73426
72950.00000	59.67180	5483.10584	59.67180
73000.00000	62.18612	5459.68486	62.18612
73050.00000	65.67801	5452.92123	65.67801
73100.00000	68.05412	5444.23459	68.05412
73150.00000	70.37580	5435.28999	70.37580
73200.00000	71.01000	5430.80420	71.01000
73250.00000	71.66598	5419.90077	71.66598
73300.00000	72.47534	5415.45233	72.47534
73350.00000	71.76005	5411.58118	71.76005
73400.00000	73.14798	5404.07998	73.14798
73450.00000	73.18182	5398.14708	73.18182
73500.00000	73.47457	5392.59541	73.47457
73550.00000	73.02804	5386.45067	73.02804
73600.00000	74.18162	5383.24425	74.18162
73650.00000	74.63748	5385.85695	74.63748
73700.00000	75.51808	5372.64387	75.51808
73750.00000	75.08945	5375.45501	75.08945
73800.00000	75.67953	5369.36286	75.67953
73850.00000	76.16342	5362.74643	76.16342
73900.00000	75.78224	5358.80794	75.78224
73950.00000	76.33900	5348.17652	76.33900
74000.00000	77.01071	5348.11490	77.01071
74050.00000	76.75060	5341.83345	76.75060
74100.00000	76.58222	5330.40218	76.58222
74150.00000	76.85107	5329.99869	76.85107
74200.00000	76.93444	5321.50502	76.93444
74250.00000	76.94249	5312.76447	76.94249
74300.00000	77.26660	5290.72698	77.26660
74350.00000	76.87014	5287.53034	76.87014
74400.00000	75.53251	5236.84728	75.53251
74450.00000	70.12750	5071.19858	70.12750
74500.00000	75.62386	4996.83042	75.62386
74550.00000	73.93322	4981.43256	73.93322
74600.00000	72.89480	4956.65687	72.89480
74650.00000	74.38964	4951.22957	74.38964
74700.00000	71.88983	4950.78104	71.88983
74750.00000	72.97480	4937.41178	72.97480
74800.00000	73.54688	4943.42232	73.54688
74850.00000	70.87286	4934.85343	70.87286
74900.00000	73.26630	4930.15604	73.26630
74950.00000	70.89147	4944.87110	70.89147
75000.00000	69.92634	4940.39887	69.92634
75050.00000	71.34309	4929.48851	71.34309
75100.00000	70.93465	4935.10950	70.93465
75150.00000	69.94160	4934.61332	69.94160
75200.00000	71.26589	4941.71663	71.26589
75250.00000	71.54083	4942.04408	71.54083
75300.00000	70.17285	4916.25395	70.17285
75350.00000	71.32284	4937.88658	71.32284
75400.00000	67.60537	4931.05415	67.60537
75450.00000	70.32351	4926.66497	70.32351
75500.00000	70.60261	4943.62302	70.60261
75550.00000	70.28317	4936.75957	70.28317
75600.00000	70.71721	4930.92335	70.71721
75650.00000	71.14009	4935.44403	71.14009
75700.00000	70.92519	4924.24389	70.92519
75750.00000	72.45967	4931.51669	72.45967
75800.00000	70.88012	4933.90096	70.88012
75850.00000	72.25960	4924.49630	72.25960
75900.00000	72.32847	4926.34055	72.32847
75950.00000	69.83617	4929.69188	69.83617
76000.00000	73.32828	4917.22353	73.32828
76050.00000	71.92033	4920.92085	71.92033
76100.00000	71.99800	4905.34127	71.99800
76150.00000	73.32255	4911.42920	73.32255
76200.00000	71.27986	4916.40206	71.27986
76250.00000	72.28671	4904.36381	72.28671
76300.00000	71.78010	4910.64411	71.78010
76350.00000	70.66102	4904.10818	70.66102
76400.00000	72.81346	4898.79252	72.81346
76450.00000	71.77869	4906.31479	71.77869
76500.00000	72.12878	4885.17909	72.12878
76550.00000	73.89151	4895.73967	73.89151
76600.00000	71.34644	4904.37606	71.34644
76650.00000	72.74108	4889.12053	72.74108
76700.00000	72.18665	4903.41742	72.18665
76750.00000	70.67896	4895.51473	70.67896
76800.00000	73.35320	4883.80049	73.35320
76850.00000	70.79117	4899.47433	70.79117
76900.00000	69.97834	4878.09259	69.97834
76950.00000	73.21998	4885.07082	73.21998
77000.00000	70.10759	4892.30928	70.10759
77050.00000	71.92785	4858.50619	71.92785
77100.00000	72.26001	4886.75832	72.26001
77150.00000	69.49459	4890.41996	69.49459
77200.00000	73.02746	4870.09206	73.02746
77250.00000	71.93864	4891.36323	71.93864
77300.00000	70.35846	4868.43984	70.35846
77350.00000	73.82206	4882.46854	73.82206
77400.00000	69.40373	4884.56165	69.40373
77450.00000	71.05638	4855.91435	71.05638
77500.00000	72.00833	4883.36621	72.00833
77550.00000	68.32746	4864.76648	68.32746
77600.00000	72.24998	4864.53169	72.24998
77650.00000	73.75038	4881.85304	73.75038
77700.00000	72.14480	4857.75994	72.14480
77750.00000	72.74539	4856.97822	72.74539
77800.00000	71.86417	4870.66398	71.86417
77850.00000	73.26290	4858.16673	73.26290
77900.00000	74.51883	4864.84637	74.51883
77950.00000	70.40609	4845.67029	70.40609
78000.00000	72.79860	4853.81239	72.79860
78050.00000	73.77243	4869.14430	73.77243
78100.00000	73.82665	4844.33822	73.82665
78150.00000	74.78233	4855.49747	74.78233
78200.00000	72.94672	4860.77168	72.94672
78250.00000	74.03220	4843.72049	74.03220
78300.00000	75.11547	4850.74563	75.11547
78350.00000	73.91323	4846.62627	73.91323
78400.00000	75.47920	4839.96702	75.47920
78450.00000	74.83438	4844.17918	74.83438
78500.00000	75.16736	4833.75965	75.16736
78550.00000	75.89127	4835.27050	75.89127
78600.00000	75.37791	4833.30400	75.37791
78650.00000	75.71468	4824.69255	75.71468
78700.00000	76.66342	4827.99991	76.66342
78750.00000	76.00757	4818.35763	76.00757
78800.00000	76.90354	4825.17381	76.90354
78850.00000	76.46879	4819.03691	76.46879
78900.00000	76.49647	4812.09948	76.49647
78950.00000	76.81244	4812.41151	76.81244
79000.00000	76.99469	4807.81129	76.99469
79050.00000	77.70473	4803.03834	77.70473
79100.00000	77.04632	4803.60257	77.04632
79150.00000	77.80740	4793.02752	77.80740
79200.00000	77.95039	4797.49609	77.95039
79250.00000	77.46477	4792.56054	77.46477
79300.00000	78.04014	4786.20170	78.04014
79350.00000	78.00432	4785.75610	78.00432
79400.00000	78.12106	4782.20304	78.12106
79450.00000	77.79137	4776.26128	77.79137
79500.00000	77.92779	4774.41699	77.92779
79550.00000	78.10476	4771.29236	78.10476
79600.00000	78.01273	4769.34108	78.01273
79650.00000	77.78133	4763.49082	77.78133
79700.00000	78.11582	4759.68563	78.11582
79750.00000	77.39903	4758.32480	77.39903
79800.00000	77.92083	4752.94833	77.92083
79850.00000	77.90981	4753.20890	77.90981
79900.00000	77.67400	4747.67065	77.67400
79950.00000	77.65812	4743.41608	77.65812
80000.00000	77.44382	4743.99479	77.44382
80050.00000	77.54220	4739.81874	77.54220
80100.00000	77.29911	4736.84416	77.29911
80150.00000	76.85491	4731.98017	76.85491
80200.00000	77.27863	4732.80304	77.27863
80250.00000	76.61520	4728.58298	76.61520
80300.00000	76.35880	4726.32014	76.35880
80350.00000	76.52610	4723.70022	76.52610
80400.00000	76.57134	4722.05599	76.57134
80450.00000	76.43332	4719.49654	76.43332
80500.00000	76.07573	4715.50863	76.07573
80550.00000	76.10126	4714.91443	76.10126
80600.00000	76.12889	4712.15567	76.12889
80650.00000	76.03402	4711.69086	76.03402
80700.00000	75.64049	4708.48573	75.64049
80750.00000	75.90995	4706.96335	75.90995
80800.00000	75.40960	4705.16071	75.40960
80850.00000	75.68635	4704.41944	75.68635
80900.00000	75.65479	4703.82061	75.65479
80950.00000	75.47401	4702.38428	75.47401
81000.00000	75.01319	4700.63613	75.01319
81050.00000	75.34422	4698.67824	75.34422
81100.00000	75.35116	4697.76337	75.35116
81150.00000	75.25184	4698.03107	75.25184
81200.00000	75.42147	4694.61971	75.42147
81250.00000	75.26250	4694.53689	75.26250
81300.00000	75.52727	4690.06695	75.52727
81350.00000	75.39007	4689.57886	75.39007
81400.00000	75.34976	4687.13866	75.34976
81450.00000	75.51603	4685.08054	75.51603
81500.00000	75.87440	4685.25313	75.87440
81550.00000	75.59841	4681.27222	75.59841
81600.00000	75.63310	4678.66688	75.63310
81650.00000	75.38149	4676.46436	75.38149
81700.00000	75.78394	4676.49069	75.78394
81750.00000	75.64180	4675.40836	75.64180
81800.00000	76.08170	4671.65571	76.08170
81850.00000	75.77171	4670.91159	75.77171
81900.00000	75.89486	4665.72509	75.89486
81950.00000	76.12731	4664.44259	76.12731
82000.00000	76.13652	4663.87578	76.13652
82050.00000	76.40259	4658.90560	76.40259
82100.00000	76.64386	4655.81003	76.64386
82150.00000	76.38961	4648.15574	76.38961
82200.00000	76.32972	4645.65109	76.32972
82250.00000	75.40597	4641.01174	75.40597
82300.00000	75.12200	4636.55735	75.12200
82350.00000	74.16892	4637.52064	74.16892
82400.00000	73.88439	4637.26774	73.88439
82450.00000	73.55199	4641.33407	73.55199
82500.00000	73.19225	4642.15734	73.19225
82550.00000	73.11849	4642.82491	73.11849
82600.00000	73.16657	4646.23019	73.16657
82650.00000	73.70917	4644.30290	73.70917
82700.00000	74.16655	4645.41103	74.16655
82750.00000	74.29062	4643.64348	74.29062
82800.00000	74.93742	4641.98566	74.93742
82850.00000	75.38020	4641.50335	75.38020
82900.00000	75.25509	4638.91350	75.25509
82950.00000	76.17319	4637.50148	76.17319
83000.00000	76.47411	4632.73848	76.47411
83050.00000	76.89584	4631.54873	76.89584
83100.00000	77.21775	4630.45838	77.21775
83150.00000	77.68420	4628.17420	77.68420
83200.00000	78.05808	4626.14574	78.05808
83250.00000	78.60880	4623.33419	78.60880
83300.00000	79.00341	4620.82113	79.00341
83350.00000	79.66824	4618.88861	79.66824
83400.00000	79.80950	4617.08591	79.80950
83450.00000	80.14658	4615.35675	80.14658
83500.00000	80.53114	4610.95708	80.53114
83550.00000	81.03275	4606.54978	81.03275
83600.00000	81.47915	4604.28948	81.47915
83650.00000	81.65034	4600.44603	81.65034
83700.00000	81.95308	4595.51269	81.95308
83750.00000	82.14829	4592.11263	82.14829
83800.00000	82.53420	4587.87708	82.53420
83850.00000	82.80489	4584.34256	82.80489
83900.00000	83.01203	4579.84899	83.01203
83950.00000	83.14424	4574.71373	83.14424
84000.00000	83.66383	4570.75345	83.66383
84050.00000	83.59401	4565.47039	83.59401
84100.00000	83.82516	4560.42220	83.82516
84150.00000	84.07634	4556.46202	84.07634
84200.00000	84.11682	4552.32825	84.11682
84250.00000	84.29490	4547.76027	84.29490
84300.00000	84.52811	4541.36048	84.52811
84350.00000	84.54874	4536.41516	84.54874
84400.00000	84.73274	4530.65251	84.73274
84450.00000	84.72204	4526.08401	84.72204
84500.00000	84.83429	4520.83670	84.83429
84550.00000	84.82712	4515.48494	84.82712
84600.00000	84.85518	4510.38104	84.85518
84650.00000	84.98515	4504.56781	84.98515
84700.00000	84.92137	4500.08019	84.92137
84750.00000	84.99359	4493.69095	84.99359
84800.00000	84.85877	4488.09868	84.85877
84850.00000	84.84356	4482.96386	84.84356
84900.00000	84.76327	4478.49657	84.76327
84950.00000	84.66429	4472.14857	84.66429
85000.00000	84.63071	4466.79962	84.63071
85050.00000	84.59986	4461.73878	84.59986
85100.00000	84.65347	4455.01364	84.65347
85150.00000	84.41068	4449.42445	84.41068
85200.00000	84.08971	4442.87576	84.08971
85250.00000	84.37713	4437.13246	84.37713
85300.00000	83.85909	4430.84279	83.85909
85350.00000	83.74215	4425.78024	83.74215
85400.00000	83.44644	4420.63225	83.44644
85450.00000	83.16006	4413.07189	83.16006
85500.00000	82.90837	4408.46063	82.90837
85550.00000	82.44754	4402.61926	82.44754
85600.00000	82.03417	4395.68173	82.03417
85650.00000	81.76977	4391.85979	81.76977
85700.00000	81.37546	4383.80981	81.37546
85750.00000	81.03804	4379.14658	81.03804
85800.00000	80.66581	4374.65505	80.66581
85850.00000	80.32924	4369.30792	80.32924
85900.00000	80.02350	4361.97946	80.02350
85950.00000	79.42203	4356.78666	79.42203
86000.00000	79.41605	4352.65049	79.41605
86050.00000	78.70204	4345.54980	78.70204
86100.00000	78.75621	4340.91081	78.75621
86150.00000	78.39310	4334.17693	78.39310
86200.00000	78.05713	4330.30983	78.05713
86250.00000	77.35932	4325.61108	77.35932
86300.00000	76.71743	4316.38810	76.71743
86350.00000	76.36796	4307.08224	76.36796
86400.00000	75.18563	4301.18875	75.18563
86450.00000	75.40090	4295.57045	75.40090
86500.00000	74.84883	4291.64387	74.84883
86550.00000	74.09867	4282.84705	74.09867
86600.00000	73.28283	4278.37564	73.28283
86650.00000	73.87622	4273.61831	73.87622
86700.00000	73.24276	4269.36238	73.24276
86750.00000	73.24279	4261.79951	73.24279
86800.00000	72.07325	4251.48539	72.07325
86850.00000	71.21836	4246.03298	71.21836
86900.00000	70.86663	4241.61486	70.86663
86950.00000	71.49094	4232.11044	71.49094
87000.00000	70.96407	4232.24995	70.96407
87050.00000	71.35254	4220.43901	71.35254
87100.00000	70.37513	4212.49414	70.37513
87150.00000	69.64283	4204.93635	69.64283
87200.00000	70.14173	4201.51152	70.14173
87250.00000	69.98670	4192.74351	69.98670
87300.00000	70.11575	4184.88564	70.11575
87350.00000	69.75190	4181.43010	69.75190
87400.00000	69.21216	4177.49547	69.21216
87450.00000	69.68065	4166.83555	69.68065
87500.00000	68.73581	4160.36126	68.73581
87550.00000	68.68109	4152.95522	68.68109
87600.00000	68.25551	4148.85316	68.25551
87650.00000	68.07551	4142.25133	68.07551
87700.00000	68.96672	4136.48912	68.96672
87750.00000	68.73490	4125.57878	68.73490
87800.00000	68.03600	4121.92610	68.03600
87850.00000	67.50168	4121.62039	67.50168
87900.00000	67.44226	4114.43880	67.44226
87950.00000	67.19289	4107.45725	67.19289
88000.00000	66.45387	4106.73965	66.45387
88050.00000	66.47010	4103.65187	66.47010
88100.00000	66.26000	4104.80766	66.26000
88150.00000	65.77050	4098.03404	65.77050
88200.00000	65.94153	4086.30439	65.94153
88250.00000	66.67662	4095.99055	66.67662
88300.00000	65.53440	4090.11913	65.53440
88350.00000	65.80818	4081.98377	65.80818
88400.00000	66.38331	4078.71086	66.38331
88450.00000	65.51054	4083.45335	65.51054
88500.00000	64.40670	4082.31136	64.40670
88550.00000	65.23669	4073.36793	65.23669
88600.00000	65.00652	4074.04001	65.00652
88650.00000	65.25433	4069.96131	65.25433
88700.00000	64.38146	4066.88099	64.38146
88750.00000	64.18880	4065.21410	64.18880
88800.00000	64.43191	4067.11042	64.43191
88850.00000	63.92571	4067.30028	63.92571
88900.00000	64.94711	4063.69441	64.94711
88950.00000	64.14691	4060.28830	64.14691
89000.00000	63.76959	4059.82672	63.76959
89050.00000	62.65879	4057.26619	62.65879
89100.00000	63.15687	4051.31163	63.15687
89150.00000	64.43666	4057.25618	64.43666
89200.00000	64.32313	4050.20092	64.32313
89250.00000	64.87189	4055.29663	64.87189
89300.00000	63.93961	4052.37784	63.93961
89350.00000	63.67370	4047.26353	63.67370
89400.00000	64.12367	4048.86779	64.12367
89450.00000	65.17567	4049.10409	65.17567
89500.00000	64.09306	4045.98349	64.09306
89550.00000	64.48176	4050.14465	64.48176
89600.00000	65.57870	4048.04614	65.57870
89650.00000	65.38078	4045.23108	65.38078
89700.00000	65.73282	4043.72396	65.73282
89750.00000	64.34156	4035.51723	64.34156
89800.00000	65.46097	4042.32079	65.46097
89850.00000	65.76122	4036.30839	65.76122
89900.00000	65.68448	4037.86208	65.68448
89950.00000	65.89388	4040.58090	65.89388
90000.00000	65.57569	4054.04886	65.57569
90050.00000	66.18437	4051.84851	66.18437
90100.00000	70.13348	4056.53867	70.13348
90150.00000	70.68015	4052.44444	70.68015
90200.00000	73.80946	4044.91161	73.80946
90250.00000	75.78593	4023.41803	75.78593
90300.00000	76.16777	4002.91833	76.16777
90350.00000	74.24244	3988.96176	74.24244
90400.00000	73.25941	3985.60276	73.25941
90450.00000	74.27079	3981.57477	74.27079
90500.00000	72.40533	3973.36357	72.40533
90550.00000	72.56498	3970.71982	72.56498
90600.00000	72.42038	3969.01738	72.42038
90650.00000	72.55507	3960.64107	72.55507
90700.00000	72.19202	3956.20401	72.19202
90750.00000	72.30102	3955.10712	72.30102
90800.00000	72.85458	3950.00579	72.85458
90850.00000	72.56309	3948.71665	72.56309
90900.00000	72.68895	3941.35150	72.68895
90950.00000	72.58743	3936.71342	72.58743
91000.00000	72.66474	3931.18551	72.66474
91050.00000	72.23320	3926.15095	72.23320
91100.00000	72.57839	3919.77101	72.57839
91150.00000	72.30321	3917.16683	72.30321
91200.00000	73.09325	3909.67046	73.09325
91250.00000	72.45057	3903.23674	72.45057
91300.00000	72.36432	3899.23332	72.36432
91350.00000	71.87258	3896.55786	71.87258
91400.00000	71.87854	3890.57212	71.87854
91450.00000	71.77975	3891.21096	71.77975
91500.00000	71.89897	3884.44552	71.89897
91550.00000	71.21667	3870.45039	71.21667
91600.00000	70.71347	3874.60684	70.71347
91650.00000	69.57650	3866.48494	69.57650
91700.00000	69.95998	3858.77229	69.95998
91750.00000	68.57283	3851.71085	68.57283
91800.00000	69.16787	3852.58682	69.16787
91850.00000	68.06778	3846.28670	68.06778
91900.00000	66.93447	3846.50133	66.93447
91950.00000	67.69040	3838.16801	67.69040
92000.00000	65.34235	3838.92578	65.34235
92050.00000	64.46604	3832.41771	64.46604
92100.00000	65.17935	3827.18684	65.17935
92150.00000	63.70028	3817.62001	63.70028
92200.00000	61.50838	3819.41438	61.50838
92250.00000	62.40864	3817.37155	62.40864
92300.00000	60.99966	3813.59566	60.99966
92350.00000	60.08313	3809.95372	60.08313
92400.00000	58.06869	3819.30729	58.06869
92450.00000	56.69694	3815.39828	56.69694
92500.00000	53.60169	3799.30751	53.60169
92550.00000	52.89262	3779.69656	52.89262
92600.00000	46.05384	3804.32903	46.05384
92650.00000	50.64562	3947.45041	50.64562
92700.00000	42.61704	3952.89156	42.61704
92750.00000	55.11195	3988.75945	55.11195
92800.00000	55.33649	3932.71525	55.33649
92850.00000	57.89667	3929.49443	57.89667
92900.00000	56.13753	3953.61626	56.13753
92950.00000	57.73204	3931.63447	57.73204
93000.00000	60.29686	3928.65746	60.29686
93050.00000	61.46652	3943.06796	61.46652
93100.00000	60.48382	3923.34521	60.48382
93150.00000	63.55787	3932.14392	63.55787
93200.00000	61.71614	3925.61539	61.71614
93250.00000	63.58287	3918.38303	63.58287
93300.00000	64.99880	3917.17669	64.99880
93350.00000	64.76616	3926.47103	64.76616
93400.00000	64.79382	3926.40602	64.79382
93450.00000	65.13604	3923.83799	65.13604
93500.00000	66.14296	3916.68631	66.14296
93550.00000	66.98819	3913.13166	66.98819
93600.00000	66.80550	3902.47501	66.80550
93650.00000	67.35613	3901.07398	67.35613
93700.00000	67.83904	3902.15424	67.83904
93750.00000	67.56869	3902.04610	67.56869
93800.00000	66.47183	3895.33577	66.47183
93850.00000	68.04614	3893.92334	68.04614
93900.00000	68.69199	3881.30783	68.69199
93950.00000	68.25246	3879.23338	68.25246
94000.00000	68.93854	3881.15854	68.93854
94050.00000	67.08649	3881.20728	67.08649
94100.00000	69.61581	3875.78049	69.61581
94150.00000	69.75720	3863.68340	69.75720
94200.00000	69.07482	3869.27431	69.07482
94250.00000	69.56921	3860.89531	69.56921
94300.00000	69.45970	3856.14345	69.45970
94350.00000	69.79390	3861.67728	69.79390
94400.00000	69.61647	3858.71878	69.61647
94450.00000	70.68373	3850.41966	70.68373
94500.00000	70.26036	3849.54896	70.26036
94550.00000	70.80280	3846.02975	70.80280
94600.00000	71.44423	3841.74241	71.44423
94650.00000	70.10287	3836.86889	70.10287
94700.00000	70.31757	3828.25475	70.31757
94750.00000	69.95759	3823.06503	69.95759
94800.00000	71.23165	3823.73721	71.23165
94850.00000	70.60865	3818.83418	70.60865
94900.00000	70.59543	3816.50024	70.59543
94950.00000	70.03670	3811.65670	70.03670
95000.00000	70.41852	3809.91315	70.41852
95050.00000	69.37328	3791.38667	69.37328
95100.00000	69.55009	3797.54989	69.55009
95150.00000	69.05902	3791.91262	69.05902
95200.00000	68.76632	3785.74848	68.76632
95250.00000	68.23855	3788.13508	68.23855
95300.00000	68.81927	3780.43528	68.81927
95350.00000	68.49032	3778.82777	68.49032
95400.00000	67.26154	3775.38028	67.26154
95450.00000	67.42233	3774.52644	67.42233
95500.00000	66.62066	3777.72038	66.62066
95550.00000	66.37147	3767.77782	66.37147
95600.00000	66.50171	3763.18507	66.50171
95650.00000	67.77245	3763.83748	67.77245
95700.00000	67.70568	3763.77353	67.70568
95750.00000	65.73395	3767.38031	65.73395
95800.00000	66.77906	3757.86263	66.77906
95850.00000	67.68243	3762.42362	67.68243
95900.00000	68.83308	3767.26471	68.83308
95950.00000	67.46698	3779.96851	67.46698
96000.00000	67.16633	3762.77941	67.16633
96050.00000	69.24172	3753.40344	69.24172
96100.00000	71.39236	3760.52495	71.39236
96150.00000	69.61447	3733.83781	69.61447
96200.00000	72.24303	3741.09395	72.24303
96250.00000	72.27880	3724.40518	72.27880
96300.00000	71.01681	3728.72378	71.01681
96350.00000	72.96720	3716.44917	72.96720
96400.00000	73.32660	3715.78118	73.32660
96450.00000	72.49507	3717.31141	72.49507
96500.00000	74.18567	3709.46745	74.18567
96550.00000	72.94665	3710.07120	72.94665
96600.00000	73.51059	3698.15993	73.51059
96650.00000	73.68114	3693.77429	73.68114
96700.00000	72.70709	3687.53616	72.70709
96750.00000	75.05214	3683.37267	75.05214
96800.00000	75.33327	3675.93840	75.33327
96850.00000	75.04782	3668.33913	75.04782
96900.00000	76.25682	3661.06786	76.25682
96950.00000	78.00890	3656.33578	78.00890
97000.00000	76.16835	3645.68231	76.16835
97050.00000	75.86756	3655.14205	75.86756
97100.00000	77.82548	3653.02639	77.82548
97150.00000	79.80168	3629.26194	79.80168
97200.00000	78.26886	3631.46472	78.26886
97250.00000	78.15350	3609.09001	78.15350
97300.00000	79.56641	3582.77507	79.56641
97350.00000	75.16489	3557.06852	75.16489
97400.00000	73.30955	3549.29119	73.30955
97450.00000	69.40990	3548.92170	69.40990
97500.00000	69.73153	3575.24696	69.73153
97550.00000	67.98601	3575.47123	67.98601
97600.00000	67.41544	3566.79102	67.41544
97650.00000	65.49967	3580.95004	65.49967
97700.00000	67.62499	3562.35358	67.62499
97750.00000	65.56122	3571.73839	65.56122
97800.00000	64.50711	3572.51193	64.50711
97850.00000	62.18854	3564.74555	62.18854
97900.00000	59.42722	3572.27380	59.42722
97950.00000	62.00169	3587.61971	62.00169
98000.00000	65.39699	3564.45788	65.39699
98050.00000	61.34582	3595.50217	61.34582
98100.00000	56.26441	3581.29024	56.26441
98150.00000	60.26167	3579.32016	60.26167
98200.00000	63.66198	3556.56756	63.66198
98250.00000	62.94348	3575.48938	62.94348
98300.00000	60.65128	3591.37323	60.65128
98350.00000	58.17376	3586.40122	58.17376
98400.00000	61.80173	3554.89077	61.80173
98450.00000	56.06537	3549.81191	56.06537
98500.00000	59.70412	3575.86056	59.70412
98550.00000	59.82768	3575.30552	59.82768
98600.00000	55.01960	3576.28904	55.01960
98650.00000	54.85960	3540.75610	54.85960
98700.00000	56.26015	3559.34676	56.26015
98750.00000	55.93238	3576.58161	55.93238
98800.00000	55.30533	3566.06029	55.30533
98850.00000	53.68538	3616.41518	53.68538
98900.00000	57.59535	3548.15126	57.59535
98950.00000	52.02391	3584.13998	52.02391
99000.00000	55.75947	3588.00264	55.75947
99050.00000	56.50721	3521.27188	56.50721
99100.00000	47.12322	3556.92367	47.12322
99150.00000	52.48304	3581.54978	52.48304
99200.00000	43.98422	3534.24475	43.98422
99250.00000	51.11482	3458.72031	51.11482
99300.00000	49.77938	3625.17140	49.77938
99350.00000	44.17222	3698.24744	44.17222
99400.00000	49.67039	3868.85631	49.67039
99450.00000	51.19876	3968.57152	51.19876
99500.00000	49.48995	3947.51016	49.48995
99550.00000	49.25078	4020.57222	49.25078
99600.00000	27.99695	4167.56069	27.99695
99650.00000	34.54255	4045.14257	34.54255
99700.00000	45.62795	4188.53723	45.62795
99750.00000	50.72530	4146.98623	50.72530
99800.00000	47.41542	4087.60871	47.41542
99850.00000	47.97729	4214.68417	47.97729
99900.00000	47.54035	4390.14561	47.54035
99950.00000	36.17685	4358.05207	36.17685
