---ACOUSTIC CALIBRATION---
Filename: C:\Data\CL0809 DATA\CL08090\RightPrimary.calib
Date: 8/9/2019 8:46:30 AM
Format: 4
Probe Tube Correction File: C:\Data\Probe Tube Calibrations\74_ProbeTube.calib
Experiment VIs: 2128
EPL_CFTS.exe V15.0.1f5 (2015)
DAQmx V15.1

Attenuation (dB): 40.000000
Min Freq (Hz): 50.000000
Max Freq (Hz): 99950.000000
Freq Step (Hz): 50.000000
Sample Rate (Hz): 200000.000000
[Smoothing]
Method=None
MA.Iterations=0
MA.Length=0
Loess.Length=0
Loess.Type=Linear
Loess.Robust=FALSE


Freq(Hz)	Mag(dB)	Phase(deg)	Unsmoothed(dB)

50.00000	87.89889	305.19426	87.89889
100.00000	57.89825	249.38858	57.89825
150.00000	59.40843	424.94865	59.40843
200.00000	50.70367	515.69077	50.70367
250.00000	51.86257	690.62701	51.86257
300.00000	59.71655	795.31156	59.71655
350.00000	62.74984	948.02816	62.74984
400.00000	63.88197	1019.44380	63.88197
450.00000	68.84143	1062.71232	68.84143
500.00000	73.77747	1186.82813	73.77747
550.00000	80.33052	1118.05713	80.33052
600.00000	78.85906	1080.99470	78.85906
650.00000	86.21987	1073.33483	86.21987
700.00000	83.89273	1065.88090	83.89273
750.00000	87.06935	1040.85301	87.06935
800.00000	87.48940	1032.87218	87.48940
850.00000	86.25047	1036.22407	86.25047
900.00000	87.49598	1045.12819	87.49598
950.00000	90.27012	1045.16892	90.27012
1000.00000	92.68208	1051.39104	92.68208
1050.00000	96.02513	1042.05109	96.02513
1100.00000	99.00611	1030.03685	99.00611
1150.00000	101.37720	1014.82506	101.37720
1200.00000	102.94393	997.31876	102.94393
1250.00000	103.59619	980.51013	103.59619
1300.00000	103.95789	968.26016	103.95789
1350.00000	104.47475	959.47835	104.47475
1400.00000	105.68395	950.31760	105.68395
1450.00000	106.62640	935.00364	106.62640
1500.00000	106.90624	920.30621	106.90624
1550.00000	106.74781	905.91007	106.74781
1600.00000	106.68432	897.59811	106.68432
1650.00000	106.60628	890.40482	106.60628
1700.00000	109.79487	873.71608	109.79487
1750.00000	106.14906	853.16809	106.14906
1800.00000	105.40209	848.52374	105.40209
1850.00000	104.80211	841.32447	104.80211
1900.00000	104.46432	834.56966	104.46432
1950.00000	103.67571	829.17724	103.67571
2000.00000	103.13227	825.04564	103.13227
2050.00000	102.79438	823.45743	102.79438
2100.00000	103.41652	821.23188	103.41652
2150.00000	104.13682	811.64041	104.13682
2200.00000	103.97464	797.70478	103.97464
2250.00000	102.89321	788.26163	102.89321
2300.00000	102.05371	784.57486	102.05371
2350.00000	101.98283	778.64672	101.98283
2400.00000	101.77177	770.68072	101.77177
2450.00000	101.02155	761.10136	101.02155
2500.00000	99.91060	756.47475	99.91060
2550.00000	99.42686	751.19355	99.42686
2600.00000	98.74193	745.33707	98.74193
2650.00000	97.95234	740.62971	97.95234
2700.00000	97.12710	735.27086	97.12710
2750.00000	96.23037	730.86614	96.23037
2800.00000	95.45419	726.35510	95.45419
2850.00000	94.64119	723.07651	94.64119
2900.00000	93.80923	719.43011	93.80923
2950.00000	92.99814	716.26368	92.99814
3000.00000	92.15056	713.53564	92.15056
3050.00000	91.23119	710.82938	91.23119
3100.00000	90.32695	708.25770	90.32695
3150.00000	89.31885	706.81974	89.31885
3200.00000	88.49668	705.05352	88.49668
3250.00000	87.78747	704.55670	87.78747
3300.00000	86.81351	703.59442	86.81351
3350.00000	85.99995	702.91223	85.99995
3400.00000	85.10108	703.89564	85.10108
3450.00000	84.42510	704.06046	84.42510
3500.00000	83.69881	704.52571	83.69881
3550.00000	83.38263	703.78709	83.38263
3600.00000	82.54631	700.58046	82.54631
3650.00000	81.56270	698.45166	81.56270
3700.00000	80.34929	694.20616	80.34929
3750.00000	78.69019	689.47345	78.69019
3800.00000	76.22715	683.23005	76.22715
3850.00000	71.95388	675.13773	71.95388
3900.00000	62.87343	678.82582	62.87343
3950.00000	61.73529	805.61930	61.73529
4000.00000	68.95929	822.75933	68.95929
4050.00000	73.42465	827.29229	73.42465
4100.00000	76.37194	829.35975	76.37194
4150.00000	79.60882	825.75706	79.60882
4200.00000	81.39424	818.16618	81.39424
4250.00000	80.58740	801.55943	80.58740
4300.00000	80.28742	825.67333	80.28742
4350.00000	83.23064	826.37621	83.23064
4400.00000	85.10293	822.26707	85.10293
4450.00000	86.10814	816.59097	86.10814
4500.00000	87.07524	812.56930	87.07524
4550.00000	87.73874	808.75191	87.73874
4600.00000	88.38424	804.06194	88.38424
4650.00000	88.64742	801.53127	88.64742
4700.00000	89.04027	801.93533	89.04027
4750.00000	89.77626	801.59089	89.77626
4800.00000	90.66929	801.35113	90.66929
4850.00000	91.60699	799.93277	91.60699
4900.00000	92.64176	797.40523	92.64176
4950.00000	93.71421	794.62191	93.71421
5000.00000	94.81561	790.98701	94.81561
5050.00000	95.99736	786.84785	95.99736
5100.00000	97.30924	781.89080	97.30924
5150.00000	98.86177	775.61568	98.86177
5200.00000	100.83161	766.43146	100.83161
5250.00000	103.41814	749.95008	103.41814
5300.00000	105.62089	712.70355	105.62089
5350.00000	102.13083	665.38651	102.13083
5400.00000	95.53736	649.17994	95.53736
5450.00000	89.58319	661.10077	89.58319
5500.00000	87.83263	690.03514	87.83263
5550.00000	88.80674	697.70325	88.80674
5600.00000	87.25344	698.98291	87.25344
5650.00000	86.40394	719.36778	86.40394
5700.00000	88.10905	732.39734	88.10905
5750.00000	89.83484	735.63652	89.83484
5800.00000	91.11570	735.22439	91.11570
5850.00000	92.12631	733.21423	92.12631
5900.00000	92.93657	729.80915	92.93657
5950.00000	93.61502	726.07371	93.61502
6000.00000	93.99722	721.93228	93.99722
6050.00000	94.18545	717.78540	94.18545
6100.00000	94.14821	714.73830	94.14821
6150.00000	94.02811	713.17264	94.02811
6200.00000	94.00730	713.88882	94.00730
6250.00000	94.17528	715.72945	94.17528
6300.00000	94.65602	718.11652	94.65602
6350.00000	95.46104	720.11686	95.46104
6400.00000	96.52245	720.35523	96.52245
6450.00000	97.72619	718.68215	97.72619
6500.00000	98.89278	715.18959	98.89278
6550.00000	99.97549	710.27026	99.97549
6600.00000	100.93138	704.31336	100.93138
6650.00000	101.78457	697.56413	101.78457
6700.00000	102.54489	690.27719	102.54489
6750.00000	103.20161	682.45458	103.20161
6800.00000	103.75724	673.83717	103.75724
6850.00000	104.12410	664.53159	104.12410
6900.00000	104.27294	655.42461	104.27294
6950.00000	104.28216	646.63922	104.28216
7000.00000	104.18803	638.41615	104.18803
7050.00000	104.00943	630.45887	104.00943
7100.00000	103.74609	622.94237	103.74609
7150.00000	103.43025	615.92149	103.43025
7200.00000	103.09592	609.32094	103.09592
7250.00000	102.67821	603.01771	102.67821
7300.00000	102.25059	597.23336	102.25059
7350.00000	101.82614	591.79701	101.82614
7400.00000	101.36688	586.86763	101.36688
7450.00000	100.95072	581.98747	100.95072
7500.00000	100.48583	577.36589	100.48583
7550.00000	99.99375	572.76722	99.99375
7600.00000	99.50031	568.68795	99.50031
7650.00000	98.98457	564.62246	98.98457
7700.00000	98.40248	561.08818	98.40248
7750.00000	97.86727	557.98280	97.86727
7800.00000	97.33472	555.13158	97.33472
7850.00000	96.78661	552.69584	96.78661
7900.00000	96.29887	550.59929	96.29887
7950.00000	95.86134	548.60353	95.86134
8000.00000	95.37440	547.13048	95.37440
8050.00000	94.97221	545.63832	94.97221
8100.00000	94.53115	544.40282	94.53115
8150.00000	94.12788	543.32721	94.12788
8200.00000	93.82409	542.37460	93.82409
8250.00000	93.55290	541.90176	93.55290
8300.00000	93.29734	540.88343	93.29734
8350.00000	93.03796	539.98663	93.03796
8400.00000	92.87280	538.59926	92.87280
8450.00000	92.70811	537.77833	92.70811
8500.00000	92.52636	536.79050	92.52636
8550.00000	92.34830	535.96806	92.34830
8600.00000	92.19472	534.95972	92.19472
8650.00000	92.10225	533.86321	92.10225
8700.00000	92.00365	532.91396	92.00365
8750.00000	91.86961	531.51893	91.86961
8800.00000	91.82165	530.91898	91.82165
8850.00000	91.74368	529.04492	91.74368
8900.00000	91.56790	528.23278	91.56790
8950.00000	91.56324	527.45535	91.56324
9000.00000	91.49948	526.07448	91.49948
9050.00000	91.45925	524.81748	91.45925
9100.00000	91.38874	524.34480	91.38874
9150.00000	91.36179	523.22257	91.36179
9200.00000	91.35213	522.22823	91.35213
9250.00000	91.34440	520.93009	91.34440
9300.00000	91.31694	519.57948	91.31694
9350.00000	91.38728	518.43695	91.38728
9400.00000	91.38415	517.07142	91.38415
9450.00000	91.45938	515.47715	91.45938
9500.00000	91.54384	514.70964	91.54384
9550.00000	91.53635	512.94293	91.53635
9600.00000	91.65651	511.70693	91.65651
9650.00000	91.79278	510.00391	91.79278
9700.00000	91.84565	508.44890	91.84565
9750.00000	91.88956	506.40726	91.88956
9800.00000	91.91905	504.58331	91.91905
9850.00000	91.93718	502.99484	91.93718
9900.00000	91.93181	501.46784	91.93181
9950.00000	91.82200	500.52014	91.82200
10000.00000	91.69786	501.06447	91.69786
10050.00000	91.91937	503.89036	91.91937
10100.00000	92.88369	504.43187	92.88369
10150.00000	93.62839	499.61351	93.62839
10200.00000	93.92419	494.93958	93.92419
10250.00000	94.02035	491.07707	94.02035
10300.00000	94.14458	488.03888	94.14458
10350.00000	94.27310	484.90265	94.27310
10400.00000	94.38375	482.39435	94.38375
10450.00000	94.58688	479.13598	94.58688
10500.00000	94.79956	476.05459	94.79956
10550.00000	95.00099	472.99749	95.00099
10600.00000	95.25568	469.40053	95.25568
10650.00000	95.47693	465.77470	95.47693
10700.00000	95.68910	461.95122	95.68910
10750.00000	95.91932	457.99331	95.91932
10800.00000	96.11943	453.36553	96.11943
10850.00000	96.30896	448.86374	96.30896
10900.00000	96.48854	444.27989	96.48854
10950.00000	96.60395	439.38721	96.60395
11000.00000	96.75517	434.55435	96.75517
11050.00000	96.79106	429.32724	96.79106
11100.00000	96.82935	424.05054	96.82935
11150.00000	96.80558	418.55754	96.80558
11200.00000	96.74514	413.12299	96.74514
11250.00000	96.58696	407.39081	96.58696
11300.00000	96.41413	402.07785	96.41413
11350.00000	96.21549	396.38096	96.21549
11400.00000	95.92657	390.76493	95.92657
11450.00000	95.62365	385.22233	95.62365
11500.00000	95.27030	379.80340	95.27030
11550.00000	94.91669	374.50464	94.91669
11600.00000	94.51886	369.56156	94.51886
11650.00000	94.10041	364.90696	94.10041
11700.00000	93.70819	360.17691	93.70819
11750.00000	93.22709	355.66950	93.22709
11800.00000	92.83278	352.02440	92.83278
11850.00000	92.42677	347.61526	92.42677
11900.00000	91.92731	344.28663	91.92731
11950.00000	91.52790	341.01700	91.52790
12000.00000	91.08840	337.88758	91.08840
12050.00000	90.65374	335.04081	90.65374
12100.00000	90.11879	332.22559	90.11879
12150.00000	89.65987	329.30996	89.65987
12200.00000	89.24555	325.97407	89.24555
12250.00000	88.74581	323.09138	88.74581
12300.00000	88.11957	320.44553	88.11957
12350.00000	87.69601	317.14765	87.69601
12400.00000	87.14643	313.40579	87.14643
12450.00000	86.80298	310.27446	86.80298
12500.00000	86.34136	307.71667	86.34136
12550.00000	85.78667	304.78327	85.78667
12600.00000	85.42921	300.47312	85.42921
12650.00000	85.01290	297.30637	85.01290
12700.00000	84.49424	293.74498	84.49424
12750.00000	84.04323	291.28562	84.04323
12800.00000	83.64672	287.83752	83.64672
12850.00000	83.07966	284.59841	83.07966
12900.00000	82.45238	280.06066	82.45238
12950.00000	82.04496	275.53635	82.04496
13000.00000	81.68284	270.32203	81.68284
13050.00000	81.26714	263.34177	81.26714
13100.00000	80.79337	258.47546	80.79337
13150.00000	80.71781	252.60747	80.71781
13200.00000	80.70323	243.91250	80.70323
13250.00000	80.91205	234.65916	80.91205
13300.00000	81.35051	229.13726	81.35051
13350.00000	82.16497	223.42864	82.16497
13400.00000	82.71089	222.06639	82.71089
13450.00000	83.75990	226.58312	83.75990
13500.00000	83.24251	234.86604	83.24251
13550.00000	81.79029	234.01667	81.79029
13600.00000	80.32073	231.62055	80.32073
13650.00000	78.97674	220.08105	78.97674
13700.00000	78.18398	208.41407	78.18398
13750.00000	77.80069	193.32829	77.80069
13800.00000	77.72857	179.86716	77.72857
13850.00000	78.30578	165.52056	78.30578
13900.00000	78.79721	150.27768	78.79721
13950.00000	80.48662	136.41924	80.48662
14000.00000	82.08330	126.09635	82.08330
14050.00000	84.39034	119.55265	84.39034
14100.00000	86.72591	117.21673	86.72591
14150.00000	88.50498	124.37191	88.50498
14200.00000	88.72804	135.63378	88.72804
14250.00000	87.94988	141.88885	87.94988
14300.00000	86.61144	141.39017	86.61144
14350.00000	85.63378	136.48610	85.63378
14400.00000	85.10210	128.97012	85.10210
14450.00000	84.91774	120.88756	84.91774
14500.00000	84.69804	111.65818	84.69804
14550.00000	84.82596	104.00346	84.82596
14600.00000	85.31069	94.28900	85.31069
14650.00000	85.89994	86.43317	85.89994
14700.00000	86.85572	78.44441	86.85572
14750.00000	87.93815	72.54078	87.93815
14800.00000	88.74893	67.61520	88.74893
14850.00000	90.01372	65.21882	90.01372
14900.00000	91.08049	64.25395	91.08049
14950.00000	91.78975	67.07602	91.78975
15000.00000	91.87990	67.25070	91.87990
15050.00000	91.92185	69.05240	91.92185
15100.00000	91.66396	67.77457	91.66396
15150.00000	91.20122	65.61801	91.20122
15200.00000	91.08540	61.77582	91.08540
15250.00000	90.83689	56.63797	90.83689
15300.00000	90.91567	50.75600	90.91567
15350.00000	91.27498	45.80238	91.27498
15400.00000	91.34490	40.63429	91.34490
15450.00000	91.87386	33.09439	91.87386
15500.00000	92.38369	29.14253	92.38369
15550.00000	92.91686	25.73407	92.91686
15600.00000	93.58512	22.88946	93.58512
15650.00000	94.09486	21.51422	94.09486
15700.00000	94.33375	20.31247	94.33375
15750.00000	94.70779	20.04016	94.70779
15800.00000	94.69578	18.33441	94.69578
15850.00000	94.82850	17.43627	94.82850
15900.00000	94.78572	14.25471	94.78572
15950.00000	94.75251	11.66455	94.75251
16000.00000	94.76587	 8.25051	94.76587
16050.00000	95.00945	 4.17295	95.00945
16100.00000	95.19665	-0.08816	95.19665
16150.00000	95.55083	-4.48795	95.55083
16200.00000	95.94537	-7.75567	95.94537
16250.00000	96.37711	-12.02530	96.37711
16300.00000	96.68999	-15.31202	96.68999
16350.00000	97.03490	-17.68115	97.03490
16400.00000	97.40681	-20.46809	97.40681
16450.00000	97.60574	-23.11615	97.60574
16500.00000	97.85653	-26.17537	97.85653
16550.00000	98.00422	-28.97232	98.00422
16600.00000	98.06797	-32.02553	98.06797
16650.00000	98.13525	-36.12478	98.13525
16700.00000	98.26171	-40.06600	98.26171
16750.00000	98.32675	-44.53640	98.32675
16800.00000	98.47840	-48.12251	98.47840
16850.00000	98.69587	-52.17480	98.69587
16900.00000	98.80576	-56.03537	98.80576
16950.00000	98.95340	-59.94697	98.95340
17000.00000	99.16290	-63.24553	99.16290
17050.00000	99.22143	-65.84245	99.22143
17100.00000	99.39392	-69.25006	99.39392
17150.00000	99.39151	-72.26408	99.39151
17200.00000	99.41426	-75.62018	99.41426
17250.00000	99.41443	-79.05355	99.41443
17300.00000	99.42019	-82.50968	99.42019
17350.00000	99.43020	-86.23096	99.43020
17400.00000	99.48444	-89.91392	99.48444
17450.00000	99.56480	-93.41925	99.56480
17500.00000	99.57362	-97.25127	99.57362
17550.00000	99.59621	-100.51888	99.59621
17600.00000	99.64597	-103.87634	99.64597
17650.00000	99.71613	-106.71176	99.71613
17700.00000	99.76300	-109.66375	99.76300
17750.00000	99.75193	-112.82033	99.75193
17800.00000	99.73636	-115.72193	99.73636
17850.00000	99.78672	-118.74370	99.78672
17900.00000	99.79934	-121.67549	99.79934
17950.00000	99.71336	-124.55213	99.71336
18000.00000	99.74911	-127.75541	99.74911
18050.00000	99.71936	-130.94795	99.71936
18100.00000	99.72381	-133.99045	99.72381
18150.00000	99.66452	-137.15317	99.66452
18200.00000	99.71125	-140.17679	99.71125
18250.00000	99.65360	-143.04109	99.65360
18300.00000	99.63934	-146.24669	99.63934
18350.00000	99.60355	-149.33632	99.60355
18400.00000	99.58447	-152.02405	99.58447
18450.00000	99.53805	-154.75208	99.53805
18500.00000	99.50690	-157.51343	99.50690
18550.00000	99.51117	-160.56574	99.51117
18600.00000	99.45483	-163.21962	99.45483
18650.00000	99.40365	-165.92990	99.40365
18700.00000	99.41531	-168.60335	99.41531
18750.00000	99.32422	-171.10367	99.32422
18800.00000	99.31141	-174.09365	99.31141
18850.00000	99.24549	-176.34882	99.24549
18900.00000	99.19249	-178.92980	99.19249
18950.00000	99.15440	-181.38932	99.15440
19000.00000	99.08255	-183.91464	99.08255
19050.00000	99.06683	-186.65133	99.06683
19100.00000	99.01583	-188.98400	99.01583
19150.00000	98.97905	-191.18262	98.97905
19200.00000	98.97189	-193.81485	98.97189
19250.00000	98.94828	-196.00924	98.94828
19300.00000	98.94441	-198.41312	98.94441
19350.00000	98.91975	-200.92169	98.91975
19400.00000	98.89950	-203.02460	98.89950
19450.00000	98.89377	-205.46266	98.89377
19500.00000	98.87683	-207.84962	98.87683
19550.00000	98.87472	-210.08182	98.87472
19600.00000	98.87386	-212.70678	98.87386
19650.00000	98.87556	-215.13577	98.87556
19700.00000	98.88968	-217.40532	98.88968
19750.00000	98.86794	-219.66498	98.86794
19800.00000	98.88055	-221.67388	98.88055
19850.00000	98.88177	-224.49654	98.88177
19900.00000	98.89811	-226.75350	98.89811
19950.00000	98.90362	-228.99118	98.90362
20000.00000	98.90939	-231.92779	98.90939
20050.00000	98.91578	-233.77756	98.91578
20100.00000	98.95409	-236.31896	98.95409
20150.00000	98.93459	-238.89784	98.93459
20200.00000	98.96724	-241.44930	98.96724
20250.00000	98.99208	-243.51669	98.99208
20300.00000	99.01584	-246.20794	99.01584
20350.00000	99.02984	-248.64919	99.02984
20400.00000	99.03488	-250.97118	99.03488
20450.00000	99.08096	-253.31937	99.08096
20500.00000	99.13273	-256.17904	99.13273
20550.00000	99.14851	-258.73711	99.14851
20600.00000	99.13663	-261.12633	99.13663
20650.00000	99.19996	-263.86061	99.19996
20700.00000	99.20617	-266.29340	99.20617
20750.00000	99.21982	-268.84187	99.21982
20800.00000	99.23312	-271.45399	99.23312
20850.00000	99.26657	-274.31941	99.26657
20900.00000	99.28421	-276.70561	99.28421
20950.00000	99.31899	-279.66813	99.31899
21000.00000	99.36519	-282.60554	99.36519
21050.00000	99.40390	-285.43693	99.40390
21100.00000	99.40444	-287.99343	99.40444
21150.00000	99.43018	-290.66127	99.43018
21200.00000	99.43955	-293.87345	99.43955
21250.00000	99.41082	-296.62703	99.41082
21300.00000	99.40249	-299.56633	99.40249
21350.00000	99.41740	-302.53069	99.41740
21400.00000	99.40364	-305.94270	99.40364
21450.00000	99.40781	-308.82886	99.40781
21500.00000	99.41305	-311.35934	99.41305
21550.00000	99.44506	-314.49507	99.44506
21600.00000	99.41027	-317.93664	99.41027
21650.00000	99.34771	-320.71800	99.34771
21700.00000	99.27353	-323.97663	99.27353
21750.00000	99.23610	-327.46940	99.23610
21800.00000	99.14000	-330.64233	99.14000
21850.00000	99.10232	-333.74197	99.10232
21900.00000	99.00380	-337.03121	99.00380
21950.00000	98.89401	-340.07284	98.89401
22000.00000	98.75052	-343.15819	98.75052
22050.00000	98.63078	-345.84093	98.63078
22100.00000	98.51464	-348.67178	98.51464
22150.00000	98.43710	-351.24873	98.43710
22200.00000	98.31821	-354.40205	98.31821
22250.00000	98.23748	-357.67364	98.23748
22300.00000	98.04873	-360.63724	98.04873
22350.00000	97.98934	-363.22316	97.98934
22400.00000	97.82502	-366.04049	97.82502
22450.00000	97.65982	-369.13200	97.65982
22500.00000	97.49414	-371.89505	97.49414
22550.00000	97.36505	-374.71010	97.36505
22600.00000	97.12316	-376.97688	97.12316
22650.00000	96.94761	-379.79163	96.94761
22700.00000	96.73808	-382.37676	96.73808
22750.00000	96.59620	-384.64517	96.59620
22800.00000	96.40060	-386.92869	96.40060
22850.00000	96.15844	-390.24901	96.15844
22900.00000	96.05703	-391.77494	96.05703
22950.00000	95.88434	-394.22448	95.88434
23000.00000	95.64413	-396.15871	95.64413
23050.00000	95.47281	-398.08003	95.47281
23100.00000	95.28021	-400.58515	95.28021
23150.00000	95.05348	-403.01131	95.05348
23200.00000	94.86643	-405.09667	94.86643
23250.00000	94.71329	-406.99231	94.71329
23300.00000	94.57507	-409.55618	94.57507
23350.00000	94.29688	-411.65535	94.29688
23400.00000	94.20627	-412.75009	94.20627
23450.00000	94.06820	-414.79217	94.06820
23500.00000	93.91490	-416.55408	93.91490
23550.00000	93.64681	-418.26815	93.64681
23600.00000	93.62697	-420.15637	93.62697
23650.00000	93.25569	-421.21508	93.25569
23700.00000	93.17579	-423.47562	93.17579
23750.00000	93.12858	-424.34845	93.12858
23800.00000	92.85683	-426.19320	92.85683
23850.00000	92.80893	-428.23050	92.80893
23900.00000	92.56310	-429.77604	92.56310
23950.00000	92.49125	-431.16726	92.49125
24000.00000	92.35762	-432.27593	92.35762
24050.00000	92.11858	-434.36703	92.11858
24100.00000	92.06494	-435.74519	92.06494
24150.00000	91.96108	-436.62489	91.96108
24200.00000	91.92457	-438.96474	91.92457
24250.00000	91.78145	-439.41488	91.78145
24300.00000	91.57944	-442.14514	91.57944
24350.00000	91.71739	-442.47263	91.71739
24400.00000	91.51213	-444.69445	91.51213
24450.00000	91.40540	-445.36571	91.40540
24500.00000	91.27353	-447.65726	91.27353
24550.00000	91.19181	-448.86535	91.19181
24600.00000	91.07878	-450.14506	91.07878
24650.00000	91.07397	-452.51984	91.07397
24700.00000	90.92986	-453.21781	90.92986
24750.00000	90.90732	-455.08483	90.90732
24800.00000	90.75704	-455.92571	90.75704
24850.00000	90.74489	-457.77743	90.74489
24900.00000	90.48417	-458.66057	90.48417
24950.00000	90.61920	-459.90000	90.61920
25000.00000	90.47727	-461.98371	90.47727
25050.00000	90.46039	-462.17777	90.46039
25100.00000	90.38608	-463.06433	90.38608
25150.00000	90.32367	-464.84967	90.32367
25200.00000	90.30921	-466.09351	90.30921
25250.00000	90.16317	-467.57473	90.16317
25300.00000	90.12115	-468.76443	90.12115
25350.00000	90.23800	-470.28769	90.23800
25400.00000	90.08849	-471.40160	90.08849
25450.00000	90.27486	-473.28820	90.27486
25500.00000	90.21277	-474.40313	90.21277
25550.00000	90.15560	-475.58321	90.15560
25600.00000	90.15152	-476.64282	90.15152
25650.00000	90.14836	-479.15915	90.14836
25700.00000	90.19779	-480.35656	90.19779
25750.00000	90.13873	-482.58967	90.13873
25800.00000	90.19765	-483.18391	90.19765
25850.00000	90.22617	-485.22085	90.22617
25900.00000	90.16234	-487.34983	90.16234
25950.00000	90.12095	-488.43506	90.12095
26000.00000	90.17425	-490.41014	90.17425
26050.00000	90.29432	-492.18132	90.29432
26100.00000	90.27124	-493.91458	90.27124
26150.00000	90.23466	-496.40582	90.23466
26200.00000	90.17481	-497.75286	90.17481
26250.00000	90.25186	-499.77837	90.25186
26300.00000	90.16831	-502.11374	90.16831
26350.00000	90.27821	-504.28637	90.27821
26400.00000	90.21597	-506.47150	90.21597
26450.00000	90.16760	-508.86228	90.16760
26500.00000	90.15801	-510.67786	90.15801
26550.00000	90.11094	-511.79164	90.11094
26600.00000	90.00901	-514.35900	90.00901
26650.00000	89.97843	-517.05472	89.97843
26700.00000	89.88602	-518.64856	89.88602
26750.00000	89.79231	-520.97408	89.79231
26800.00000	89.67368	-522.67414	89.67368
26850.00000	89.56632	-524.70366	89.56632
26900.00000	89.49974	-526.78137	89.49974
26950.00000	89.38392	-528.48902	89.38392
27000.00000	89.16853	-530.67939	89.16853
27050.00000	89.14014	-531.61169	89.14014
27100.00000	88.99826	-533.79717	88.99826
27150.00000	88.86926	-534.98171	88.86926
27200.00000	88.82233	-537.25871	88.82233
27250.00000	88.55492	-538.75507	88.55492
27300.00000	88.55496	-540.22717	88.55496
27350.00000	88.36402	-542.08382	88.36402
27400.00000	88.27626	-543.23728	88.27626
27450.00000	88.22708	-545.09063	88.22708
27500.00000	87.98757	-546.53785	87.98757
27550.00000	87.84939	-547.03026	87.84939
27600.00000	87.78991	-548.45884	87.78991
27650.00000	87.69259	-549.84382	87.69259
27700.00000	87.56263	-550.89640	87.56263
27750.00000	87.33708	-551.86358	87.33708
27800.00000	87.30214	-553.60293	87.30214
27850.00000	87.28888	-554.47830	87.28888
27900.00000	87.03775	-555.18220	87.03775
27950.00000	86.91497	-555.87780	86.91497
28000.00000	86.85868	-556.86640	86.85868
28050.00000	86.79523	-558.14424	86.79523
28100.00000	86.62635	-558.45748	86.62635
28150.00000	86.55738	-559.53819	86.55738
28200.00000	86.50276	-560.33700	86.50276
28250.00000	86.33020	-561.03096	86.33020
28300.00000	86.34108	-561.39970	86.34108
28350.00000	86.32394	-561.51432	86.32394
28400.00000	86.24528	-562.65351	86.24528
28450.00000	86.24727	-562.92685	86.24727
28500.00000	86.24116	-563.85027	86.24116
28550.00000	86.18899	-564.50434	86.18899
28600.00000	86.20102	-564.47701	86.20102
28650.00000	86.26813	-565.13020	86.26813
28700.00000	86.20975	-565.84639	86.20975
28750.00000	86.14993	-566.21629	86.14993
28800.00000	86.05704	-567.24630	86.05704
28850.00000	86.19515	-568.18122	86.19515
28900.00000	86.25529	-568.29450	86.25529
28950.00000	86.30010	-569.35078	86.30010
29000.00000	86.34873	-568.95830	86.34873
29050.00000	86.38402	-569.71429	86.38402
29100.00000	86.36973	-570.51985	86.36973
29150.00000	86.43574	-571.65571	86.43574
29200.00000	86.50947	-571.09985	86.50947
29250.00000	86.56365	-571.91444	86.56365
29300.00000	86.61606	-573.21819	86.61606
29350.00000	86.78862	-573.45342	86.78862
29400.00000	86.82937	-573.95993	86.82937
29450.00000	86.96603	-574.68182	86.96603
29500.00000	87.08512	-576.09167	87.08512
29550.00000	87.13666	-576.15484	87.13666
29600.00000	87.33343	-577.45547	87.33343
29650.00000	87.43349	-577.77592	87.43349
29700.00000	87.51797	-578.74407	87.51797
29750.00000	87.64165	-578.95726	87.64165
29800.00000	87.68938	-580.35781	87.68938
29850.00000	87.95204	-581.08143	87.95204
29900.00000	88.01749	-582.04344	88.01749
29950.00000	88.26489	-583.05289	88.26489
30000.00000	88.33832	-583.45179	88.33832
30050.00000	88.46184	-585.02281	88.46184
30100.00000	88.61966	-585.42003	88.61966
30150.00000	88.79966	-586.76715	88.79966
30200.00000	88.98444	-587.47624	88.98444
30250.00000	89.11329	-588.70317	89.11329
30300.00000	89.30123	-589.82683	89.30123
30350.00000	89.55704	-590.83692	89.55704
30400.00000	89.61257	-592.20054	89.61257
30450.00000	89.81910	-593.33927	89.81910
30500.00000	90.05813	-593.91767	90.05813
30550.00000	90.22869	-595.70293	90.22869
30600.00000	90.44094	-597.33913	90.44094
30650.00000	90.68583	-598.50196	90.68583
30700.00000	90.79863	-599.76337	90.79863
30750.00000	90.98588	-601.36263	90.98588
30800.00000	91.17765	-602.34010	91.17765
30850.00000	91.37249	-604.20312	91.37249
30900.00000	91.58566	-606.17276	91.58566
30950.00000	91.82550	-607.27009	91.82550
31000.00000	91.92385	-608.99355	91.92385
31050.00000	92.20053	-610.35367	92.20053
31100.00000	92.42492	-611.94243	92.42492
31150.00000	92.60418	-613.58363	92.60418
31200.00000	92.76593	-615.73502	92.76593
31250.00000	93.06465	-617.33811	93.06465
31300.00000	93.19142	-619.17602	93.19142
31350.00000	93.39958	-620.88657	93.39958
31400.00000	93.64534	-622.98503	93.64534
31450.00000	93.84350	-624.67542	93.84350
31500.00000	94.00800	-627.03110	94.00800
31550.00000	94.22082	-629.33992	94.22082
31600.00000	94.37785	-631.51303	94.37785
31650.00000	94.59798	-633.81067	94.59798
31700.00000	94.76894	-635.97209	94.76894
31750.00000	94.92687	-637.99718	94.92687
31800.00000	95.11662	-640.33983	95.11662
31850.00000	95.25826	-642.37353	95.25826
31900.00000	95.37541	-644.91587	95.37541
31950.00000	95.57431	-647.20237	95.57431
32000.00000	95.70749	-649.35823	95.70749
32050.00000	95.84911	-651.90552	95.84911
32100.00000	95.96278	-654.65480	95.96278
32150.00000	96.10071	-656.91501	96.10071
32200.00000	96.15808	-659.30782	96.15808
32250.00000	96.26723	-661.42811	96.26723
32300.00000	96.33885	-663.89732	96.33885
32350.00000	96.42897	-665.89899	96.42897
32400.00000	96.54046	-668.29497	96.54046
32450.00000	96.59360	-670.80448	96.59360
32500.00000	96.69654	-673.22978	96.69654
32550.00000	96.78751	-675.23406	96.78751
32600.00000	96.88611	-677.16622	96.88611
32650.00000	96.91290	-679.46086	96.91290
32700.00000	97.00245	-681.54525	97.00245
32750.00000	97.03326	-683.61568	97.03326
32800.00000	97.08568	-685.75699	97.08568
32850.00000	97.15786	-687.71128	97.15786
32900.00000	97.22100	-689.65549	97.22100
32950.00000	97.32030	-691.68130	97.32030
33000.00000	97.40434	-693.88866	97.40434
33050.00000	97.46934	-695.72529	97.46934
33100.00000	97.62531	-697.56689	97.62531
33150.00000	97.62395	-699.50539	97.62395
33200.00000	97.77661	-700.98391	97.77661
33250.00000	97.87430	-702.93259	97.87430
33300.00000	97.92536	-705.01241	97.92536
33350.00000	98.04261	-706.81264	98.04261
33400.00000	98.14637	-708.82594	98.14637
33450.00000	98.30019	-711.00895	98.30019
33500.00000	98.36826	-712.28883	98.36826
33550.00000	98.46631	-714.36636	98.46631
33600.00000	98.57595	-716.45322	98.57595
33650.00000	98.69366	-718.48421	98.69366
33700.00000	98.82145	-720.28574	98.82145
33750.00000	98.94612	-722.52365	98.94612
33800.00000	99.06381	-724.44007	99.06381
33850.00000	99.18626	-726.22787	99.18626
33900.00000	99.26372	-728.39574	99.26372
33950.00000	99.40094	-730.35642	99.40094
34000.00000	99.48214	-732.05025	99.48214
34050.00000	99.61695	-734.14983	99.61695
34100.00000	99.76656	-735.62445	99.76656
34150.00000	99.86948	-737.77681	99.86948
34200.00000	99.97767	-739.70505	99.97767
34250.00000	100.12509	-741.72810	100.12509
34300.00000	100.22336	-743.74057	100.22336
34350.00000	100.37402	-745.95773	100.37402
34400.00000	100.55987	-747.72159	100.55987
34450.00000	100.64119	-749.61785	100.64119
34500.00000	100.80236	-751.95446	100.80236
34550.00000	100.99683	-754.05196	100.99683
34600.00000	101.13695	-756.61284	101.13695
34650.00000	101.27742	-758.68292	101.27742
34700.00000	101.29581	-760.83928	101.29581
34750.00000	101.34725	-762.59443	101.34725
34800.00000	101.44748	-764.04301	101.44748
34850.00000	101.59707	-765.25447	101.59707
34900.00000	101.78365	-766.78579	101.78365
34950.00000	102.04694	-768.61996	102.04694
35000.00000	102.25995	-770.10658	102.25995
35050.00000	102.52033	-772.19095	102.52033
35100.00000	102.74829	-774.30113	102.74829
35150.00000	103.01149	-776.45003	103.01149
35200.00000	103.25109	-778.76305	103.25109
35250.00000	103.49595	-780.89001	103.49595
35300.00000	103.75513	-783.41639	103.75513
35350.00000	104.00436	-785.89957	104.00436
35400.00000	104.24640	-788.22925	104.24640
35450.00000	104.52876	-791.01687	104.52876
35500.00000	104.76191	-793.88612	104.76191
35550.00000	105.01118	-796.59340	105.01118
35600.00000	105.25847	-799.60080	105.25847
35650.00000	105.51217	-802.60115	105.51217
35700.00000	105.74751	-805.88811	105.74751
35750.00000	105.96106	-808.99460	105.96106
35800.00000	106.18166	-812.30698	106.18166
35850.00000	106.40633	-815.78804	106.40633
35900.00000	106.60405	-819.19947	106.60405
35950.00000	106.78261	-822.64289	106.78261
36000.00000	106.94853	-826.28462	106.94853
36050.00000	107.10188	-829.91225	107.10188
36100.00000	107.23818	-833.64287	107.23818
36150.00000	107.37511	-837.68318	107.37511
36200.00000	107.46608	-841.29474	107.46608
36250.00000	107.52750	-845.18747	107.52750
36300.00000	107.59325	-848.98180	107.59325
36350.00000	107.63730	-852.60338	107.63730
36400.00000	107.66111	-856.47726	107.66111
36450.00000	107.66130	-860.37353	107.66130
36500.00000	107.62342	-864.05077	107.62342
36550.00000	107.60286	-867.68153	107.60286
36600.00000	107.54673	-871.01455	107.54673
36650.00000	107.45203	-874.53415	107.45203
36700.00000	107.39155	-877.72424	107.39155
36750.00000	107.28711	-881.07293	107.28711
36800.00000	107.20477	-884.11698	107.20477
36850.00000	107.09877	-886.98051	107.09877
36900.00000	106.94642	-889.83828	106.94642
36950.00000	106.82297	-892.59218	106.82297
37000.00000	106.72460	-895.14425	106.72460
37050.00000	106.59868	-897.47418	106.59868
37100.00000	106.47712	-899.74287	106.47712
37150.00000	106.33571	-901.88308	106.33571
37200.00000	106.22195	-903.94274	106.22195
37250.00000	106.11108	-905.77725	106.11108
37300.00000	106.02041	-907.38146	106.02041
37350.00000	105.94141	-908.81277	105.94141
37400.00000	105.85809	-910.24743	105.85809
37450.00000	105.81110	-911.52620	105.81110
37500.00000	105.78000	-912.68633	105.78000
37550.00000	105.79637	-913.73537	105.79637
37600.00000	105.82915	-914.45854	105.82915
37650.00000	105.91944	-915.40516	105.91944
37700.00000	106.00882	-916.03162	106.00882
37750.00000	106.18019	-916.83232	106.18019
37800.00000	106.35859	-917.52255	106.35859
37850.00000	106.62761	-918.44005	106.62761
37900.00000	106.93900	-919.44268	106.93900
37950.00000	107.25191	-920.83533	107.25191
38000.00000	107.61873	-922.37742	107.61873
38050.00000	108.01073	-924.44966	108.01073
38100.00000	108.39923	-926.69451	108.39923
38150.00000	108.78785	-929.34344	108.78785
38200.00000	109.15028	-932.30604	109.15028
38250.00000	109.50416	-935.39424	109.50416
38300.00000	109.84363	-938.87450	109.84363
38350.00000	110.14873	-942.47492	110.14873
38400.00000	110.43281	-946.15477	110.43281
38450.00000	110.68581	-950.00791	110.68581
38500.00000	110.93472	-953.91527	110.93472
38550.00000	111.14385	-957.87950	111.14385
38600.00000	111.31849	-961.80057	111.31849
38650.00000	111.49152	-965.81028	111.49152
38700.00000	111.64019	-969.74459	111.64019
38750.00000	111.78099	-973.64431	111.78099
38800.00000	111.89651	-977.65712	111.89651
38850.00000	112.01668	-981.62302	112.01668
38900.00000	112.10487	-985.58197	112.10487
38950.00000	112.18000	-989.49439	112.18000
39000.00000	112.26095	-993.43765	112.26095
39050.00000	112.33019	-997.37595	112.33019
39100.00000	112.38827	-1001.25723	112.38827
39150.00000	112.42051	-1005.20729	112.42051
39200.00000	112.45555	-1009.06928	112.45555
39250.00000	112.48286	-1012.83499	112.48286
39300.00000	112.49880	-1016.44111	112.49880
39350.00000	112.52588	-1020.18735	112.52588
39400.00000	112.55018	-1023.88150	112.55018
39450.00000	112.59066	-1027.62699	112.59066
39500.00000	112.62645	-1031.31963	112.62645
39550.00000	112.66471	-1035.08664	112.66471
39600.00000	112.68351	-1039.02244	112.68351
39650.00000	112.70510	-1042.95679	112.70510
39700.00000	112.69970	-1047.06904	112.69970
39750.00000	112.69189	-1051.07525	112.69189
39800.00000	112.66330	-1055.04172	112.66330
39850.00000	112.62061	-1059.09248	112.62061
39900.00000	112.57372	-1063.06361	112.57372
39950.00000	112.51025	-1067.09192	112.51025
40000.00000	112.43593	-1071.10048	112.43593
40050.00000	112.33330	-1075.12318	112.33330
40100.00000	112.22162	-1079.03187	112.22162
40150.00000	112.11952	-1082.97083	112.11952
40200.00000	111.97398	-1086.80420	111.97398
40250.00000	111.83581	-1090.68844	111.83581
40300.00000	111.65900	-1094.44628	111.65900
40350.00000	111.49902	-1098.06843	111.49902
40400.00000	111.30127	-1101.62299	111.30127
40450.00000	111.10745	-1105.27611	111.10745
40500.00000	110.87700	-1108.68446	110.87700
40550.00000	110.66462	-1111.98267	110.66462
40600.00000	110.45149	-1115.03352	110.45149
40650.00000	110.20624	-1117.93526	110.20624
40700.00000	109.97132	-1121.03214	109.97132
40750.00000	109.75831	-1123.68392	109.75831
40800.00000	109.54402	-1126.31035	109.54402
40850.00000	109.32154	-1128.71063	109.32154
40900.00000	109.12651	-1131.00157	109.12651
40950.00000	108.91588	-1133.27202	108.91588
41000.00000	108.76342	-1135.50309	108.76342
41050.00000	108.61427	-1137.73430	108.61427
41100.00000	108.46011	-1139.60739	108.46011
41150.00000	108.33271	-1141.70633	108.33271
41200.00000	108.23943	-1143.70142	108.23943
41250.00000	108.16799	-1145.82223	108.16799
41300.00000	108.10621	-1148.00912	108.10621
41350.00000	108.02535	-1150.06872	108.02535
41400.00000	108.00283	-1152.20049	108.00283
41450.00000	107.97818	-1154.48156	107.97818
41500.00000	107.91817	-1156.93183	107.91817
41550.00000	107.87906	-1159.34847	107.87906
41600.00000	107.88056	-1161.97285	107.88056
41650.00000	107.83840	-1164.63753	107.83840
41700.00000	107.80541	-1167.22175	107.80541
41750.00000	107.76427	-1169.82234	107.76427
41800.00000	107.71835	-1172.64894	107.71835
41850.00000	107.69543	-1175.86322	107.69543
41900.00000	107.62291	-1178.61421	107.62291
41950.00000	107.55134	-1181.63901	107.55134
42000.00000	107.47020	-1184.65025	107.47020
42050.00000	107.37406	-1187.93283	107.37406
42100.00000	107.29179	-1190.96650	107.29179
42150.00000	107.13381	-1194.08996	107.13381
42200.00000	106.97258	-1197.13894	106.97258
42250.00000	106.79961	-1200.22222	106.79961
42300.00000	106.62600	-1202.72533	106.62600
42350.00000	106.41421	-1205.69618	106.41421
42400.00000	106.23106	-1208.39117	106.23106
42450.00000	105.98425	-1211.11830	105.98425
42500.00000	105.76459	-1213.65842	105.76459
42550.00000	105.54151	-1216.14762	105.54151
42600.00000	105.28986	-1218.47760	105.28986
42650.00000	105.04278	-1220.48542	105.04278
42700.00000	104.80898	-1222.68928	104.80898
42750.00000	104.59651	-1225.03376	104.59651
42800.00000	104.35894	-1226.41556	104.35894
42850.00000	104.13674	-1228.31222	104.13674
42900.00000	103.95385	-1229.99289	103.95385
42950.00000	103.73315	-1231.91791	103.73315
43000.00000	103.49805	-1233.34489	103.49805
43050.00000	103.29726	-1234.48999	103.29726
43100.00000	103.13019	-1235.90290	103.13019
43150.00000	102.95345	-1236.97660	102.95345
43200.00000	102.76646	-1238.53983	102.76646
43250.00000	102.61230	-1239.13333	102.61230
43300.00000	102.55013	-1240.18044	102.55013
43350.00000	102.32769	-1240.83942	102.32769
43400.00000	102.22560	-1242.21125	102.22560
43450.00000	102.11344	-1242.64585	102.11344
43500.00000	102.01880	-1243.60987	102.01880
43550.00000	101.85452	-1243.56658	101.85452
43600.00000	101.75776	-1244.67428	101.75776
43650.00000	101.83338	-1244.38267	101.83338
43700.00000	101.79658	-1245.03936	101.79658
43750.00000	101.76857	-1246.47270	101.76857
43800.00000	101.77603	-1247.39758	101.77603
43850.00000	101.79522	-1246.90888	101.79522
43900.00000	101.87386	-1248.10954	101.87386
43950.00000	102.04567	-1248.62126	102.04567
44000.00000	102.08357	-1249.58852	102.08357
44050.00000	102.29014	-1249.96861	102.29014
44100.00000	102.47212	-1251.00808	102.47212
44150.00000	102.63096	-1251.12622	102.63096
44200.00000	102.80723	-1252.18476	102.80723
44250.00000	103.00496	-1253.76944	103.00496
44300.00000	103.14800	-1255.06946	103.14800
44350.00000	103.45534	-1256.04808	103.45534
44400.00000	103.71176	-1257.73040	103.71176
44450.00000	103.89187	-1258.90527	103.89187
44500.00000	104.24622	-1260.32857	104.24622
44550.00000	104.46180	-1262.17947	104.46180
44600.00000	104.68240	-1263.94167	104.68240
44650.00000	104.98190	-1266.20052	104.98190
44700.00000	105.28312	-1268.64703	105.28312
44750.00000	105.53058	-1270.62418	105.53058
44800.00000	105.70999	-1272.62694	105.70999
44850.00000	106.09962	-1275.40368	106.09962
44900.00000	106.29837	-1278.27614	106.29837
44950.00000	106.66085	-1280.63772	106.66085
45000.00000	106.91740	-1283.91073	106.91740
45050.00000	107.26537	-1287.26672	107.26537
45100.00000	107.44044	-1289.76969	107.44044
45150.00000	107.70998	-1293.54609	107.70998
45200.00000	108.00578	-1297.32203	108.00578
45250.00000	108.25028	-1301.32232	108.25028
45300.00000	108.33969	-1304.81446	108.33969
45350.00000	108.56224	-1309.13853	108.56224
45400.00000	108.74842	-1312.64695	108.74842
45450.00000	108.95068	-1317.00090	108.95068
45500.00000	108.98432	-1320.66132	108.98432
45550.00000	109.12522	-1324.73003	109.12522
45600.00000	109.21596	-1329.40534	109.21596
45650.00000	109.27797	-1332.81148	109.27797
45700.00000	109.33697	-1336.81399	109.33697
45750.00000	109.40730	-1341.31453	109.40730
45800.00000	109.45243	-1345.26697	109.45243
45850.00000	109.39281	-1349.42758	109.39281
45900.00000	109.41631	-1354.06716	109.41631
45950.00000	109.37525	-1358.04451	109.37525
46000.00000	109.33140	-1362.20241	109.33140
46050.00000	109.25852	-1366.35020	109.25852
46100.00000	109.17348	-1370.73586	109.17348
46150.00000	109.13256	-1374.46571	109.13256
46200.00000	109.03195	-1378.77028	109.03195
46250.00000	108.93756	-1382.10803	108.93756
46300.00000	108.82448	-1386.13561	108.82448
46350.00000	108.72651	-1389.96561	108.72651
46400.00000	108.58497	-1393.58701	108.58497
46450.00000	108.45389	-1397.23025	108.45389
46500.00000	108.30254	-1400.70796	108.30254
46550.00000	108.16895	-1404.37315	108.16895
46600.00000	107.96443	-1408.16388	107.96443
46650.00000	107.85539	-1411.35453	107.85539
46700.00000	107.74228	-1414.84607	107.74228
46750.00000	107.47570	-1418.44692	107.47570
46800.00000	107.29664	-1421.15671	107.29664
46850.00000	107.12178	-1425.04115	107.12178
46900.00000	106.96830	-1427.95829	106.96830
46950.00000	106.83404	-1431.18647	106.83404
47000.00000	106.60925	-1434.03535	106.60925
47050.00000	106.44725	-1437.68757	106.44725
47100.00000	106.23018	-1440.31815	106.23018
47150.00000	105.92604	-1443.47658	105.92604
47200.00000	105.89880	-1446.26750	105.89880
47250.00000	105.60219	-1449.35446	105.60219
47300.00000	105.48450	-1451.82198	105.48450
47350.00000	105.34177	-1454.53056	105.34177
47400.00000	105.06971	-1456.65059	105.06971
47450.00000	104.99284	-1459.76764	104.99284
47500.00000	104.91856	-1462.40175	104.91856
47550.00000	104.63969	-1465.08870	104.63969
47600.00000	104.54614	-1467.81688	104.54614
47650.00000	104.33514	-1470.39846	104.33514
47700.00000	104.36635	-1473.78596	104.36635
47750.00000	104.28672	-1476.36397	104.28672
47800.00000	104.01971	-1478.52659	104.01971
47850.00000	103.95722	-1481.29035	103.95722
47900.00000	103.80554	-1484.41188	103.80554
47950.00000	103.56467	-1487.86299	103.56467
48000.00000	103.33246	-1490.99000	103.33246
48050.00000	103.27182	-1494.02834	103.27182
48100.00000	103.12040	-1496.56406	103.12040
48150.00000	103.07032	-1500.04365	103.07032
48200.00000	102.82223	-1503.05467	102.82223
48250.00000	102.67493	-1505.96542	102.67493
48300.00000	102.54609	-1508.57322	102.54609
48350.00000	102.23242	-1512.50382	102.23242
48400.00000	101.90460	-1515.08301	101.90460
48450.00000	101.78134	-1518.41235	101.78134
48500.00000	101.50798	-1521.84125	101.50798
48550.00000	101.30260	-1525.37454	101.30260
48600.00000	100.95650	-1528.47470	100.95650
48650.00000	100.73973	-1530.44270	100.73973
48700.00000	100.30292	-1533.86444	100.30292
48750.00000	100.13782	-1536.96821	100.13782
48800.00000	99.63238	-1539.57265	99.63238
48850.00000	99.19276	-1542.05744	99.19276
48900.00000	98.77873	-1544.81665	98.77873
48950.00000	98.19865	-1546.40269	98.19865
49000.00000	97.83966	-1547.92420	97.83966
49050.00000	97.60184	-1191.92511	97.60184
49100.00000	97.18543	-1191.73820	97.18543
49150.00000	96.77516	-1194.07683	96.77516
49200.00000	96.43942	-1194.23554	96.43942
49250.00000	96.10793	-1195.52413	96.10793
49300.00000	95.59607	-1196.70184	95.59607
49350.00000	95.06506	-1194.55414	95.06506
49400.00000	94.68672	-1196.90234	94.68672
49450.00000	94.53456	-1195.73865	94.53456
49500.00000	94.15150	-1195.89218	94.15150
49550.00000	93.98882	-837.35708	93.98882
49600.00000	93.71127	-834.57205	93.71127
49650.00000	93.74759	-476.47515	93.74759
49700.00000	93.50822	-116.50694	93.50822
49750.00000	93.53780	-113.70128	93.53780
49800.00000	93.40565	-113.41806	93.40565
49850.00000	93.35943	603.66154	93.35943
49900.00000	93.82634	604.79619	93.82634
49950.00000	93.67933	965.84748	93.67933
50000.00000	93.56928	964.85205	93.56928
50050.00000	93.73901	965.18576	93.73901
50100.00000	93.85035	962.89307	93.85035
50150.00000	94.20995	962.52051	94.20995
50200.00000	94.16519	959.40847	94.16519
50250.00000	94.25122	959.89344	94.25122
50300.00000	94.32149	957.06202	94.32149
50350.00000	94.75619	958.72318	94.75619
50400.00000	94.79110	956.51083	94.79110
50450.00000	95.00027	954.25884	95.00027
50500.00000	95.04109	952.03601	95.04109
50550.00000	95.06517	951.50996	95.06517
50600.00000	95.32490	947.96788	95.32490
50650.00000	95.55315	945.43473	95.55315
50700.00000	95.55102	942.79014	95.55102
50750.00000	95.50657	940.53755	95.50657
50800.00000	95.60698	938.02876	95.60698
50850.00000	95.52200	935.76153	95.52200
50900.00000	95.78308	932.85552	95.78308
50950.00000	95.64517	928.89605	95.64517
51000.00000	95.71437	925.72413	95.71437
51050.00000	95.69047	923.11188	95.69047
51100.00000	95.70151	919.54410	95.70151
51150.00000	95.61992	916.79894	95.61992
51200.00000	95.41138	913.14635	95.41138
51250.00000	95.40836	910.52500	95.40836
51300.00000	95.34193	907.29281	95.34193
51350.00000	95.05027	905.64520	95.05027
51400.00000	94.70243	902.19343	94.70243
51450.00000	94.21564	899.68818	94.21564
51500.00000	94.40581	895.19643	94.40581
51550.00000	94.06462	894.20161	94.06462
51600.00000	93.78977	893.10030	93.78977
51650.00000	93.37465	890.80830	93.37465
51700.00000	93.42098	887.69757	93.42098
51750.00000	92.61809	885.55831	92.61809
51800.00000	92.88624	885.45686	92.88624
51850.00000	92.23973	882.90523	92.23973
51900.00000	91.87602	884.77764	91.87602
51950.00000	91.87099	882.96728	91.87099
52000.00000	91.54368	881.69712	91.54368
52050.00000	91.13165	879.85685	91.13165
52100.00000	91.06949	882.80434	91.06949
52150.00000	90.80595	881.56157	90.80595
52200.00000	91.05167	880.42041	91.05167
52250.00000	90.62770	881.29328	90.62770
52300.00000	90.62104	881.82818	90.62104
52350.00000	90.86968	882.24479	90.86968
52400.00000	90.92848	878.87477	90.92848
52450.00000	91.11447	877.19159	91.11447
52500.00000	91.06288	875.91950	91.06288
52550.00000	91.00935	878.92399	91.00935
52600.00000	90.89143	874.96596	90.89143
52650.00000	91.24952	874.57951	91.24952
52700.00000	91.09684	876.52451	91.09684
52750.00000	90.86205	873.79457	90.86205
52800.00000	90.96944	874.35524	90.96944
52850.00000	90.76488	873.90744	90.76488
52900.00000	91.44935	870.94611	91.44935
52950.00000	91.57237	868.40897	91.57237
53000.00000	91.24327	868.51667	91.24327
53050.00000	91.52450	867.71830	91.52450
53100.00000	91.37400	865.38303	91.37400
53150.00000	91.90525	865.07590	91.90525
53200.00000	91.90476	863.50124	91.90476
53250.00000	91.90455	860.19547	91.90455
53300.00000	92.11454	856.94986	92.11454
53350.00000	91.93306	856.88123	91.93306
53400.00000	92.03750	858.22858	92.03750
53450.00000	92.58827	853.70312	92.58827
53500.00000	92.19105	853.55753	92.19105
53550.00000	92.29551	849.82995	92.29551
53600.00000	92.48839	846.34513	92.48839
53650.00000	92.24775	845.01776	92.24775
53700.00000	92.30367	844.92658	92.30367
53750.00000	92.13558	841.67797	92.13558
53800.00000	92.29012	839.76974	92.29012
53850.00000	92.48900	837.53474	92.48900
53900.00000	92.49987	838.45830	92.49987
53950.00000	92.25138	833.81531	92.25138
54000.00000	92.56957	832.57064	92.56957
54050.00000	92.49215	830.17951	92.49215
54100.00000	92.50204	828.45736	92.50204
54150.00000	92.56720	828.35624	92.56720
54200.00000	92.29553	826.55062	92.29553
54250.00000	92.31516	822.04177	92.31516
54300.00000	92.34902	822.96189	92.34902
54350.00000	92.25367	822.41911	92.25367
54400.00000	92.29579	822.36559	92.29579
54450.00000	92.23981	818.68384	92.23981
54500.00000	92.33535	819.79341	92.33535
54550.00000	92.23528	816.97803	92.23528
54600.00000	92.09334	817.06019	92.09334
54650.00000	92.41540	816.04545	92.41540
54700.00000	92.30822	813.05033	92.30822
54750.00000	92.34145	814.33221	92.34145
54800.00000	92.49909	813.41760	92.49909
54850.00000	92.56269	812.16931	92.56269
54900.00000	92.65631	811.31957	92.65631
54950.00000	92.85099	811.84199	92.85099
55000.00000	93.08034	809.54969	93.08034
55050.00000	93.26400	809.60828	93.26400
55100.00000	93.38377	808.16440	93.38377
55150.00000	93.66218	807.27583	93.66218
55200.00000	93.90991	804.87210	93.90991
55250.00000	94.40169	804.67787	94.40169
55300.00000	94.47222	801.17339	94.47222
55350.00000	94.74060	800.21450	94.74060
55400.00000	95.13591	799.07889	95.13591
55450.00000	95.29275	796.09107	95.29275
55500.00000	95.71336	793.76263	95.71336
55550.00000	95.90161	790.79740	95.90161
55600.00000	96.14323	788.83217	96.14323
55650.00000	96.39278	787.06896	96.39278
55700.00000	96.87126	782.79778	96.87126
55750.00000	97.04226	781.08618	97.04226
55800.00000	97.32960	777.48513	97.32960
55850.00000	97.48535	772.77408	97.48535
55900.00000	97.66951	770.80479	97.66951
55950.00000	97.88753	767.75162	97.88753
56000.00000	98.05868	763.99922	98.05868
56050.00000	98.01259	760.82445	98.01259
56100.00000	98.26759	757.14120	98.26759
56150.00000	98.44756	753.16395	98.44756
56200.00000	98.49320	749.62457	98.49320
56250.00000	98.50628	745.89084	98.50628
56300.00000	98.57963	742.75357	98.57963
56350.00000	98.62759	738.74353	98.62759
56400.00000	98.71477	734.57503	98.71477
56450.00000	98.56729	732.09896	98.56729
56500.00000	98.66682	727.79858	98.66682
56550.00000	98.48056	725.27321	98.48056
56600.00000	98.55425	721.08640	98.55425
56650.00000	98.57048	718.54295	98.57048
56700.00000	98.53725	715.52051	98.53725
56750.00000	98.51737	712.01765	98.51737
56800.00000	98.18824	708.51627	98.18824
56850.00000	98.17617	706.38066	98.17617
56900.00000	98.23922	702.40453	98.23922
56950.00000	98.14077	700.03601	98.14077
57000.00000	97.94374	697.48044	97.94374
57050.00000	97.86192	694.19437	97.86192
57100.00000	97.86739	692.27977	97.86739
57150.00000	97.77188	688.98877	97.77188
57200.00000	97.76480	686.99252	97.76480
57250.00000	97.60698	684.08551	97.60698
57300.00000	97.46795	681.79434	97.46795
57350.00000	97.46709	678.96826	97.46709
57400.00000	97.37589	677.78845	97.37589
57450.00000	97.23796	675.25256	97.23796
57500.00000	97.12393	672.72318	97.12393
57550.00000	97.14510	670.66034	97.14510
57600.00000	97.11228	668.84173	97.11228
57650.00000	97.07295	667.16667	97.07295
57700.00000	97.02657	664.73858	97.02657
57750.00000	96.97532	662.89063	96.97532
57800.00000	96.99266	661.52216	96.99266
57850.00000	97.09700	658.97955	97.09700
57900.00000	97.20524	657.06260	97.20524
57950.00000	97.29138	655.11344	97.29138
58000.00000	97.24075	653.46121	97.24075
58050.00000	97.48637	651.00996	97.48637
58100.00000	97.49888	648.49579	97.49888
58150.00000	97.57861	646.26398	97.57861
58200.00000	97.73888	642.83100	97.73888
58250.00000	97.86068	640.21423	97.86068
58300.00000	97.88470	636.57141	97.88470
58350.00000	97.92518	633.43829	97.92518
58400.00000	97.93936	630.38706	97.93936
58450.00000	97.91032	626.81457	97.91032
58500.00000	97.94338	623.52738	97.94338
58550.00000	97.88121	620.37931	97.88121
58600.00000	97.76159	617.11674	97.76159
58650.00000	97.67208	614.01882	97.67208
58700.00000	97.53272	611.31988	97.53272
58750.00000	97.46876	608.69789	97.46876
58800.00000	97.39032	606.22790	97.39032
58850.00000	97.37106	603.22684	97.37106
58900.00000	97.32902	601.07000	97.32902
58950.00000	97.30953	597.84452	97.30953
59000.00000	97.13253	595.50895	97.13253
59050.00000	97.07134	592.35944	97.07134
59100.00000	96.99022	589.69687	96.99022
59150.00000	96.90001	586.75002	96.90001
59200.00000	96.75117	584.03363	96.75117
59250.00000	96.57232	580.86984	96.57232
59300.00000	96.42151	578.79028	96.42151
59350.00000	96.16413	576.15721	96.16413
59400.00000	96.04019	574.20429	96.04019
59450.00000	95.77786	571.81269	95.77786
59500.00000	95.55215	570.54168	95.55215
59550.00000	95.39784	568.98573	95.39784
59600.00000	95.15136	567.62417	95.15136
59650.00000	95.13349	566.28168	95.13349
59700.00000	95.00910	565.15696	95.00910
59750.00000	94.93710	564.78715	94.93710
59800.00000	94.86061	563.26955	94.86061
59850.00000	94.88405	562.36971	94.88405
59900.00000	94.91103	561.36029	94.91103
59950.00000	94.96792	560.00378	94.96792
60000.00000	95.03806	558.91481	95.03806
60050.00000	95.10282	557.85908	95.10282
60100.00000	95.16801	556.26234	95.16801
60150.00000	95.34628	555.55754	95.34628
60200.00000	95.44515	553.64986	95.44515
60250.00000	95.60909	551.82486	95.60909
60300.00000	95.79214	550.33057	95.79214
60350.00000	95.93159	548.52064	95.93159
60400.00000	96.14337	546.16435	96.14337
60450.00000	96.37402	543.70682	96.37402
60500.00000	96.59401	541.38335	96.59401
60550.00000	96.72199	538.04168	96.72199
60600.00000	96.88320	534.65488	96.88320
60650.00000	96.99853	531.85145	96.99853
60700.00000	97.08147	528.55583	97.08147
60750.00000	97.08997	525.09527	97.08997
60800.00000	97.10301	522.18972	97.10301
60850.00000	97.10518	518.61116	97.10518
60900.00000	97.13278	515.70341	97.13278
60950.00000	97.08525	512.76969	97.08525
61000.00000	97.01540	509.90874	97.01540
61050.00000	96.96914	506.95075	96.96914
61100.00000	96.90670	504.31037	96.90670
61150.00000	96.92413	501.68147	96.92413
61200.00000	96.87150	499.56279	96.87150
61250.00000	96.84160	497.29475	96.84160
61300.00000	96.82164	495.25295	96.82164
61350.00000	96.69659	492.68147	96.69659
61400.00000	96.76510	490.42181	96.76510
61450.00000	96.72187	487.92423	96.72187
61500.00000	96.73433	485.77796	96.73433
61550.00000	96.77183	483.46231	96.77183
61600.00000	96.80144	481.21993	96.80144
61650.00000	96.87244	479.09296	96.87244
61700.00000	96.84452	476.55656	96.84452
61750.00000	96.94134	474.42695	96.94134
61800.00000	96.97605	472.63114	96.97605
61850.00000	97.00821	469.85215	97.00821
61900.00000	97.13914	466.88184	97.13914
61950.00000	97.14444	464.47610	97.14444
62000.00000	97.27783	461.90253	97.27783
62050.00000	97.34326	459.49731	97.34326
62100.00000	97.41786	456.65992	97.41786
62150.00000	97.56270	453.52222	97.56270
62200.00000	97.58020	450.88365	97.58020
62250.00000	97.60580	447.50688	97.60580
62300.00000	97.79449	444.63082	97.79449
62350.00000	97.69750	441.15611	97.69750
62400.00000	97.77663	438.37165	97.77663
62450.00000	97.80491	434.55768	97.80491
62500.00000	97.81223	431.71918	97.81223
62550.00000	97.75417	428.38787	97.75417
62600.00000	97.79367	424.54978	97.79367
62650.00000	97.72670	421.82948	97.72670
62700.00000	97.75552	418.50763	97.75552
62750.00000	97.62124	415.30161	97.62124
62800.00000	97.51178	411.91406	97.51178
62850.00000	97.43943	409.05659	97.43943
62900.00000	97.35338	405.81124	97.35338
62950.00000	97.27265	402.52445	97.27265
63000.00000	97.18051	400.20392	97.18051
63050.00000	97.05268	397.28564	97.05268
63100.00000	97.02348	394.39204	97.02348
63150.00000	96.99267	392.30913	96.99267
63200.00000	96.84885	389.71644	96.84885
63250.00000	96.86785	387.54325	96.86785
63300.00000	96.86087	384.36082	96.86087
63350.00000	96.81566	381.89313	96.81566
63400.00000	96.77971	378.93472	96.77971
63450.00000	96.90260	376.86528	96.90260
63500.00000	96.78518	374.44055	96.78518
63550.00000	96.87095	371.24220	96.87095
63600.00000	96.81279	368.40565	96.81279
63650.00000	96.81412	365.23927	96.81412
63700.00000	96.89760	361.87569	96.89760
63750.00000	96.83398	359.42667	96.83398
63800.00000	96.86343	355.68286	96.86343
63850.00000	96.83916	351.68764	96.83916
63900.00000	96.84236	349.17640	96.84236
63950.00000	96.87783	345.37712	96.87783
64000.00000	96.69651	341.33183	96.69651
64050.00000	96.68910	337.75816	96.68910
64100.00000	96.59332	334.55991	96.59332
64150.00000	96.49030	331.27665	96.49030
64200.00000	96.51059	328.17619	96.51059
64250.00000	96.41039	325.19305	96.41039
64300.00000	96.40819	321.44826	96.40819
64350.00000	96.41595	317.33469	96.41595
64400.00000	96.39989	312.70447	96.39989
64450.00000	96.34984	307.60885	96.34984
64500.00000	96.13658	301.97039	96.13658
64550.00000	95.73389	297.06069	95.73389
64600.00000	95.43510	291.25820	95.43510
64650.00000	94.80816	286.08626	94.80816
64700.00000	94.18753	282.23552	94.18753
64750.00000	93.43720	277.79547	93.43720
64800.00000	92.59368	275.19059	92.59368
64850.00000	91.78503	274.54063	91.78503
64900.00000	91.18655	273.25338	91.18655
64950.00000	90.57825	274.20982	90.57825
65000.00000	90.19141	274.57801	90.19141
65050.00000	89.49536	274.16594	89.49536
65100.00000	89.36675	277.46224	89.36675
65150.00000	89.24786	276.49289	89.24786
65200.00000	88.85279	279.08899	88.85279
65250.00000	88.76547	279.83619	88.76547
65300.00000	89.09510	278.61652	89.09510
65350.00000	88.91270	279.11769	88.91270
65400.00000	88.89911	279.99892	88.89911
65450.00000	88.98228	278.82956	88.98228
65500.00000	89.25144	277.43173	89.25144
65550.00000	89.21117	280.26278	89.21117
65600.00000	89.25472	278.03493	89.25472
65650.00000	89.38691	277.48130	89.38691
65700.00000	89.85479	277.31870	89.85479
65750.00000	89.96241	274.80554	89.96241
65800.00000	90.15459	273.21002	90.15459
65850.00000	90.47383	271.04584	90.47383
65900.00000	90.48135	267.59784	90.48135
65950.00000	90.75853	265.57610	90.75853
66000.00000	90.75717	264.27222	90.75717
66050.00000	90.88309	260.38198	90.88309
66100.00000	90.95969	259.06524	90.95969
66150.00000	91.04755	256.39137	91.04755
66200.00000	91.00236	253.75388	91.00236
66250.00000	91.13121	250.85497	91.13121
66300.00000	91.07049	249.17139	91.07049
66350.00000	91.24463	246.51579	91.24463
66400.00000	91.21066	243.74664	91.21066
66450.00000	91.27358	241.77543	91.27358
66500.00000	91.35540	238.16445	91.35540
66550.00000	91.31296	235.50266	91.31296
66600.00000	91.48620	233.95310	91.48620
66650.00000	91.48001	230.27910	91.48001
66700.00000	91.34228	228.20733	91.34228
66750.00000	91.34158	225.70822	91.34158
66800.00000	91.36800	222.01100	91.36800
66850.00000	91.35591	219.55194	91.35591
66900.00000	91.30057	217.58188	91.30057
66950.00000	91.33646	214.63590	91.33646
67000.00000	91.24183	211.13826	91.24183
67050.00000	91.31648	208.69487	91.31648
67100.00000	91.19383	205.65047	91.19383
67150.00000	91.24171	203.71285	91.24171
67200.00000	90.97345	201.60310	90.97345
67250.00000	91.08018	197.31319	91.08018
67300.00000	90.90693	194.92814	90.90693
67350.00000	90.76286	192.68359	90.76286
67400.00000	90.61047	189.73600	90.61047
67450.00000	90.54384	188.58696	90.54384
67500.00000	90.31480	185.82257	90.31480
67550.00000	90.19795	183.86494	90.19795
67600.00000	89.98944	182.26242	89.98944
67650.00000	89.93195	180.17635	89.93195
67700.00000	89.85192	179.96146	89.85192
67750.00000	89.86258	178.22643	89.86258
67800.00000	89.82784	176.54881	89.82784
67850.00000	89.81679	175.97782	89.81679
67900.00000	89.99726	175.04513	89.99726
67950.00000	90.12490	172.79378	90.12490
68000.00000	90.11086	171.75757	90.11086
68050.00000	90.27657	170.56433	90.27657
68100.00000	90.47137	168.76479	90.47137
68150.00000	90.69221	167.16230	90.69221
68200.00000	90.97983	165.12746	90.97983
68250.00000	91.20192	162.28562	91.20192
68300.00000	91.56700	159.89079	91.56700
68350.00000	91.69850	156.58672	91.69850
68400.00000	92.01001	153.47093	92.01001
68450.00000	92.11408	149.81703	92.11408
68500.00000	92.41931	146.06567	92.41931
68550.00000	92.54302	142.65230	92.54302
68600.00000	92.63377	138.01533	92.63377
68650.00000	92.72856	134.55858	92.72856
68700.00000	92.78591	130.36913	92.78591
68750.00000	92.80265	125.93134	92.80265
68800.00000	92.86941	122.25537	92.86941
68850.00000	92.82460	118.34517	92.82460
68900.00000	92.89575	114.10698	92.89575
68950.00000	92.81642	110.59057	92.81642
69000.00000	92.93869	106.39917	92.93869
69050.00000	92.85692	102.59193	92.85692
69100.00000	92.91678	98.57224	92.91678
69150.00000	92.92406	94.18584	92.92406
69200.00000	92.84251	90.25337	92.84251
69250.00000	92.94572	85.35882	92.94572
69300.00000	92.77963	80.88313	92.77963
69350.00000	92.76629	76.34480	92.76629
69400.00000	92.56527	70.89423	92.56527
69450.00000	92.42592	66.21164	92.42592
69500.00000	92.18353	60.93918	92.18353
69550.00000	91.95075	55.79316	91.95075
69600.00000	91.57411	51.36437	91.57411
69650.00000	91.28902	47.05832	91.28902
69700.00000	90.83322	42.72259	90.83322
69750.00000	90.35108	38.43084	90.35108
69800.00000	89.93879	34.99308	89.93879
69850.00000	89.37693	31.15995	89.37693
69900.00000	88.92514	28.26308	88.92514
69950.00000	88.53069	25.86600	88.53069
70000.00000	87.98529	23.64725	87.98529
70050.00000	87.53959	22.05049	87.53959
70100.00000	87.17747	19.60482	87.17747
70150.00000	86.75727	18.19518	86.75727
70200.00000	86.54129	16.56339	86.54129
70250.00000	86.23741	14.97307	86.23741
70300.00000	86.03758	12.96308	86.03758
70350.00000	85.70049	12.28531	85.70049
70400.00000	85.38441	10.37255	85.38441
70450.00000	85.16032	 8.42985	85.16032
70500.00000	84.91784	 6.92374	84.91784
70550.00000	84.70527	 6.06025	84.70527
70600.00000	84.32036	 5.93839	84.32036
70650.00000	84.19550	 5.32335	84.19550
70700.00000	84.02314	 2.79368	84.02314
70750.00000	83.95212	 1.79507	83.95212
70800.00000	84.03278	 2.81503	84.03278
70850.00000	83.83566	 0.39527	83.83566
70900.00000	83.76617	-0.28299	83.76617
70950.00000	84.09396	-1.61193	84.09396
71000.00000	84.10736	-2.44079	84.10736
71050.00000	84.15647	-3.60841	84.15647
71100.00000	84.27731	-6.81804	84.27731
71150.00000	84.54337	-8.83108	84.54337
71200.00000	84.63356	-11.54762	84.63356
71250.00000	84.81260	-15.27458	84.81260
71300.00000	84.85087	-19.08358	84.85087
71350.00000	85.04272	-23.00182	85.04272
71400.00000	85.00919	-27.22890	85.00919
71450.00000	84.99462	-31.09399	84.99462
71500.00000	84.86343	-35.50530	84.86343
71550.00000	84.70586	-41.48101	84.70586
71600.00000	84.56850	-45.83450	84.56850
71650.00000	84.24583	-49.30366	84.24583
71700.00000	83.94608	-54.40419	83.94608
71750.00000	83.83807	-58.53726	83.83807
71800.00000	83.19502	-63.65599	83.19502
71850.00000	82.60818	-68.85451	82.60818
71900.00000	82.33208	-70.81093	82.33208
71950.00000	81.39780	-79.70604	81.39780
72000.00000	81.02221	-81.30643	81.02221
72050.00000	80.00640	-81.89655	80.00640
72100.00000	79.15388	-85.23718	79.15388
72150.00000	78.77452	-85.83056	78.77452
72200.00000	77.90619	-87.69032	77.90619
72250.00000	76.91873	-87.79685	76.91873
72300.00000	75.99120	-86.46758	75.99120
72350.00000	74.66208	-84.64910	74.66208
72400.00000	74.53387	-78.15071	74.53387
72450.00000	74.06452	-74.20326	74.06452
72500.00000	74.16834	-67.75982	74.16834
72550.00000	74.86733	-60.27726	74.86733
72600.00000	75.18438	-60.20186	75.18438
72650.00000	75.88939	-62.78894	75.88939
72700.00000	76.69723	-62.99190	76.69723
72750.00000	77.33971	-65.18021	77.33971
72800.00000	77.56551	-67.01578	77.56551
72850.00000	77.75600	-71.52257	77.75600
72900.00000	78.02587	-69.59541	78.02587
72950.00000	77.98415	-73.40948	77.98415
73000.00000	78.99413	-74.67863	78.99413
73050.00000	78.51167	-74.59961	78.51167
73100.00000	79.26153	-83.80510	79.26153
73150.00000	79.34960	-85.78392	79.34960
73200.00000	79.67757	-89.58680	79.67757
73250.00000	79.91887	-94.81229	79.91887
73300.00000	79.69683	-100.88094	79.69683
73350.00000	80.06713	-105.17450	80.06713
73400.00000	80.39223	-108.34405	80.39223
73450.00000	80.30614	-116.49626	80.30614
73500.00000	79.97724	-121.68050	79.97724
73550.00000	80.17487	-128.90289	80.17487
73600.00000	79.74998	-134.66173	79.74998
73650.00000	79.71552	-137.26446	79.71552
73700.00000	79.63216	-145.93619	79.63216
73750.00000	79.77428	-152.69807	79.77428
73800.00000	78.85874	-157.81614	78.85874
73850.00000	78.46714	-167.63433	78.46714
73900.00000	77.86573	-170.96956	77.86573
73950.00000	77.65815	-176.87840	77.65815
74000.00000	76.53429	-193.37788	76.53429
74050.00000	77.10520	-198.43401	77.10520
74100.00000	75.73307	-204.49797	75.73307
74150.00000	75.43651	-218.28400	75.43651
74200.00000	74.04152	-221.08953	74.04152
74250.00000	73.45073	-235.17497	73.45073
74300.00000	73.29429	-258.37158	73.29429
74350.00000	70.68806	-267.02442	70.68806
74400.00000	69.31323	-338.35661	69.31323
74450.00000	64.06434	-514.94783	64.06434
74500.00000	68.24434	-581.50576	68.24434
74550.00000	66.94077	-633.26927	66.94077
74600.00000	65.97329	-663.22467	65.97329
74650.00000	67.29969	-675.32505	67.29969
74700.00000	66.50106	-697.34642	66.50106
74750.00000	68.38848	-711.91420	68.38848
74800.00000	68.04302	-733.22640	68.04302
74850.00000	67.69957	-740.15847	67.69957
74900.00000	70.92427	-752.30119	70.92427
74950.00000	70.10830	-757.13212	70.10830
75000.00000	70.78817	-764.49812	70.78817
75050.00000	71.11080	-779.30553	71.11080
75100.00000	70.87671	-784.45812	70.87671
75150.00000	70.98393	-788.58654	70.98393
75200.00000	71.25994	-795.12383	71.25994
75250.00000	71.91357	-804.44915	71.91357
75300.00000	71.96161	-803.56070	71.96161
75350.00000	71.97409	-809.38570	71.97409
75400.00000	72.86810	-814.97223	72.86810
75450.00000	72.61993	-815.06539	72.61993
75500.00000	72.80891	-819.69397	72.80891
75550.00000	72.98912	-820.33030	72.98912
75600.00000	71.96793	-819.69245	71.96793
75650.00000	71.99698	-824.59779	71.99698
75700.00000	72.72474	-835.75699	72.72474
75750.00000	73.23804	-840.55962	73.23804
75800.00000	73.81107	-842.03669	73.81107
75850.00000	72.97658	-840.25809	72.97658
75900.00000	72.97170	-840.60097	72.97170
75950.00000	73.34233	-846.21026	73.34233
76000.00000	72.82451	-843.81455	72.82451
76050.00000	72.44143	-846.55924	72.44143
76100.00000	73.01560	-857.51041	73.01560
76150.00000	73.69406	-853.45152	73.69406
76200.00000	73.53506	-858.52144	73.53506
76250.00000	74.42530	-855.65242	74.42530
76300.00000	73.45610	-866.59697	73.45610
76350.00000	73.10010	-865.88226	73.10010
76400.00000	74.33554	-861.21837	74.33554
76450.00000	74.22808	-868.10245	74.22808
76500.00000	74.84025	-869.01096	74.84025
76550.00000	74.20896	-870.98166	74.20896
76600.00000	74.77182	-874.07431	74.77182
76650.00000	74.79817	-879.85390	74.79817
76700.00000	75.10059	-881.08925	75.10059
76750.00000	74.89893	-881.25833	74.89893
76800.00000	75.10891	-886.16047	75.10891
76850.00000	75.62052	-885.79082	75.62052
76900.00000	74.87731	-879.57716	74.87731
76950.00000	75.68066	-889.04692	75.68066
77000.00000	75.21627	-892.44100	75.21627
77050.00000	75.87988	-896.05211	75.87988
77100.00000	75.92707	-897.55452	75.92707
77150.00000	75.95291	-903.63732	75.95291
77200.00000	75.88850	-900.97662	75.88850
77250.00000	75.40179	-904.81351	75.40179
77300.00000	76.17503	-907.46121	76.17503
77350.00000	76.57610	-907.08325	76.57610
77400.00000	76.18497	-913.37004	76.18497
77450.00000	77.32699	-913.66775	77.32699
77500.00000	76.84494	-916.07731	76.84494
77550.00000	77.35086	-918.54521	77.35086
77600.00000	77.37921	-928.61908	77.37921
77650.00000	77.27265	-926.73121	77.27265
77700.00000	77.43321	-927.67550	77.43321
77750.00000	77.90216	-931.83699	77.90216
77800.00000	78.18614	-935.21588	78.18614
77850.00000	78.20269	-937.72810	78.20269
77900.00000	77.92785	-946.82885	77.92785
77950.00000	78.54175	-949.45637	78.54175
78000.00000	78.10789	-949.48601	78.10789
78050.00000	78.34272	-956.32784	78.34272
78100.00000	78.61915	-958.17023	78.61915
78150.00000	78.46444	-961.47411	78.46444
78200.00000	79.19500	-964.40792	79.19500
78250.00000	78.69770	-971.94305	78.69770
78300.00000	78.28982	-974.66989	78.28982
78350.00000	78.77225	-975.53874	78.77225
78400.00000	78.54414	-982.53687	78.54414
78450.00000	78.72133	-984.32291	78.72133
78500.00000	78.31103	-990.24884	78.31103
78550.00000	77.95135	-992.04649	77.95135
78600.00000	78.03209	-998.08618	78.03209
78650.00000	77.52370	-1000.15696	77.52370
78700.00000	77.96512	-1005.39792	77.96512
78750.00000	77.54546	-1001.80381	77.54546
78800.00000	77.12948	-1011.12452	77.12948
78850.00000	77.27921	-1012.89783	77.27921
78900.00000	76.75461	-1012.89790	76.75461
78950.00000	76.94078	-1017.95581	76.94078
79000.00000	77.22799	-1018.95886	77.22799
79050.00000	75.92104	-1021.49658	75.92104
79100.00000	76.67876	-1026.60702	76.67876
79150.00000	76.48384	-1027.85422	76.48384
79200.00000	76.14659	-1031.98646	76.14659
79250.00000	76.44491	-1032.56679	76.44491
79300.00000	76.08576	-1036.93896	76.08576
79350.00000	76.62707	-1039.52368	76.62707
79400.00000	75.30853	-1039.39792	75.30853
79450.00000	75.96673	-1043.41243	75.96673
79500.00000	76.30417	-1045.40787	76.30417
79550.00000	75.18306	-1048.77518	75.18306
79600.00000	75.87354	-1053.10182	75.87354
79650.00000	74.85080	-1053.85962	74.85080
79700.00000	74.85963	-1059.29883	74.85963
79750.00000	75.10284	-1059.69640	75.10284
79800.00000	74.43156	-1064.72924	74.43156
79850.00000	74.60528	-1067.72439	74.60528
79900.00000	74.27775	-1068.82298	74.27775
79950.00000	73.78447	-1072.68311	73.78447
80000.00000	73.56564	-1072.20432	73.56564
80050.00000	73.39552	-1073.46402	73.39552
80100.00000	73.30886	-1077.63900	73.30886
80150.00000	72.55006	-1076.17440	72.55006
80200.00000	72.33461	-1081.57378	72.33461
80250.00000	73.07043	-1081.76835	73.07043
80300.00000	71.89240	-1083.59177	71.89240
80350.00000	72.28841	-1092.45868	72.28841
80400.00000	71.09899	-1090.66350	71.09899
80450.00000	70.71695	-1091.52410	70.71695
80500.00000	70.77252	-1089.85356	70.77252
80550.00000	69.45041	-1091.41611	69.45041
80600.00000	70.26965	-1096.77514	70.26965
80650.00000	69.71083	-1091.21267	69.71083
80700.00000	69.00534	-1092.56412	69.00534
80750.00000	69.07735	-1090.39124	69.07735
80800.00000	68.35501	-1086.35929	68.35501
80850.00000	68.25453	-1094.92211	68.25453
80900.00000	68.13735	-1086.96928	68.13735
80950.00000	67.46559	-1090.59165	67.46559
81000.00000	68.10901	-1084.08972	68.10901
81050.00000	68.23944	-1085.86022	68.23944
81100.00000	68.01483	-1084.29703	68.01483
81150.00000	68.89311	-1079.63750	68.89311
81200.00000	68.61167	-1083.42218	68.61167
81250.00000	68.78934	-1082.65599	68.78934
81300.00000	69.09348	-1081.65359	69.09348
81350.00000	68.83846	-1085.89241	68.83846
81400.00000	69.71571	-1085.75652	69.71571
81450.00000	69.72040	-1087.05208	69.72040
81500.00000	70.11372	-1089.00085	70.11372
81550.00000	69.17574	-1087.10897	69.17574
81600.00000	70.30039	-1091.98632	70.30039
81650.00000	70.24573	-1091.58038	70.24573
81700.00000	70.88206	-1096.80278	70.88206
81750.00000	70.67813	-1095.52496	70.67813
81800.00000	70.15650	-1102.74307	70.15650
81850.00000	70.49148	-1098.99104	70.49148
81900.00000	70.59427	-1102.35076	70.59427
81950.00000	70.26127	-1103.32160	70.26127
82000.00000	70.36939	-1106.29285	70.36939
82050.00000	70.31401	-1106.54383	70.31401
82100.00000	70.46920	-1110.13660	70.46920
82150.00000	70.01938	-1107.85548	70.01938
82200.00000	70.25188	-1112.90578	70.25188
82250.00000	70.11610	-1111.53856	70.11610
82300.00000	70.36662	-1113.94203	70.36662
82350.00000	70.59454	-1116.95068	70.59454
82400.00000	70.73092	-1116.80579	70.73092
82450.00000	70.70448	-1118.96481	70.70448
82500.00000	71.09181	-1122.72596	71.09181
82550.00000	70.49498	-1123.59067	70.49498
82600.00000	70.71182	-1126.88802	70.71182
82650.00000	70.17039	-1135.10438	70.17039
82700.00000	70.85887	-1135.57602	70.85887
82750.00000	69.19174	-1138.47047	69.19174
82800.00000	67.69153	-1145.40042	67.69153
82850.00000	67.27411	-1146.03173	67.27411
82900.00000	65.92237	-1125.23994	65.92237
82950.00000	66.45158	-1107.92933	66.45158
83000.00000	68.79839	-1096.89014	68.79839
83050.00000	71.38788	-1099.02445	71.38788
83100.00000	73.82915	-1108.64753	73.82915
83150.00000	75.42617	-1116.07283	75.42617
83200.00000	75.17964	-1126.05881	75.17964
83250.00000	75.66204	-1134.53394	75.66204
83300.00000	75.84434	-1141.87920	75.84434
83350.00000	74.86227	-1145.91681	74.86227
83400.00000	73.71036	-1147.59496	73.71036
83450.00000	72.97326	-1145.46737	72.97326
83500.00000	71.81145	-1136.64306	71.81145
83550.00000	72.63069	-1123.79852	72.63069
83600.00000	73.85614	-1120.69218	73.85614
83650.00000	75.71581	-1116.42159	75.71581
83700.00000	77.42214	-1118.92934	77.42214
83750.00000	78.62033	-1125.36301	78.62033
83800.00000	79.89670	-1130.30182	79.89670
83850.00000	80.94590	-1137.41707	80.94590
83900.00000	81.43684	-1144.23316	81.43684
83950.00000	82.33551	-1151.16258	82.33551
84000.00000	82.65137	-1157.42980	82.65137
84050.00000	83.14891	-1164.08471	83.14891
84100.00000	83.46287	-1169.66578	83.46287
84150.00000	83.59894	-1176.35629	83.59894
84200.00000	84.10460	-1182.54705	84.10460
84250.00000	84.11382	-1188.36776	84.11382
84300.00000	84.37423	-1194.93696	84.37423
84350.00000	84.47077	-1199.16664	84.47077
84400.00000	84.77116	-1204.99445	84.77116
84450.00000	84.99449	-1211.18342	84.99449
84500.00000	85.05134	-1217.08860	85.05134
84550.00000	85.26196	-1222.98133	85.26196
84600.00000	85.44776	-1229.08181	85.44776
84650.00000	85.36130	-1234.58933	85.36130
84700.00000	85.57425	-1240.12607	85.57425
84750.00000	85.64521	-1245.99835	85.64521
84800.00000	85.62883	-1252.22759	85.62883
84850.00000	85.52309	-1258.10563	85.52309
84900.00000	85.46073	-1264.13522	85.46073
84950.00000	85.53250	-1271.27548	85.53250
85000.00000	85.41230	-1277.35429	85.41230
85050.00000	85.15049	-1283.59969	85.15049
85100.00000	84.90133	-1289.58839	84.90133
85150.00000	84.66548	-1296.25830	84.66548
85200.00000	84.30854	-1302.17991	84.30854
85250.00000	84.45356	-1309.26149	84.45356
85300.00000	83.63258	-1315.29505	83.63258
85350.00000	83.27534	-1320.28429	83.27534
85400.00000	82.89940	-1324.72824	82.89940
85450.00000	82.16964	-1329.60816	82.16964
85500.00000	81.58276	-1334.45177	81.58276
85550.00000	81.16013	-1339.59083	81.16013
85600.00000	80.71015	-1343.87248	80.71015
85650.00000	80.09769	-1347.21273	80.09769
85700.00000	79.57855	-1350.73335	79.57855
85750.00000	78.79372	-1355.14147	78.79372
85800.00000	78.20688	-1357.28374	78.20688
85850.00000	77.23174	-1358.77295	77.23174
85900.00000	76.46201	-1364.76610	76.46201
85950.00000	75.83485	-1363.76940	75.83485
86000.00000	75.56089	-1364.04771	75.56089
86050.00000	74.67906	-1363.52028	74.67906
86100.00000	74.73395	-1369.59250	74.73395
86150.00000	73.99195	-1367.03850	73.99195
86200.00000	73.33877	-1364.94389	73.33877
86250.00000	72.32631	-1369.30840	72.32631
86300.00000	72.50019	-1367.70008	72.50019
86350.00000	72.29524	-1364.53012	72.29524
86400.00000	71.86775	-1366.94499	71.86775
86450.00000	71.24587	-1364.36666	71.24587
86500.00000	71.49798	-1364.08512	71.49798
86550.00000	71.86250	-1366.22506	71.86250
86600.00000	71.29882	-1363.61181	71.29882
86650.00000	71.98128	-1366.67564	71.98128
86700.00000	72.02961	-1367.33289	72.02961
86750.00000	72.16024	-1364.71595	72.16024
86800.00000	72.08721	-1366.85625	72.08721
86850.00000	72.23790	-1365.54581	72.23790
86900.00000	71.87230	-1372.29610	71.87230
86950.00000	71.62713	-1369.16620	71.62713
87000.00000	72.50570	-1370.00161	72.50570
87050.00000	71.83207	-1375.05993	71.83207
87100.00000	72.26874	-1378.42674	72.26874
87150.00000	72.25690	-1376.34032	72.25690
87200.00000	72.78732	-1380.82798	72.78732
87250.00000	72.09898	-1381.61726	72.09898
87300.00000	71.62080	-1389.37856	71.62080
87350.00000	72.88260	-1389.89916	72.88260
87400.00000	72.22486	-1391.81750	72.22486
87450.00000	72.00518	-1396.40558	72.00518
87500.00000	71.83182	-1395.28937	71.83182
87550.00000	71.47134	-1397.18977	71.47134
87600.00000	71.89186	-1400.17653	71.89186
87650.00000	71.81289	-1400.80922	71.81289
87700.00000	71.68573	-1406.92533	71.68573
87750.00000	71.63714	-1400.03538	71.63714
87800.00000	71.47225	-1409.78783	71.47225
87850.00000	71.32748	-1412.97635	71.32748
87900.00000	71.05022	-1414.77959	71.05022
87950.00000	70.89476	-1413.98963	70.89476
88000.00000	71.00642	-1417.90187	71.00642
88050.00000	71.41356	-1420.36631	71.41356
88100.00000	71.05723	-1426.00479	71.05723
88150.00000	70.92488	-1428.19619	70.92488
88200.00000	70.53643	-1431.62059	70.53643
88250.00000	70.88810	-1433.83070	70.88810
88300.00000	69.61142	-1433.29121	69.61142
88350.00000	69.98388	-1439.46397	69.98388
88400.00000	69.91871	-1438.83744	69.91871
88450.00000	69.35531	-1439.66536	69.35531
88500.00000	69.17581	-1442.98666	69.17581
88550.00000	69.36983	-1446.53809	69.36983
88600.00000	68.99948	-1450.10360	68.99948
88650.00000	68.31687	-1446.24802	68.31687
88700.00000	68.07995	-1450.46027	68.07995
88750.00000	68.72128	-1449.93682	68.72128
88800.00000	67.89990	-1454.21942	67.89990
88850.00000	67.98505	-1452.12746	67.98505
88900.00000	67.76238	-1453.50428	67.76238
88950.00000	67.28622	-1452.44455	67.28622
89000.00000	66.80274	-1456.65997	66.80274
89050.00000	67.65218	-1456.06166	67.65218
89100.00000	67.71971	-1458.32861	67.71971
89150.00000	66.62971	-1453.77063	66.62971
89200.00000	66.63928	-1463.54995	66.63928
89250.00000	66.84807	-1461.65701	66.84807
89300.00000	67.01595	-1462.29984	67.01595
89350.00000	66.01855	-1462.44658	66.01855
89400.00000	66.36031	-1462.34512	66.36031
89450.00000	66.12149	-1460.64020	66.12149
89500.00000	66.83121	-1464.73410	66.83121
89550.00000	66.27238	-1465.51985	66.27238
89600.00000	66.27152	-1467.07495	66.27152
89650.00000	65.23020	-1466.30866	65.23020
89700.00000	65.07273	-1463.35084	65.07273
89750.00000	63.39766	-1470.36214	63.39766
89800.00000	64.12925	-1459.59327	64.12925
89850.00000	64.88024	-1455.60255	64.88024
89900.00000	63.90350	-1455.98657	63.90350
89950.00000	65.75133	-1453.70358	65.75133
90000.00000	65.23797	-1442.31387	65.23797
90050.00000	66.75986	-1435.36253	66.75986
90100.00000	68.86608	-1430.56335	68.86608
90150.00000	70.17463	-1430.83729	70.17463
90200.00000	73.36686	-1435.54783	73.36686
90250.00000	74.78805	-1454.68191	74.78805
90300.00000	74.62448	-1475.21011	74.62448
90350.00000	73.57760	-1479.99565	73.57760
90400.00000	73.86336	-1485.74278	73.86336
90450.00000	73.24275	-1491.40269	73.24275
90500.00000	72.73241	-1489.06467	72.73241
90550.00000	72.87393	-1494.12721	72.87393
90600.00000	72.97411	-1494.47299	72.97411
90650.00000	73.20405	-1497.66566	73.20405
90700.00000	73.08189	-1500.72709	73.08189
90750.00000	73.20018	-1501.61744	73.20018
90800.00000	73.11950	-1505.64684	73.11950
90850.00000	73.17505	-1505.31039	73.17505
90900.00000	73.46713	-1510.09405	73.46713
90950.00000	73.86153	-1514.17140	73.86153
91000.00000	74.37226	-1512.52943	74.37226
91050.00000	74.79903	-1519.09464	74.79903
91100.00000	74.56950	-1521.82814	74.56950
91150.00000	74.78774	-1519.85602	74.78774
91200.00000	74.96192	-1525.73551	74.96192
91250.00000	75.34523	-1529.67087	75.34523
91300.00000	75.14372	-1533.36094	75.14372
91350.00000	75.18900	-1534.49542	75.18900
91400.00000	75.43777	-1538.51904	75.43777
91450.00000	75.69372	-1541.36368	75.69372
91500.00000	76.15190	-1544.04298	76.15190
91550.00000	75.51839	-1546.69599	75.51839
91600.00000	76.38661	-1549.52207	76.38661
91650.00000	76.23906	-1554.90034	76.23906
91700.00000	76.07487	-1556.48915	76.07487
91750.00000	76.58278	-1557.54063	76.58278
91800.00000	76.87210	-1561.37624	76.87210
91850.00000	77.06622	-1567.08303	77.06622
91900.00000	77.28870	-1570.72105	77.28870
91950.00000	77.40941	-1574.75718	77.40941
92000.00000	77.43203	-1578.54617	77.43203
92050.00000	77.67022	-1584.82630	77.67022
92100.00000	77.90032	-1586.50619	77.90032
92150.00000	77.58651	-1591.17097	77.58651
92200.00000	78.03566	-1597.15771	78.03566
92250.00000	78.05837	-1601.72471	78.05837
92300.00000	78.19688	-1606.79483	78.19688
92350.00000	78.14411	-1609.20847	78.14411
92400.00000	77.97852	-1614.77104	77.97852
92450.00000	78.11026	-1618.03993	78.11026
92500.00000	77.81578	-1622.44597	77.81578
92550.00000	77.83981	-1627.78030	77.83981
92600.00000	77.57234	-1632.03049	77.57234
92650.00000	78.05750	-1636.57221	78.05750
92700.00000	77.88510	-1639.53540	77.88510
92750.00000	77.55095	-1645.99797	77.55095
92800.00000	77.50642	-1651.30467	77.50642
92850.00000	77.60123	-1654.34561	77.60123
92900.00000	77.03489	-1659.44070	77.03489
92950.00000	76.98037	-1660.76135	76.98037
93000.00000	76.88469	-1664.43271	76.88469
93050.00000	76.75857	-1669.71392	76.75857
93100.00000	76.12215	-1672.86400	76.12215
93150.00000	76.02655	-1675.45463	76.02655
93200.00000	75.78902	-1676.14625	75.78902
93250.00000	76.07176	-1680.56267	76.07176
93300.00000	76.21549	-1687.18909	76.21549
93350.00000	75.89668	-1690.80356	75.89668
93400.00000	76.00258	-1693.49728	76.00258
93450.00000	75.17842	-1695.29341	75.17842
93500.00000	76.09327	-1699.86922	76.09327
93550.00000	75.78797	-1705.31748	75.78797
93600.00000	75.84432	-1708.42277	75.84432
93650.00000	75.87671	-1713.68429	75.87671
93700.00000	75.32460	-1714.85840	75.32460
93750.00000	75.48548	-1718.96945	75.48548
93800.00000	75.65295	-1724.32327	75.65295
93850.00000	75.74102	-1729.62498	75.74102
93900.00000	75.00800	-1736.16870	75.00800
93950.00000	75.21796	-1740.00613	75.21796
94000.00000	75.04137	-1742.55060	75.04137
94050.00000	74.83361	-1748.35207	74.83361
94100.00000	75.69334	-1753.04466	75.69334
94150.00000	74.83575	-1754.33518	74.83575
94200.00000	74.74752	-1759.12562	74.74752
94250.00000	74.84002	-1761.20829	74.84002
94300.00000	74.28660	-1770.03647	74.28660
94350.00000	74.16450	-1774.77052	74.16450
94400.00000	73.87816	-1780.05732	73.87816
94450.00000	73.87138	-1777.72241	73.87138
94500.00000	73.17571	-1784.49188	73.17571
94550.00000	73.03281	-1788.34214	73.03281
94600.00000	73.31339	-1793.63229	73.31339
94650.00000	73.50962	-1795.32958	73.50962
94700.00000	73.34104	-1801.15218	73.34104
94750.00000	72.04445	-1802.22113	72.04445
94800.00000	72.29866	-1811.91324	72.29866
94850.00000	71.94492	-1814.36706	71.94492
94900.00000	72.10218	-1820.39769	72.10218
94950.00000	71.59692	-1826.80760	71.59692
95000.00000	72.29306	-1830.28522	72.29306
95050.00000	70.81969	-1835.58862	70.81969
95100.00000	70.63106	-1841.20167	70.63106
95150.00000	69.75791	-1840.03295	69.75791
95200.00000	69.63546	-1848.79716	69.63546
95250.00000	69.44394	-1844.24945	69.44394
95300.00000	69.87649	-1846.11111	69.87649
95350.00000	68.41087	-1844.78262	68.41087
95400.00000	69.18278	-1855.69138	69.18278
95450.00000	68.20472	-1857.28355	68.20472
95500.00000	67.03452	-1855.93106	67.03452
95550.00000	67.00693	-1867.32751	67.00693
95600.00000	67.22942	-1867.82360	67.22942
95650.00000	66.76976	-1875.10506	66.76976
95700.00000	66.20601	-1860.88713	66.20601
95750.00000	67.16118	-1863.10177	67.16118
95800.00000	63.64669	-1862.34497	63.64669
95850.00000	66.44759	-1862.32103	66.44759
95900.00000	66.59800	-1876.46537	66.59800
95950.00000	67.85912	-1867.47566	67.85912
96000.00000	65.14113	-1873.96488	65.14113
96050.00000	66.57533	-1879.04208	66.57533
96100.00000	68.36320	-1881.48413	68.36320
96150.00000	66.42810	-1880.60321	66.42810
96200.00000	66.45340	-1883.08293	66.45340
96250.00000	68.28024	-1917.67272	68.28024
96300.00000	68.14606	-1889.44334	68.14606
96350.00000	65.88221	-1902.38015	65.88221
96400.00000	65.14989	-1915.44836	65.14989
96450.00000	67.06949	-1903.74090	67.06949
96500.00000	65.22106	-1923.55288	65.22106
96550.00000	59.59051	-1926.85562	59.59051
96600.00000	64.38120	-1933.52270	64.38120
96650.00000	64.17635	-1933.34961	64.17635
96700.00000	64.92811	-1923.46703	64.92811
96750.00000	63.59276	-1944.44399	63.59276
96800.00000	54.91920	-1952.90742	54.91920
96850.00000	64.81652	-1950.20266	64.81652
96900.00000	63.64291	-1974.72671	63.64291
96950.00000	63.36723	-1925.45094	63.36723
97000.00000	64.69423	-1957.89213	64.69423
97050.00000	63.56334	-1942.49286	63.56334
97100.00000	60.46322	-1946.40231	60.46322
97150.00000	64.92481	-1991.36403	64.92481
97200.00000	68.11440	-1977.30830	68.11440
97250.00000	68.66098	-2021.62058	68.66098
97300.00000	64.29701	-2037.65239	64.29701
97350.00000	64.83617	-1998.00673	64.83617
97400.00000	56.14058	-2102.21012	56.14058
97450.00000	60.71457	-2060.62571	60.71457
97500.00000	61.27804	-2063.83242	61.27804
97550.00000	57.95480	-2082.12710	57.95480
97600.00000	56.78481	-2043.24662	56.78481
97650.00000	56.34274	-2092.72711	56.34274
97700.00000	59.06564	-2059.13125	59.06564
97750.00000	58.02758	-2069.78961	58.02758
97800.00000	55.94021	-2085.47098	55.94021
97850.00000	60.17526	-2097.70839	60.17526
97900.00000	57.84542	-2110.52289	57.84542
97950.00000	57.06176	-2132.33879	57.06176
98000.00000	51.46555	-2104.02798	51.46555
98050.00000	57.00917	-2108.53120	57.00917
98100.00000	56.20266	-2127.60323	56.20266
98150.00000	59.13168	-2081.13124	59.13168
98200.00000	49.22360	-2031.63944	49.22360
98250.00000	59.12516	-2136.10672	59.12516
98300.00000	55.96593	-2119.80367	55.96593
98350.00000	52.97248	-2095.85928	52.97248
98400.00000	59.41011	-2118.37124	59.41011
98450.00000	56.25208	-2135.73751	56.25208
98500.00000	60.24166	-2131.37156	60.24166
98550.00000	46.97702	-2178.80471	46.97702
98600.00000	49.85766	-2167.71862	49.85766
98650.00000	46.52419	-2093.33370	46.52419
98700.00000	57.01611	-2132.60704	57.01611
98750.00000	45.30441	-1991.12029	45.30441
98800.00000	51.82237	-2120.35870	51.82237
98850.00000	53.24291	-2065.97371	53.24291
98900.00000	42.32458	-2180.55236	42.32458
98950.00000	51.92163	-2133.96773	51.92163
99000.00000	48.65072	-2201.73241	48.65072
99050.00000	43.55004	-2033.51699	43.55004
99100.00000	31.91716	-2134.79154	31.91716
99150.00000	50.95149	-2097.14404	50.95149
99200.00000	53.25498	-2117.88274	53.25498
99250.00000	55.95875	-2105.22890	55.95875
99300.00000	53.83743	-2083.16608	53.83743
99350.00000	57.07729	-2087.39579	57.07729
99400.00000	54.03981	-2131.69468	54.03981
99450.00000	45.59984	-2068.38439	45.59984
99500.00000	50.12200	-2131.37627	50.12200
99550.00000	56.22961	-2099.78740	56.22961
99600.00000	54.85091	-2147.04645	54.85091
99650.00000	56.43528	-2142.52260	56.43528
99700.00000	54.92082	-2120.74239	54.92082
99750.00000	55.60932	-2129.70840	55.60932
99800.00000	52.49504	-2156.87861	52.49504
99850.00000	51.13616	-2130.18871	51.13616
99900.00000	54.84327	-2143.50914	54.84327
99950.00000	53.73161	-2150.80896	53.73161
