---ACOUSTIC CALIBRATION---
Filename: C:\Data\AZH DATA\AZH41\RightSecondary.calib
Date: 8/27/2019 2:02:50 PM
Format: 4
Probe Tube Correction File: C:\Data\Probe Tube Calibrations\50_ProbeTube.calib
Experiment VIs: 850
EPL_CFTS.exe V12.0.1 (2012)
DAQmx V9.6

Attenuation (dB): 40.000000
Min Freq (Hz): 50.000000
Max Freq (Hz): 49950.000000
Freq Step (Hz): 50.000000
Sample Rate (Hz): 100000.000000
[Smoothing]
Method=None
MA.Iterations=0
MA.Length=0
Loess.Length=0
Loess.Type=Linear
Loess.Robust=FALSE


Freq(Hz)	Mag(dB)	Phase(deg)	Unsmoothed(dB)

50.00000	109.87972	474.12153	109.87972
100.00000	89.28136	538.55470	89.28136
150.00000	83.78749	507.53165	83.78749
200.00000	84.97969	435.84612	84.97969
250.00000	93.10102	426.00934	93.10102
300.00000	93.58015	382.95817	93.58015
350.00000	88.16939	325.27208	88.16939
400.00000	88.16316	301.43303	88.16316
450.00000	84.98068	297.27716	84.98068
500.00000	90.38861	316.00295	90.38861
550.00000	89.12296	324.22731	89.12296
600.00000	92.76738	327.89340	92.76738
650.00000	94.33757	325.72660	94.33757
700.00000	96.91477	318.89403	96.91477
750.00000	99.36573	315.79263	99.36573
800.00000	101.91072	305.20385	101.91072
850.00000	104.21755	295.24793	104.21755
900.00000	105.77327	280.11643	105.77327
950.00000	107.13684	263.87814	107.13684
1000.00000	107.22317	245.90483	107.22317
1050.00000	106.67535	236.68306	106.67535
1100.00000	107.02663	225.81444	107.02663
1150.00000	106.15753	215.82606	106.15753
1200.00000	106.00342	213.50476	106.00342
1250.00000	106.08625	203.82300	106.08625
1300.00000	105.35358	197.73647	105.35358
1350.00000	104.66118	192.34509	104.66118
1400.00000	104.00661	191.85733	104.00661
1450.00000	104.07500	191.81559	104.07500
1500.00000	104.34087	189.85490	104.34087
1550.00000	104.07015	189.38147	104.07015
1600.00000	105.09507	185.87032	105.09507
1650.00000	105.91355	177.60057	105.91355
1700.00000	104.70278	173.87085	104.70278
1750.00000	104.65616	172.57104	104.65616
1800.00000	104.42907	170.46309	104.42907
1850.00000	104.40162	172.11677	104.40162
1900.00000	105.32730	171.91213	105.32730
1950.00000	106.25627	163.82909	106.25627
2000.00000	106.06003	153.72186	106.06003
2050.00000	105.07592	149.74768	105.07592
2100.00000	104.94550	147.33627	104.94550
2150.00000	104.66816	145.36210	104.66816
2200.00000	104.25350	142.04115	104.25350
2250.00000	103.35012	141.57192	103.35012
2300.00000	103.34403	143.75225	103.34403
2350.00000	103.16329	144.96446	103.16329
2400.00000	103.36863	146.25805	103.36863
2450.00000	103.35768	143.21583	103.35768
2500.00000	103.19209	144.32823	103.19209
2550.00000	103.03943	146.00276	103.03943
2600.00000	103.37582	151.49795	103.37582
2650.00000	104.62348	154.88892	104.62348
2700.00000	106.16174	152.63790	106.16174
2750.00000	107.25275	143.99856	107.25275
2800.00000	107.52086	135.03042	107.52086
2850.00000	107.38165	127.60985	107.38165
2900.00000	107.01415	122.17698	107.01415
2950.00000	106.73788	118.94568	106.73788
3000.00000	106.43840	115.60732	106.43840
3050.00000	106.15351	112.95204	106.15351
3100.00000	106.09641	110.29232	106.09641
3150.00000	105.82124	105.53707	105.82124
3200.00000	105.30723	102.26568	105.30723
3250.00000	104.59796	99.70981	104.59796
3300.00000	103.76004	96.96631	103.76004
3350.00000	102.56634	97.11542	102.56634
3400.00000	101.44158	102.80098	101.44158
3450.00000	100.86322	111.18421	100.86322
3500.00000	101.07277	118.58148	101.07277
3550.00000	101.48121	123.88865	101.48121
3600.00000	101.94435	127.22168	101.94435
3650.00000	101.95099	129.38836	101.95099
3700.00000	101.54590	136.47897	101.54590
3750.00000	101.98885	148.40565	101.98885
3800.00000	103.61796	158.89385	103.61796
3850.00000	105.59520	163.89001	105.59520
3900.00000	107.62790	164.38537	107.62790
3950.00000	109.44580	162.04248	109.44580
4000.00000	110.85861	157.84078	110.85861
4050.00000	112.01707	153.31612	112.01707
4100.00000	112.94552	149.27841	112.94552
4150.00000	113.98530	145.64760	113.98530
4200.00000	114.76812	142.17632	114.76812
4250.00000	115.60575	138.98958	115.60575
4300.00000	116.50908	136.17759	116.50908
4350.00000	117.46806	133.39584	117.46806
4400.00000	118.56573	130.63632	118.56573
4450.00000	119.78588	127.20703	119.78588
4500.00000	121.11542	122.70132	121.11542
4550.00000	122.49513	116.67342	122.49513
4600.00000	123.84867	109.33094	123.84867
4650.00000	125.22255	100.69976	125.22255
4700.00000	126.48419	90.04157	126.48419
4750.00000	127.57924	77.47910	127.57924
4800.00000	128.38722	63.15451	128.38722
4850.00000	128.76486	47.83398	128.76486
4900.00000	128.67576	32.41707	128.67576
4950.00000	128.12608	18.02506	128.12608
5000.00000	127.13649	 5.77871	127.13649
5050.00000	126.00651	-2.97983	126.00651
5100.00000	124.77252	-12.17194	124.77252
5150.00000	122.31646	-15.27997	122.31646
5200.00000	120.84609	 2.42467	120.84609
5250.00000	123.88833	11.70153	123.88833
5300.00000	125.98618	-0.96641	125.98618
5350.00000	126.46962	-15.25918	126.46962
5400.00000	126.28173	-27.04054	126.28173
5450.00000	125.86768	-36.40783	125.86768
5500.00000	125.38894	-44.36011	125.38894
5550.00000	124.90708	-51.23328	124.90708
5600.00000	124.42154	-57.49460	124.42154
5650.00000	123.95349	-63.12597	123.95349
5700.00000	123.47473	-68.49166	123.47473
5750.00000	123.04260	-73.34150	123.04260
5800.00000	122.59390	-78.05059	122.59390
5850.00000	122.18021	-82.54677	122.18021
5900.00000	121.78676	-86.84430	121.78676
5950.00000	121.39249	-91.01592	121.39249
6000.00000	121.01154	-94.95129	121.01154
6050.00000	120.62056	-98.94027	120.62056
6100.00000	120.24211	-102.71713	120.24211
6150.00000	119.87654	-106.36722	119.87654
6200.00000	119.49565	-109.99728	119.49565
6250.00000	119.15692	-113.56205	119.15692
6300.00000	118.80644	-116.97672	118.80644
6350.00000	118.43963	-120.54090	118.43963
6400.00000	118.07375	-123.80368	118.07375
6450.00000	117.72581	-127.11393	117.72581
6500.00000	117.34711	-130.30015	117.34711
6550.00000	116.97209	-133.33182	116.97209
6600.00000	116.59361	-136.31060	116.59361
6650.00000	116.21561	-139.09513	116.21561
6700.00000	115.84551	-141.99218	115.84551
6750.00000	115.46385	-144.61626	115.46385
6800.00000	115.08788	-147.12672	115.08788
6850.00000	114.71800	-149.67515	114.71800
6900.00000	114.33551	-151.88918	114.33551
6950.00000	113.96148	-153.93265	113.96148
7000.00000	113.62041	-156.02674	113.62041
7050.00000	113.26396	-158.16188	113.26396
7100.00000	112.92555	-160.12788	112.92555
7150.00000	112.58365	-161.81723	112.58365
7200.00000	112.25040	-163.55400	112.25040
7250.00000	111.88710	-165.04006	111.88710
7300.00000	111.58386	-166.44987	111.58386
7350.00000	111.24940	-167.47782	111.24940
7400.00000	110.97780	-168.60356	110.97780
7450.00000	110.69842	-169.43679	110.69842
7500.00000	110.43103	-170.17986	110.43103
7550.00000	110.26374	-170.79576	110.26374
7600.00000	110.06345	-171.47214	110.06345
7650.00000	109.91949	-172.18091	109.91949
7700.00000	109.84424	-173.15914	109.84424
7750.00000	109.69359	-174.21050	109.69359
7800.00000	109.59415	-175.14706	109.59415
7850.00000	109.51991	-176.14693	109.51991
7900.00000	109.45193	-177.26290	109.45193
7950.00000	109.35192	-178.63254	109.35192
8000.00000	109.26688	-179.93511	109.26688
8050.00000	109.19206	-181.55655	109.19206
8100.00000	109.10515	-182.42415	109.10515
8150.00000	108.97980	-183.62741	108.97980
8200.00000	108.91973	-184.56931	108.91973
8250.00000	108.82187	-185.87343	108.82187
8300.00000	108.77213	-187.00915	108.77213
8350.00000	108.73115	-188.01582	108.73115
8400.00000	108.70298	-189.45578	108.70298
8450.00000	108.60475	-190.47801	108.60475
8500.00000	108.57631	-191.61695	108.57631
8550.00000	108.58144	-192.49993	108.58144
8600.00000	108.58400	-193.90866	108.58400
8650.00000	108.57156	-195.03350	108.57156
8700.00000	108.62243	-196.80414	108.62243
8750.00000	108.59931	-197.33254	108.59931
8800.00000	108.64667	-199.01289	108.64667
8850.00000	108.67889	-200.67639	108.67889
8900.00000	108.74748	-202.09682	108.74748
8950.00000	108.84720	-204.12402	108.84720
9000.00000	108.87448	-205.85765	108.87448
9050.00000	109.04447	-208.02280	109.04447
9100.00000	109.20827	-210.13258	109.20827
9150.00000	109.39031	-212.35930	109.39031
9200.00000	109.57075	-214.68832	109.57075
9250.00000	109.68992	-216.88602	109.68992
9300.00000	109.86949	-219.10994	109.86949
9350.00000	110.05975	-221.35264	110.05975
9400.00000	110.10648	-223.39021	110.10648
9450.00000	110.27010	-225.87167	110.27010
9500.00000	110.39657	-228.35310	110.39657
9550.00000	110.46970	-231.00896	110.46970
9600.00000	110.62743	-234.30911	110.62743
9650.00000	110.72342	-237.98502	110.72342
9700.00000	110.83455	-241.07739	110.83455
9750.00000	110.99133	-245.34065	110.99133
9800.00000	111.05392	-248.32034	111.05392
9850.00000	111.12328	-251.42136	111.12328
9900.00000	111.01137	-254.90525	111.01137
9950.00000	110.98944	-257.75656	110.98944
10000.00000	110.89941	-261.46010	110.89941
10050.00000	110.74003	-264.82189	110.74003
10100.00000	110.55230	-268.29883	110.55230
10150.00000	110.29765	-272.74984	110.29765
10200.00000	110.15101	-276.71359	110.15101
10250.00000	109.94920	-281.06574	109.94920
10300.00000	109.90188	-284.83190	109.90188
10350.00000	109.76192	-288.29607	109.76192
10400.00000	109.57135	-291.74822	109.57135
10450.00000	109.49141	-295.01794	109.49141
10500.00000	109.33216	-297.85917	109.33216
10550.00000	109.09099	-300.81830	109.09099
10600.00000	108.80975	-303.59283	108.80975
10650.00000	108.50003	-306.33437	108.50003
10700.00000	108.24404	-310.50885	108.24404
10750.00000	108.03606	-314.08449	108.03606
10800.00000	107.77569	-317.18344	107.77569
10850.00000	107.57257	-321.07728	107.57257
10900.00000	107.38661	-323.72769	107.38661
10950.00000	107.15515	-325.93800	107.15515
11000.00000	106.84898	-328.22640	106.84898
11050.00000	106.34161	-330.38340	106.34161
11100.00000	105.91740	-333.10348	105.91740
11150.00000	105.37159	-335.53460	105.37159
11200.00000	104.99633	-338.13136	104.99633
11250.00000	104.51846	-341.18751	104.51846
11300.00000	104.08642	-343.81719	104.08642
11350.00000	103.74467	-345.36641	103.74467
11400.00000	103.30263	-346.79701	103.30263
11450.00000	102.95127	-348.19070	102.95127
11500.00000	102.66762	-348.22549	102.66762
11550.00000	102.13738	-348.79089	102.13738
11600.00000	101.78474	-350.52136	101.78474
11650.00000	101.34761	-350.65623	101.34761
11700.00000	101.08047	-351.88742	101.08047
11750.00000	100.87615	-353.29406	100.87615
11800.00000	100.69228	-354.87115	100.69228
11850.00000	100.57710	-354.52547	100.57710
11900.00000	100.24614	-355.63661	100.24614
11950.00000	100.02851	-355.54364	100.02851
12000.00000	99.64441	-355.56425	99.64441
12050.00000	99.20465	-356.04891	99.20465
12100.00000	98.89175	-357.80505	98.89175
12150.00000	98.53678	-359.15553	98.53678
12200.00000	98.32287	-361.04481	98.32287
12250.00000	98.08625	-361.48698	98.08625
12300.00000	99.00055	-362.25263	99.00055
12350.00000	97.61037	-362.27021	97.61037
12400.00000	97.28995	-360.83919	97.28995
12450.00000	96.89765	-359.89339	96.89765
12500.00000	96.50286	-359.57924	96.50286
12550.00000	96.14377	-359.74972	96.14377
12600.00000	95.84049	-359.92049	95.84049
12650.00000	95.74814	-359.68987	95.74814
12700.00000	95.57147	-359.20439	95.57147
12750.00000	95.46855	-358.69592	95.46855
12800.00000	95.31361	-356.61106	95.31361
12850.00000	94.89484	-354.77672	94.89484
12900.00000	94.78659	-353.58152	94.78659
12950.00000	94.66568	-352.82312	94.66568
13000.00000	94.64892	-352.29379	94.64892
13050.00000	94.68853	-350.94993	94.68853
13100.00000	94.73916	-350.33620	94.73916
13150.00000	94.90226	-348.94220	94.90226
13200.00000	94.95315	-346.77149	94.95315
13250.00000	94.89081	-345.35168	94.89081
13300.00000	94.91642	-342.65554	94.91642
13350.00000	94.85623	-342.86636	94.85623
13400.00000	95.17825	-342.91991	95.17825
13450.00000	95.20517	-342.16554	95.20517
13500.00000	95.48556	-340.42372	95.48556
13550.00000	95.67424	-340.03445	95.67424
13600.00000	95.97397	-338.30799	95.97397
13650.00000	96.23983	-336.77666	96.23983
13700.00000	96.27975	-336.49566	96.27975
13750.00000	96.34506	-335.68784	96.34506
13800.00000	96.48763	-337.49756	96.48763
13850.00000	96.68938	-338.25948	96.68938
13900.00000	96.90072	-338.89169	96.90072
13950.00000	97.37390	-338.92835	97.37390
14000.00000	97.98394	-337.52309	97.98394
14050.00000	98.40956	-337.54126	98.40956
14100.00000	98.52959	-336.66091	98.52959
14150.00000	98.96401	-336.78237	98.96401
14200.00000	99.34343	-337.09059	99.34343
14250.00000	99.94121	-336.32871	99.94121
14300.00000	100.27700	-337.57936	100.27700
14350.00000	100.65879	-336.76350	100.65879
14400.00000	100.68088	-338.07524	100.68088
14450.00000	101.03837	-338.13693	101.03837
14500.00000	101.42543	-340.61325	101.42543
14550.00000	101.97078	-341.79482	101.97078
14600.00000	102.37760	-344.33884	102.37760
14650.00000	103.10409	-343.75908	103.10409
14700.00000	103.51946	-348.61282	103.51946
14750.00000	103.89984	-349.72261	103.89984
14800.00000	104.13816	-351.10304	104.13816
14850.00000	104.65859	-353.33182	104.65859
14900.00000	105.10869	-356.43279	105.10869
14950.00000	105.51318	-359.60237	105.51318
15000.00000	105.91071	-362.78441	105.91071
15050.00000	106.12266	-364.61536	106.12266
15100.00000	106.49807	-367.41951	106.49807
15150.00000	106.96288	-371.11278	106.96288
15200.00000	107.13449	-372.04792	107.13449
15250.00000	107.18603	-375.41496	107.18603
15300.00000	107.55269	-378.68736	107.55269
15350.00000	107.63988	-382.74534	107.63988
15400.00000	107.77069	-384.91298	107.77069
15450.00000	107.95966	-388.58077	107.95966
15500.00000	108.25343	-391.66866	108.25343
15550.00000	108.45416	-395.05305	108.45416
15600.00000	108.57541	-398.40050	108.57541
15650.00000	108.87552	-399.54910	108.87552
15700.00000	108.83744	-403.51553	108.83744
15750.00000	109.03691	-405.85916	109.03691
15800.00000	109.13316	-407.73023	109.13316
15850.00000	109.18836	-410.42722	109.18836
15900.00000	109.22067	-413.74120	109.22067
15950.00000	109.36830	-416.45219	109.36830
16000.00000	109.44031	-418.83765	109.44031
16050.00000	109.60691	-421.43661	109.60691
16100.00000	109.57212	-424.59057	109.57212
16150.00000	109.67292	-426.81082	109.67292
16200.00000	109.81916	-429.65019	109.81916
16250.00000	109.91441	-431.38486	109.91441
16300.00000	110.08685	-433.82233	110.08685
16350.00000	110.09722	-436.44697	110.09722
16400.00000	110.18583	-438.62967	110.18583
16450.00000	110.30038	-440.80123	110.30038
16500.00000	110.36921	-443.06385	110.36921
16550.00000	110.53320	-446.07719	110.53320
16600.00000	110.62878	-448.16450	110.62878
16650.00000	110.71040	-450.30288	110.71040
16700.00000	110.88323	-452.12536	110.88323
16750.00000	110.87176	-454.68390	110.87176
16800.00000	111.02159	-457.20217	111.02159
16850.00000	111.22584	-459.35534	111.22584
16900.00000	111.36043	-461.77025	111.36043
16950.00000	111.50389	-463.99942	111.50389
17000.00000	111.49333	-466.48074	111.49333
17050.00000	111.69775	-468.35276	111.69775
17100.00000	111.79490	-470.05988	111.79490
17150.00000	112.11605	-473.00479	112.11605
17200.00000	112.25986	-475.13113	112.25986
17250.00000	112.33612	-478.14859	112.33612
17300.00000	112.56649	-480.74711	112.56649
17350.00000	112.61216	-483.23258	112.61216
17400.00000	112.87664	-485.98684	112.87664
17450.00000	112.94500	-489.14399	112.94500
17500.00000	113.11475	-492.01584	113.11475
17550.00000	113.27057	-495.00381	113.27057
17600.00000	113.50846	-497.66192	113.50846
17650.00000	113.62133	-501.44617	113.62133
17700.00000	113.70750	-504.56189	113.70750
17750.00000	113.92903	-507.18248	113.92903
17800.00000	113.91952	-511.03207	113.91952
17850.00000	114.02422	-513.78579	114.02422
17900.00000	114.08585	-517.16571	114.08585
17950.00000	114.23666	-520.79822	114.23666
18000.00000	114.27650	-524.59152	114.27650
18050.00000	114.46484	-527.31345	114.46484
18100.00000	114.43417	-531.11412	114.43417
18150.00000	114.43916	-533.84290	114.43916
18200.00000	114.42098	-537.87405	114.42098
18250.00000	114.53383	-540.32948	114.53383
18300.00000	114.59176	-543.60717	114.59176
18350.00000	114.57538	-546.81885	114.57538
18400.00000	114.53439	-550.42996	114.53439
18450.00000	114.50941	-554.78296	114.50941
18500.00000	114.54042	-557.82037	114.54042
18550.00000	114.49996	-560.44428	114.49996
18600.00000	114.57209	-564.20923	114.57209
18650.00000	114.41925	-567.03702	114.41925
18700.00000	114.38034	-570.80744	114.38034
18750.00000	114.42678	-573.81682	114.42678
18800.00000	114.49622	-576.39070	114.49622
18850.00000	114.34218	-579.90583	114.34218
18900.00000	114.29116	-582.88285	114.29116
18950.00000	114.26842	-586.73578	114.26842
19000.00000	114.10277	-589.51983	114.10277
19050.00000	114.19312	-592.71988	114.19312
19100.00000	114.06680	-595.66692	114.06680
19150.00000	114.14101	-598.69139	114.14101
19200.00000	114.03774	-601.64999	114.03774
19250.00000	113.97505	-605.91635	113.97505
19300.00000	113.83835	-608.27651	113.83835
19350.00000	113.77968	-611.52842	113.77968
19400.00000	113.65296	-614.48139	113.65296
19450.00000	113.64597	-617.19751	113.64597
19500.00000	113.47537	-621.17170	113.47537
19550.00000	113.41396	-624.09492	113.41396
19600.00000	113.37746	-627.65053	113.37746
19650.00000	113.19121	-630.22294	113.19121
19700.00000	112.97020	-633.57131	112.97020
19750.00000	112.84327	-636.10736	112.84327
19800.00000	112.82329	-639.89956	112.82329
19850.00000	112.71188	-642.42913	112.71188
19900.00000	112.49480	-646.11917	112.49480
19950.00000	112.32156	-649.06213	112.32156
20000.00000	112.18879	-652.05451	112.18879
20050.00000	112.05195	-654.94415	112.05195
20100.00000	111.79666	-657.83404	111.79666
20150.00000	111.67078	-659.71855	111.67078
20200.00000	111.43961	-663.36403	111.43961
20250.00000	111.21171	-666.04331	111.21171
20300.00000	110.95886	-668.71846	110.95886
20350.00000	110.82976	-671.31862	110.82976
20400.00000	110.52511	-673.10401	110.52511
20450.00000	110.20674	-675.70466	110.20674
20500.00000	110.06124	-678.48909	110.06124
20550.00000	109.60998	-679.83703	109.60998
20600.00000	109.45979	-681.59428	109.45979
20650.00000	109.19633	-683.47595	109.19633
20700.00000	108.88963	-685.22579	108.88963
20750.00000	108.71310	-686.75312	108.71310
20800.00000	108.44059	-687.77581	108.44059
20850.00000	108.27111	-688.97183	108.27111
20900.00000	107.96258	-690.00983	107.96258
20950.00000	107.74342	-690.52813	107.74342
21000.00000	107.58229	-691.16205	107.58229
21050.00000	107.58212	-691.35900	107.58212
21100.00000	107.42154	-691.45618	107.42154
21150.00000	107.39614	-692.22624	107.39614
21200.00000	107.39774	-692.39686	107.39774
21250.00000	107.39715	-694.11461	107.39715
21300.00000	107.48192	-694.10176	107.48192
21350.00000	107.47910	-694.54693	107.47910
21400.00000	107.51044	-695.94052	107.51044
21450.00000	107.59832	-697.24107	107.59832
21500.00000	107.72008	-698.73584	107.72008
21550.00000	107.68200	-699.51681	107.68200
21600.00000	107.80199	-701.15960	107.80199
21650.00000	107.81856	-702.97919	107.81856
21700.00000	107.90261	-704.26226	107.90261
21750.00000	107.99119	-705.66479	107.99119
21800.00000	108.04234	-707.30288	108.04234
21850.00000	108.01121	-708.88018	108.01121
21900.00000	108.09646	-710.74452	108.09646
21950.00000	108.17585	-712.43686	108.17585
22000.00000	108.29807	-713.84798	108.29807
22050.00000	108.29727	-715.08345	108.29727
22100.00000	108.30258	-717.28586	108.30258
22150.00000	108.37286	-719.14678	108.37286
22200.00000	108.50160	-720.86449	108.50160
22250.00000	108.49318	-721.96519	108.49318
22300.00000	108.41269	-723.91784	108.41269
22350.00000	108.54696	-726.16044	108.54696
22400.00000	108.66082	-728.20552	108.66082
22450.00000	108.63901	-729.66386	108.63901
22500.00000	108.60598	-730.19744	108.60598
22550.00000	108.61459	-732.37807	108.61459
22600.00000	108.64720	-735.37276	108.64720
22650.00000	108.75721	-737.07902	108.75721
22700.00000	108.76405	-738.09764	108.76405
22750.00000	108.74520	-738.01544	108.74520
22800.00000	108.78202	-742.06460	108.78202
22850.00000	108.91121	-744.69249	108.91121
22900.00000	108.97774	-744.99274	108.97774
22950.00000	109.06629	-746.50607	109.06629
23000.00000	109.03226	-747.71018	109.03226
23050.00000	109.05828	-750.98782	109.05828
23100.00000	109.23439	-751.72416	109.23439
23150.00000	109.16252	-752.77792	109.16252
23200.00000	109.28129	-755.77587	109.28129
23250.00000	109.15746	-758.85123	109.15746
23300.00000	109.48368	-761.00515	109.48368
23350.00000	109.26862	-762.94595	109.26862
23400.00000	109.28137	-764.60902	109.28137
23450.00000	109.37849	-767.27108	109.37849
23500.00000	109.24636	-768.71342	109.24636
23550.00000	109.27623	-769.49785	109.27623
23600.00000	109.19783	-773.16655	109.19783
23650.00000	109.24438	-774.70053	109.24438
23700.00000	109.36992	-779.02265	109.36992
23750.00000	109.29671	-780.13138	109.29671
23800.00000	109.00435	-780.54390	109.00435
23850.00000	109.04956	-782.00059	109.04956
23900.00000	109.35366	-784.65039	109.35366
23950.00000	108.95008	-787.33211	108.95008
24000.00000	108.78115	-790.08843	108.78115
24050.00000	108.83067	-789.76258	108.83067
24100.00000	109.04258	-793.13873	109.04258
24150.00000	108.93535	-794.70236	108.93535
24200.00000	108.87978	-797.52060	108.87978
24250.00000	108.46360	-797.30248	108.46360
24300.00000	108.71719	-799.18218	108.71719
24350.00000	108.56305	-801.03364	108.56305
24400.00000	108.50185	-803.10680	108.50185
24450.00000	108.25109	-803.82870	108.25109
24500.00000	108.75873	-804.87504	108.75873
24550.00000	108.60212	-808.84098	108.60212
24600.00000	109.07471	-809.03589	109.07471
24650.00000	108.72563	-812.70944	108.72563
24700.00000	108.73942	-811.88890	108.73942
24750.00000	108.76465	-455.99378	108.76465
24800.00000	108.81907	-97.80357	108.81907
24850.00000	108.53799	261.78795	108.53799
24900.00000	108.74057	621.02938	108.74057
24950.00000	108.93796	976.83641	108.93796
25000.00000	109.04451	970.07234	109.04451
25050.00000	109.21103	969.94345	109.21103
25100.00000	108.77896	967.86138	108.77896
25150.00000	109.10944	967.28281	109.10944
25200.00000	108.94003	962.79141	108.94003
25250.00000	109.15547	961.81212	109.15547
25300.00000	109.25771	960.17093	109.25771
25350.00000	109.12935	952.87177	109.12935
25400.00000	109.10555	949.53152	109.10555
25450.00000	109.18292	947.78348	109.18292
25500.00000	109.05057	945.46766	109.05057
25550.00000	109.00639	941.20107	109.00639
25600.00000	109.06626	938.79953	109.06626
25650.00000	108.89046	936.66323	108.89046
25700.00000	108.89284	933.09383	108.89284
25750.00000	108.61295	929.66060	108.61295
25800.00000	108.49601	925.65491	108.49601
25850.00000	108.41756	922.91848	108.41756
25900.00000	108.26220	918.82506	108.26220
25950.00000	107.92069	919.61099	107.92069
26000.00000	107.85720	914.09771	107.85720
26050.00000	107.76084	911.60449	107.76084
26100.00000	107.49142	909.28812	107.49142
26150.00000	107.38003	906.56696	107.38003
26200.00000	107.32864	904.15055	107.32864
26250.00000	107.06863	901.29085	107.06863
26300.00000	106.95156	897.89133	106.95156
26350.00000	106.42292	896.88288	106.42292
26400.00000	106.24231	894.41120	106.24231
26450.00000	106.39681	891.15207	106.39681
26500.00000	106.01571	888.95834	106.01571
26550.00000	105.71020	884.31641	105.71020
26600.00000	105.45471	882.65539	105.45471
26650.00000	105.39558	883.95005	105.39558
26700.00000	105.25885	880.79049	105.25885
26750.00000	104.89400	879.26436	104.89400
26800.00000	104.70194	874.23725	104.70194
26850.00000	104.82619	875.24364	104.82619
26900.00000	104.69273	873.96757	104.69273
26950.00000	104.72112	871.17706	104.72112
27000.00000	104.09207	870.78298	104.09207
27050.00000	104.37569	868.50736	104.37569
27100.00000	104.00834	868.72752	104.00834
27150.00000	103.92912	865.43182	103.92912
27200.00000	104.04047	865.32712	104.04047
27250.00000	103.60753	864.48736	103.60753
27300.00000	103.44961	862.89284	103.44961
27350.00000	103.62040	863.21669	103.62040
27400.00000	103.20974	861.86844	103.20974
27450.00000	103.36652	860.84253	103.36652
27500.00000	103.33205	860.14963	103.33205
27550.00000	103.48517	858.53652	103.48517
27600.00000	103.92105	855.78499	103.92105
27650.00000	103.38024	857.79907	103.38024
27700.00000	103.75268	852.93673	103.75268
27750.00000	103.76874	851.64210	103.76874
27800.00000	104.04084	849.16819	104.04084
27850.00000	104.44333	851.41126	104.44333
27900.00000	104.16490	849.96064	104.16490
27950.00000	103.86799	847.17150	103.86799
28000.00000	104.20746	846.94798	104.20746
28050.00000	104.99397	843.51244	104.99397
28100.00000	104.57342	841.83067	104.57342
28150.00000	104.85367	841.02724	104.85367
28200.00000	105.22309	835.64292	105.22309
28250.00000	105.14139	833.35389	105.14139
28300.00000	105.05852	832.34562	105.05852
28350.00000	105.52085	830.90343	105.52085
28400.00000	105.59986	829.39473	105.59986
28450.00000	106.32349	825.21527	106.32349
28500.00000	106.03469	823.90060	106.03469
28550.00000	106.15621	823.30448	106.15621
28600.00000	106.38291	819.81840	106.38291
28650.00000	106.78817	814.07520	106.78817
28700.00000	106.79501	813.51579	106.79501
28750.00000	107.49368	811.87335	107.49368
28800.00000	107.42095	807.76568	107.42095
28850.00000	106.93269	802.36509	106.93269
28900.00000	107.16975	799.49017	107.16975
28950.00000	107.16610	798.03231	107.16610
29000.00000	107.40989	794.19291	107.40989
29050.00000	107.17370	793.32289	107.17370
29100.00000	107.17917	790.72772	107.17917
29150.00000	107.06482	787.62556	107.06482
29200.00000	106.96110	783.23941	106.96110
29250.00000	107.30022	780.94528	107.30022
29300.00000	106.94745	777.04911	106.94745
29350.00000	107.25503	773.87311	107.25503
29400.00000	106.95507	771.72622	106.95507
29450.00000	106.85687	769.27489	106.85687
29500.00000	107.08067	767.42364	107.08067
29550.00000	106.64015	762.52297	106.64015
29600.00000	106.38232	761.75340	106.38232
29650.00000	106.36945	758.80219	106.36945
29700.00000	106.14241	759.38904	106.14241
29750.00000	105.97581	757.99000	105.97581
29800.00000	105.61515	754.69026	105.61515
29850.00000	105.59494	752.43250	105.59494
29900.00000	105.67952	752.66675	105.67952
29950.00000	104.74847	752.17857	104.74847
30000.00000	105.05712	751.91631	105.05712
30050.00000	104.96730	750.13839	104.96730
30100.00000	104.57123	750.85822	104.57123
30150.00000	104.55112	747.46373	104.55112
30200.00000	104.40849	746.92211	104.40849
30250.00000	104.06608	747.42210	104.06608
30300.00000	103.67982	748.14243	103.67982
30350.00000	103.77219	750.21854	103.77219
30400.00000	103.66256	748.18059	103.66256
30450.00000	103.22574	748.89361	103.22574
30500.00000	103.26786	748.89813	103.26786
30550.00000	103.09728	750.99442	103.09728
30600.00000	103.04218	752.52636	103.04218
30650.00000	103.08070	753.36850	103.08070
30700.00000	103.11391	753.77582	103.11391
30750.00000	102.98281	756.46179	102.98281
30800.00000	103.07885	757.45619	103.07885
30850.00000	103.26765	759.77431	103.26765
30900.00000	103.25060	762.12240	103.25060
30950.00000	103.65828	761.99591	103.65828
31000.00000	103.90843	762.82054	103.90843
31050.00000	104.24953	764.59327	104.24953
31100.00000	104.69728	765.76998	104.69728
31150.00000	104.70938	766.13753	104.70938
31200.00000	105.50855	765.51286	105.50855
31250.00000	105.77361	765.79034	105.77361
31300.00000	106.17786	764.82567	106.17786
31350.00000	106.61675	764.17276	106.61675
31400.00000	106.86099	762.23190	106.86099
31450.00000	107.28980	760.96947	107.28980
31500.00000	107.59749	758.09761	107.59749
31550.00000	107.95873	756.46491	107.95873
31600.00000	108.33867	753.00914	108.33867
31650.00000	108.50551	750.48820	108.50551
31700.00000	108.75604	748.48402	108.75604
31750.00000	109.01254	746.63493	109.01254
31800.00000	109.07356	742.84440	109.07356
31850.00000	109.24038	739.79160	109.24038
31900.00000	109.10567	737.12447	109.10567
31950.00000	109.24418	733.81922	109.24418
32000.00000	109.32893	731.03654	109.32893
32050.00000	109.33520	728.58227	109.33520
32100.00000	109.29425	725.21839	109.29425
32150.00000	109.28959	723.58123	109.28959
32200.00000	109.25348	720.38840	109.25348
32250.00000	109.17897	717.42436	109.17897
32300.00000	109.15810	715.50325	109.15810
32350.00000	108.96024	713.39406	108.96024
32400.00000	109.02094	711.88973	109.02094
32450.00000	108.84135	709.01521	108.84135
32500.00000	108.81581	707.65738	108.81581
32550.00000	108.78675	704.59185	108.78675
32600.00000	108.66874	703.31516	108.66874
32650.00000	108.56769	701.43110	108.56769
32700.00000	108.44263	699.68512	108.44263
32750.00000	108.38422	697.31673	108.38422
32800.00000	108.46119	697.23499	108.46119
32850.00000	108.44667	695.41561	108.44667
32900.00000	108.38785	692.66369	108.38785
32950.00000	108.16516	690.80652	108.16516
33000.00000	108.22565	691.55955	108.22565
33050.00000	108.28219	688.06028	108.28219
33100.00000	108.30831	687.84666	108.30831
33150.00000	108.37674	687.50633	108.37674
33200.00000	108.61844	686.64380	108.61844
33250.00000	108.48651	685.34809	108.48651
33300.00000	108.68158	683.60322	108.68158
33350.00000	108.79039	681.59741	108.79039
33400.00000	108.83465	681.37726	108.83465
33450.00000	109.05402	679.46714	109.05402
33500.00000	109.43051	678.57434	109.43051
33550.00000	109.30079	675.70407	109.30079
33600.00000	109.73872	674.83612	109.73872
33650.00000	110.01332	672.98119	110.01332
33700.00000	110.16636	671.13964	110.16636
33750.00000	110.28758	669.06989	110.28758
33800.00000	110.76252	666.84898	110.76252
33850.00000	110.71269	665.29414	110.71269
33900.00000	111.17845	662.56409	111.17845
33950.00000	111.48188	660.17148	111.48188
34000.00000	111.80218	657.48571	111.80218
34050.00000	111.92844	654.44960	111.92844
34100.00000	112.06953	653.05892	112.06953
34150.00000	112.46047	649.38191	112.46047
34200.00000	112.68835	648.41121	112.68835
34250.00000	112.97759	643.87765	112.97759
34300.00000	113.22406	640.46276	113.22406
34350.00000	113.50211	637.10716	113.50211
34400.00000	113.36220	635.74676	113.36220
34450.00000	113.69816	630.40817	113.69816
34500.00000	113.81357	629.17375	113.81357
34550.00000	114.19944	626.61862	114.19944
34600.00000	114.14915	622.62431	114.14915
34650.00000	114.72691	621.77500	114.72691
34700.00000	114.47216	619.79250	114.47216
34750.00000	114.92060	612.64039	114.92060
34800.00000	115.26182	612.20891	115.26182
34850.00000	115.56156	611.11576	115.56156
34900.00000	115.88744	605.94866	115.88744
34950.00000	115.95230	603.75450	115.95230
35000.00000	116.14297	600.39166	116.14297
35050.00000	116.43584	598.10956	116.43584
35100.00000	116.73617	593.86671	116.73617
35150.00000	116.63820	591.96259	116.63820
35200.00000	116.87287	587.53334	116.87287
35250.00000	117.07992	584.12083	117.07992
35300.00000	117.35514	581.06748	117.35514
35350.00000	117.60893	577.39950	117.60893
35400.00000	117.64779	574.19682	117.64779
35450.00000	117.84784	572.19670	117.84784
35500.00000	117.68880	568.84481	117.68880
35550.00000	118.13986	567.20708	118.13986
35600.00000	118.20153	563.35878	118.20153
35650.00000	118.39850	560.97465	118.39850
35700.00000	118.53100	557.73150	118.53100
35750.00000	118.51348	556.52964	118.51348
35800.00000	118.80249	554.77796	118.80249
35850.00000	119.10248	550.79448	119.10248
35900.00000	119.23635	548.33122	119.23635
35950.00000	119.51956	545.57351	119.51956
36000.00000	119.56955	543.50596	119.56955
36050.00000	119.82563	540.63622	119.82563
36100.00000	120.10894	538.24559	120.10894
36150.00000	120.20309	536.04747	120.20309
36200.00000	120.36557	534.02177	120.36557
36250.00000	120.53653	531.27777	120.53653
36300.00000	120.60250	529.40092	120.60250
36350.00000	121.02623	527.16414	121.02623
36400.00000	121.33177	525.25669	121.33177
36450.00000	121.30533	522.21608	121.30533
36500.00000	121.80271	520.89976	121.80271
36550.00000	121.89656	516.99870	121.89656
36600.00000	122.14280	515.05195	122.14280
36650.00000	122.48281	512.61772	122.48281
36700.00000	122.78035	509.53603	122.78035
36750.00000	122.99758	506.91883	122.99758
36800.00000	123.19505	504.69730	123.19505
36850.00000	123.30848	501.79000	123.30848
36900.00000	123.72434	498.81059	123.72434
36950.00000	123.77705	495.73446	123.77705
37000.00000	123.81231	493.57593	123.81231
37050.00000	124.02918	491.02144	124.02918
37100.00000	124.40881	487.05411	124.40881
37150.00000	124.61486	483.34354	124.61486
37200.00000	125.01274	481.45457	125.01274
37250.00000	124.76298	477.96211	124.76298
37300.00000	124.97609	474.58692	124.97609
37350.00000	125.36413	471.66721	125.36413
37400.00000	125.22215	469.16200	125.22215
37450.00000	125.25952	466.24748	125.25952
37500.00000	125.72519	462.15783	125.72519
37550.00000	125.51311	459.49678	125.51311
37600.00000	125.61941	456.43187	125.61941
37650.00000	125.67338	453.54152	125.67338
37700.00000	125.78940	449.26213	125.78940
37750.00000	125.82678	447.28348	125.82678
37800.00000	125.73373	443.23901	125.73373
37850.00000	125.79626	438.79630	125.79626
37900.00000	125.77258	436.51739	125.77258
37950.00000	125.82443	434.12192	125.82443
38000.00000	125.68991	431.35138	125.68991
38050.00000	125.78108	427.86934	125.78108
38100.00000	125.81245	424.62338	125.81245
38150.00000	125.71907	420.99576	125.71907
38200.00000	125.82116	417.44690	125.82116
38250.00000	125.75975	414.63049	125.75975
38300.00000	125.80030	410.69652	125.80030
38350.00000	125.69397	408.18173	125.69397
38400.00000	125.68287	404.93215	125.68287
38450.00000	125.67044	400.86275	125.67044
38500.00000	125.71401	397.28283	125.71401
38550.00000	125.75415	394.48613	125.75415
38600.00000	125.75718	391.02374	125.75718
38650.00000	125.80035	387.08522	125.80035
38700.00000	125.74390	383.24883	125.74390
38750.00000	125.78893	379.71319	125.78893
38800.00000	125.84921	375.99736	125.84921
38850.00000	125.83346	371.73091	125.83346
38900.00000	125.88667	367.82584	125.88667
38950.00000	125.86045	363.37194	125.86045
39000.00000	125.85979	358.95865	125.85979
39050.00000	125.91668	354.81672	125.91668
39100.00000	125.79297	350.21052	125.79297
39150.00000	125.75210	345.44463	125.75210
39200.00000	125.73881	341.00220	125.73881
39250.00000	125.67525	335.93941	125.67525
39300.00000	125.59706	331.10662	125.59706
39350.00000	125.46533	326.85621	125.46533
39400.00000	125.34737	321.47044	125.34737
39450.00000	125.18069	317.07371	125.18069
39500.00000	125.04218	312.09656	125.04218
39550.00000	124.83641	307.03866	124.83641
39600.00000	124.56758	302.41617	124.56758
39650.00000	124.40046	298.17162	124.40046
39700.00000	124.09087	293.62068	124.09087
39750.00000	123.89221	288.81323	123.89221
39800.00000	123.64115	284.47000	123.64115
39850.00000	123.30233	280.25995	123.30233
39900.00000	123.03759	276.19908	123.03759
39950.00000	122.75273	272.29518	122.75273
40000.00000	122.28016	269.52381	122.28016
40050.00000	122.09673	264.64876	122.09673
40100.00000	121.80635	260.93592	121.80635
40150.00000	121.45238	257.61739	121.45238
40200.00000	121.16890	253.86779	121.16890
40250.00000	120.86972	250.86238	120.86972
40300.00000	120.61883	247.93020	120.61883
40350.00000	120.13721	245.12383	120.13721
40400.00000	119.79149	242.44771	119.79149
40450.00000	119.53873	239.86537	119.53873
40500.00000	119.31371	237.91308	119.31371
40550.00000	119.01832	235.02718	119.01832
40600.00000	118.67656	233.21087	118.67656
40650.00000	118.41663	231.59690	118.41663
40700.00000	118.01474	230.64034	118.01474
40750.00000	118.00849	228.50370	118.00849
40800.00000	117.73109	226.73163	117.73109
40850.00000	117.44210	226.14231	117.44210
40900.00000	117.24622	224.26626	117.24622
40950.00000	116.90607	224.43086	116.90607
41000.00000	116.66885	223.67075	116.66885
41050.00000	116.71052	222.89865	116.71052
41100.00000	116.70203	221.63229	116.70203
41150.00000	116.71763	222.77063	116.71763
41200.00000	116.65265	221.86397	116.65265
41250.00000	116.55739	219.65989	116.55739
41300.00000	116.36706	220.96230	116.36706
41350.00000	116.51953	221.86207	116.51953
41400.00000	116.56695	216.83723	116.56695
41450.00000	116.77046	219.35920	116.77046
41500.00000	116.72729	218.42554	116.72729
41550.00000	116.70966	222.42673	116.70966
41600.00000	116.53367	219.94691	116.53367
41650.00000	117.12579	218.37697	117.12579
41700.00000	117.39398	218.50522	117.39398
41750.00000	117.28758	222.10186	117.28758
41800.00000	116.62627	216.88502	116.62627
41850.00000	116.83821	217.87419	116.83821
41900.00000	116.77995	217.81246	116.77995
41950.00000	118.13911	222.17833	118.13911
42000.00000	117.27757	215.68259	117.27757
42050.00000	116.46744	214.86624	116.46744
42100.00000	117.15454	214.92321	117.15454
42150.00000	116.84682	210.07573	116.84682
42200.00000	116.82137	215.78533	116.82137
42250.00000	116.96438	215.00647	116.96438
42300.00000	116.05021	211.38608	116.05021
42350.00000	116.72021	211.74155	116.72021
42400.00000	116.55560	213.25017	116.55560
42450.00000	117.13940	207.48035	117.13940
42500.00000	116.42349	208.06517	116.42349
42550.00000	116.56565	217.70879	116.56565
42600.00000	116.23142	210.29667	116.23142
42650.00000	115.82936	210.82438	115.82936
42700.00000	115.56802	208.99729	115.56802
42750.00000	116.51099	206.81390	116.51099
42800.00000	115.87345	199.93206	115.87345
42850.00000	115.30124	199.69326	115.30124
42900.00000	116.20119	204.63425	116.20119
42950.00000	115.32269	199.64439	115.32269
43000.00000	115.65060	191.53985	115.65060
43050.00000	115.01609	190.34064	115.01609
43100.00000	115.15344	194.61917	115.15344
43150.00000	114.33813	189.25052	114.33813
43200.00000	114.33980	187.99947	114.33980
43250.00000	114.30894	185.45432	114.30894
43300.00000	114.22641	182.82554	114.22641
43350.00000	114.86451	180.60589	114.86451
43400.00000	114.26509	178.13660	114.26509
43450.00000	114.94344	177.95840	114.94344
43500.00000	113.39845	169.76368	113.39845
43550.00000	114.04732	166.90373	114.04732
43600.00000	113.39578	162.13115	113.39578
43650.00000	113.67055	154.07236	113.67055
43700.00000	113.04506	154.34736	113.04506
43750.00000	112.33629	152.47110	112.33629
43800.00000	112.28217	144.65524	112.28217
43850.00000	112.79385	141.75885	112.79385
43900.00000	112.46778	140.03574	112.46778
43950.00000	112.26294	134.77414	112.26294
44000.00000	111.44272	132.08643	111.44272
44050.00000	111.53720	128.14972	111.53720
44100.00000	111.39618	115.21053	111.39618
44150.00000	110.78593	119.10944	110.78593
44200.00000	110.61565	118.69599	110.61565
44250.00000	110.58821	112.53418	110.58821
44300.00000	110.57936	104.80721	110.57936
44350.00000	109.28011	103.20440	109.28011
44400.00000	109.98664	100.80305	109.98664
44450.00000	110.03688	97.84397	110.03688
44500.00000	109.37912	94.83527	109.37912
44550.00000	110.91206	90.95991	110.91206
44600.00000	109.10853	89.01976	109.10853
44650.00000	108.66237	79.65459	108.66237
44700.00000	108.60724	77.35517	108.60724
44750.00000	108.11458	76.76237	108.11458
44800.00000	108.83745	69.48242	108.83745
44850.00000	108.32352	65.02851	108.32352
44900.00000	107.88308	63.56637	107.88308
44950.00000	108.29568	57.60369	108.29568
45000.00000	108.21147	49.19441	108.21147
45050.00000	106.87642	56.96404	106.87642
45100.00000	107.30511	45.25587	107.30511
45150.00000	107.30694	34.98590	107.30694
45200.00000	106.82331	37.87265	106.82331
45250.00000	107.02682	31.67733	107.02682
45300.00000	106.73929	25.86250	106.73929
45350.00000	106.43392	18.49443	106.43392
45400.00000	106.46722	15.36586	106.46722
45450.00000	106.52769	 8.19849	106.52769
45500.00000	104.83648	 1.84278	104.83648
45550.00000	105.15288	 4.32523	105.15288
45600.00000	105.69990	-7.01359	105.69990
45650.00000	104.30808	-15.97966	104.30808
45700.00000	103.68719	-17.43638	103.68719
45750.00000	104.85771	-16.46034	104.85771
45800.00000	103.14648	-26.84977	103.14648
45850.00000	103.04324	-29.15680	103.04324
45900.00000	103.07904	-33.45861	103.07904
45950.00000	102.00478	-33.67756	102.00478
46000.00000	100.51866	-55.25227	100.51866
46050.00000	100.81807	-53.69838	100.81807
46100.00000	99.65788	-50.94429	99.65788
46150.00000	99.57057	-56.25521	99.57057
46200.00000	97.31536	-66.19122	97.31536
46250.00000	97.80002	-73.38104	97.80002
46300.00000	96.81409	-69.39473	96.81409
46350.00000	98.27037	-78.92883	98.27037
46400.00000	95.92694	-82.61987	95.92694
46450.00000	94.00430	-80.89603	94.00430
46500.00000	94.41105	-87.45871	94.41105
46550.00000	93.80978	-84.58351	93.80978
46600.00000	93.72742	-82.60283	93.72742
46650.00000	90.45741	-86.67262	90.45741
46700.00000	91.05066	-80.03333	91.05066
46750.00000	91.22301	-70.62355	91.22301
46800.00000	89.54940	-85.41405	89.54940
46850.00000	90.86054	-439.68360	90.86054
46900.00000	89.89040	-442.32666	89.89040
46950.00000	90.09381	-438.34105	90.09381
47000.00000	90.35611	-437.41691	90.35611
47050.00000	92.28655	-443.00011	92.28655
47100.00000	89.86522	-447.02591	89.86522
47150.00000	90.59174	-449.11929	90.59174
47200.00000	89.80385	-447.81872	89.80385
47250.00000	90.20368	-451.98492	90.20368
47300.00000	90.48901	-463.03867	90.48901
47350.00000	89.24712	-803.87860	89.24712
47400.00000	87.59405	-796.89279	87.59405
47450.00000	89.43375	-796.23134	89.43375
47500.00000	87.37836	-820.85828	87.37836
47550.00000	87.91337	-1166.91917	87.91337
47600.00000	88.11757	-1170.04101	88.11757
47650.00000	89.42716	-1170.44479	89.42716
47700.00000	89.76515	-1159.67411	89.76515
47750.00000	86.20135	-1173.56202	86.20135
47800.00000	88.33441	-1187.63787	88.33441
47850.00000	88.33854	-1532.45500	88.33854
47900.00000	89.13502	-1889.55259	89.13502
47950.00000	89.34526	-1886.36400	89.34526
48000.00000	89.68760	-1889.74510	89.68760
48050.00000	90.54389	-1901.10510	90.54389
48100.00000	89.09614	-1908.85830	89.09614
48150.00000	90.34668	-2257.20964	90.34668
48200.00000	90.90378	-2266.02586	90.90378
48250.00000	89.43243	-2271.01173	89.43243
48300.00000	91.09248	-2270.65436	91.09248
48350.00000	90.62966	-2281.73447	90.62966
48400.00000	92.09241	-2626.42937	92.09241
48450.00000	91.75214	-2637.58814	91.75214
48500.00000	91.04246	-2642.48401	91.04246
48550.00000	89.64578	-2643.11727	89.64578
48600.00000	90.19581	-3007.84390	90.19581
48650.00000	92.09928	-3004.73720	92.09928
48700.00000	92.81999	-3019.75705	92.81999
48750.00000	91.38731	-3363.96258	91.38731
48800.00000	92.48819	-3372.66965	92.48819
48850.00000	92.86956	-3384.94607	92.86956
48900.00000	90.89509	-3741.93782	90.89509
48950.00000	93.48866	-3756.09774	93.48866
49000.00000	92.83390	-3753.89308	92.83390
49050.00000	93.59696	-3760.68475	93.59696
49100.00000	92.65127	-4117.16732	92.65127
49150.00000	95.05463	-4487.09716	95.05463
49200.00000	93.79265	-4498.42204	93.79265
49250.00000	94.35561	-4849.16366	94.35561
49300.00000	95.15391	-4507.94487	95.15391
49350.00000	93.98750	-4497.59513	93.98750
49400.00000	92.18432	-4158.06366	92.18432
49450.00000	93.13919	-3801.68695	93.13919
49500.00000	94.62280	-3457.14468	94.62280
49550.00000	95.34280	-3104.57197	95.34280
49600.00000	94.13429	-3108.43250	94.13429
49650.00000	94.40203	-3100.53374	94.40203
49700.00000	95.27276	-2779.96140	95.27276
49750.00000	96.15687	-2781.34555	96.15687
49800.00000	94.01064	-2780.90033	94.01064
49850.00000	95.98652	-2768.43453	95.98652
49900.00000	94.87080	-2434.95509	94.87080
49950.00000	96.72823	-2100.85966	96.72823
