---ACOUSTIC CALIBRATION---
Filename: C:\Data\AZH DATA\AZH41\RightPrimary.calib
Date: 8/27/2019 1:48:41 PM
Format: 4
Probe Tube Correction File: C:\Data\Probe Tube Calibrations\50_ProbeTube.calib
Experiment VIs: 850
EPL_CFTS.exe V12.0.1 (2012)
DAQmx V9.6

Attenuation (dB): 40.000000
Min Freq (Hz): 50.000000
Max Freq (Hz): 49950.000000
Freq Step (Hz): 50.000000
Sample Rate (Hz): 100000.000000
[Smoothing]
Method=None
MA.Iterations=0
MA.Length=0
Loess.Length=0
Loess.Type=Linear
Loess.Robust=FALSE


Freq(Hz)	Mag(dB)	Phase(deg)	Unsmoothed(dB)

50.00000	97.92393	418.81049	97.92393
100.00000	79.99619	402.42871	79.99619
150.00000	76.34854	418.91644	76.34854
200.00000	78.47390	434.54856	78.47390
250.00000	89.52430	431.51057	89.52430
300.00000	86.12114	405.09573	86.12114
350.00000	83.52892	393.19303	83.52892
400.00000	85.77937	388.34417	85.77937
450.00000	89.21327	356.22054	89.21327
500.00000	91.38926	385.46945	91.38926
550.00000	93.02357	374.14128	93.02357
600.00000	94.22068	357.32014	94.22068
650.00000	97.05884	353.25438	97.05884
700.00000	99.58919	333.95590	99.58919
750.00000	100.93334	317.32899	100.93334
800.00000	101.72018	291.34001	101.72018
850.00000	101.15591	276.52454	101.15591
900.00000	99.75262	258.20601	99.75262
950.00000	97.61153	257.38650	97.61153
1000.00000	96.34160	258.14844	96.34160
1050.00000	93.87622	274.25067	93.87622
1100.00000	96.27489	296.40290	96.27489
1150.00000	99.06875	301.26782	99.06875
1200.00000	101.84224	298.87548	101.84224
1250.00000	103.44220	290.65410	103.44220
1300.00000	105.21138	284.92905	105.21138
1350.00000	106.43353	274.79598	106.43353
1400.00000	107.29189	269.01633	107.29189
1450.00000	108.31892	261.87138	108.31892
1500.00000	109.87252	255.74582	109.87252
1550.00000	110.22492	246.03657	110.22492
1600.00000	111.57253	236.88120	111.57253
1650.00000	112.64406	219.87765	112.64406
1700.00000	111.30667	209.80425	111.30667
1750.00000	111.06797	203.83658	111.06797
1800.00000	110.76592	198.85637	110.76592
1850.00000	110.94075	198.60432	110.94075
1900.00000	112.06202	194.36213	112.06202
1950.00000	112.74815	181.04390	112.74815
2000.00000	111.80471	168.93109	111.80471
2050.00000	110.47621	173.91732	110.47621
2100.00000	112.11853	173.45580	112.11853
2150.00000	112.93661	161.77372	112.93661
2200.00000	112.89232	152.11210	112.89232
2250.00000	112.23805	144.91189	112.23805
2300.00000	112.32630	139.40697	112.32630
2350.00000	112.11265	132.85126	112.11265
2400.00000	111.78009	127.34112	111.78009
2450.00000	111.47297	120.92400	111.47297
2500.00000	111.07445	116.10515	111.07445
2550.00000	110.60337	110.50759	110.60337
2600.00000	110.02448	106.14322	110.02448
2650.00000	109.52284	102.50005	109.52284
2700.00000	109.11853	99.17458	109.11853
2750.00000	108.32919	95.68529	108.32919
2800.00000	107.68345	92.83960	107.68345
2850.00000	107.03318	91.11854	107.03318
2900.00000	106.35040	89.31583	106.35040
2950.00000	105.54950	88.98190	105.54950
3000.00000	104.73810	88.70582	104.73810
3050.00000	103.69760	89.50188	103.69760
3100.00000	102.70581	93.01449	102.70581
3150.00000	101.56739	98.93996	101.56739
3200.00000	100.78244	110.97328	100.78244
3250.00000	100.97579	123.16363	100.97579
3300.00000	101.63144	135.83026	101.63144
3350.00000	103.05506	148.13097	103.05506
3400.00000	105.22073	156.64004	105.22073
3450.00000	107.58397	158.96909	107.58397
3500.00000	109.84030	157.33582	109.84030
3550.00000	111.64942	152.16631	111.64942
3600.00000	113.25000	147.31015	113.25000
3650.00000	114.58100	140.76386	114.58100
3700.00000	115.79410	134.57918	115.79410
3750.00000	116.97255	127.67989	116.97255
3800.00000	117.98154	119.91875	117.98154
3850.00000	118.77798	112.20165	118.77798
3900.00000	119.46769	104.93435	119.46769
3950.00000	120.24103	97.62560	120.24103
4000.00000	120.90378	90.11077	120.90378
4050.00000	121.56077	82.62220	121.56077
4100.00000	122.24627	74.92909	122.24627
4150.00000	123.08469	66.26398	123.08469
4200.00000	123.60447	56.07748	123.60447
4250.00000	124.05552	45.24085	124.05552
4300.00000	124.27622	33.87826	124.27622
4350.00000	124.23142	22.62298	124.23142
4400.00000	124.00469	12.19247	124.00469
4450.00000	123.66669	 2.56277	123.66669
4500.00000	123.29773	-6.21158	123.29773
4550.00000	122.86087	-14.59950	122.86087
4600.00000	122.41092	-22.61551	122.41092
4650.00000	121.99279	-30.41880	121.99279
4700.00000	121.47983	-38.60613	121.47983
4750.00000	120.81671	-46.95480	120.81671
4800.00000	119.93631	-55.10042	119.93631
4850.00000	118.80738	-62.08040	118.80738
4900.00000	117.51895	-66.81107	117.51895
4950.00000	116.23098	-69.20058	116.23098
5000.00000	115.11996	-69.68768	115.11996
5050.00000	114.11968	-69.53578	114.11968
5100.00000	113.00752	-65.62992	113.00752
5150.00000	113.12761	-60.84395	113.12761
5200.00000	112.64860	-56.13101	112.64860
5250.00000	114.36434	-49.67984	114.36434
5300.00000	115.66254	-60.30644	115.66254
5350.00000	115.37677	-69.56274	115.37677
5400.00000	114.83292	-74.88240	114.83292
5450.00000	114.39027	-77.88151	114.39027
5500.00000	114.08013	-80.65188	114.08013
5550.00000	113.78734	-82.84257	113.78734
5600.00000	113.55456	-84.99285	113.55456
5650.00000	113.37394	-87.14633	113.37394
5700.00000	113.16804	-89.61653	113.16804
5750.00000	113.02233	-91.57677	113.02233
5800.00000	112.86083	-93.69992	112.86083
5850.00000	112.74215	-95.83375	112.74215
5900.00000	112.64647	-97.75725	112.64647
5950.00000	112.58462	-99.79715	112.58462
6000.00000	112.55991	-101.70567	112.55991
6050.00000	112.53748	-104.06162	112.53748
6100.00000	112.53771	-106.69307	112.53771
6150.00000	112.50321	-109.46020	112.50321
6200.00000	112.43184	-112.44008	112.43184
6250.00000	112.36467	-115.20708	112.36467
6300.00000	112.29974	-118.06724	112.29974
6350.00000	112.18975	-120.84450	112.18975
6400.00000	112.07273	-123.40310	112.07273
6450.00000	112.01099	-126.07096	112.01099
6500.00000	111.90772	-128.77902	111.90772
6550.00000	111.81257	-131.31127	111.81257
6600.00000	111.73414	-133.84008	111.73414
6650.00000	111.65883	-136.41044	111.65883
6700.00000	111.59535	-139.02481	111.59535
6750.00000	111.54442	-141.63337	111.54442
6800.00000	111.49011	-144.15214	111.49011
6850.00000	111.42839	-146.75985	111.42839
6900.00000	111.39126	-149.19516	111.39126
6950.00000	111.35346	-151.99154	111.35346
7000.00000	111.32241	-154.75744	111.32241
7050.00000	111.26127	-157.53378	111.26127
7100.00000	111.24063	-160.56438	111.24063
7150.00000	111.19781	-163.34396	111.19781
7200.00000	111.13755	-166.31681	111.13755
7250.00000	111.08534	-169.42895	111.08534
7300.00000	111.05995	-172.58142	111.05995
7350.00000	110.99653	-175.66007	110.99653
7400.00000	110.94133	-178.92551	110.94133
7450.00000	110.85597	-182.30820	110.85597
7500.00000	110.76488	-185.82753	110.76488
7550.00000	110.65580	-188.82824	110.65580
7600.00000	110.52958	-192.13533	110.52958
7650.00000	110.41118	-195.51839	110.41118
7700.00000	110.30389	-198.78863	110.30389
7750.00000	110.12120	-202.09400	110.12120
7800.00000	109.97666	-205.51771	109.97666
7850.00000	109.79085	-208.65862	109.79085
7900.00000	109.61613	-211.61835	109.61613
7950.00000	109.44305	-214.83054	109.44305
8000.00000	109.26605	-217.89258	109.26605
8050.00000	109.06962	-221.26537	109.06962
8100.00000	108.89130	-224.11680	108.89130
8150.00000	108.61802	-226.67091	108.61802
8200.00000	108.41424	-229.20801	108.41424
8250.00000	108.17086	-232.04482	108.17086
8300.00000	107.97355	-234.71254	107.97355
8350.00000	107.71504	-237.18265	107.71504
8400.00000	107.44733	-240.16524	107.44733
8450.00000	107.14984	-242.98468	107.14984
8500.00000	106.87830	-245.72010	106.87830
8550.00000	106.63827	-248.24724	106.63827
8600.00000	106.38522	-251.11912	106.38522
8650.00000	106.08269	-253.75975	106.08269
8700.00000	105.85570	-256.98864	105.85570
8750.00000	105.61840	-258.36773	105.61840
8800.00000	105.42948	-260.95010	105.42948
8850.00000	105.15117	-263.11198	105.15117
8900.00000	104.94762	-264.79773	104.94762
8950.00000	104.70946	-267.18423	104.70946
9000.00000	104.36827	-269.21474	104.36827
9050.00000	104.10289	-271.56969	104.10289
9100.00000	103.84076	-273.65077	103.84076
9150.00000	103.54692	-275.90517	103.54692
9200.00000	103.32557	-278.28974	103.32557
9250.00000	103.04969	-280.63456	103.04969
9300.00000	102.97754	-283.22313	102.97754
9350.00000	102.81300	-284.99925	102.81300
9400.00000	102.56367	-286.64865	102.56367
9450.00000	102.39970	-287.78745	102.39970
9500.00000	102.30698	-288.09694	102.30698
9550.00000	102.27328	-288.72465	102.27328
9600.00000	102.22777	-290.30372	102.22777
9650.00000	101.99388	-292.18987	101.99388
9700.00000	101.75210	-293.06154	101.75210
9750.00000	101.60218	-295.60541	101.60218
9800.00000	101.34652	-297.11831	101.34652
9850.00000	101.18055	-298.73445	101.18055
9900.00000	100.90838	-300.98584	100.90838
9950.00000	100.77361	-302.35557	100.77361
10000.00000	100.68647	-304.56683	100.68647
10050.00000	100.56959	-306.03307	100.56959
10100.00000	100.44231	-307.15183	100.44231
10150.00000	100.22084	-308.86967	100.22084
10200.00000	100.04508	-310.19438	100.04508
10250.00000	99.86682	-312.02138	99.86682
10300.00000	99.77609	-313.84879	99.77609
10350.00000	99.58078	-315.45814	99.58078
10400.00000	99.35343	-317.99976	99.35343
10450.00000	99.32593	-320.58968	99.32593
10500.00000	99.29155	-322.93404	99.29155
10550.00000	99.27627	-325.23243	99.27627
10600.00000	99.21632	-327.12459	99.21632
10650.00000	99.14628	-328.75648	99.14628
10700.00000	99.09866	-331.30442	99.09866
10750.00000	99.00243	-333.41287	99.00243
10800.00000	98.80693	-335.21388	98.80693
10850.00000	98.63365	-338.40351	98.63365
10900.00000	98.46709	-340.83423	98.46709
10950.00000	98.29900	-343.16652	98.29900
11000.00000	98.11436	-345.69839	98.11436
11050.00000	97.80006	-348.04096	97.80006
11100.00000	97.62366	-350.79418	97.62366
11150.00000	97.28390	-353.11113	97.28390
11200.00000	97.08185	-355.03925	97.08185
11250.00000	96.70712	-357.40817	96.70712
11300.00000	96.33264	-359.75973	96.33264
11350.00000	95.96167	-361.49110	95.96167
11400.00000	95.55583	-363.39409	95.55583
11450.00000	95.24047	-365.75350	95.24047
11500.00000	95.03006	-366.88177	95.03006
11550.00000	94.59736	-368.38375	94.59736
11600.00000	94.40318	-370.30234	94.40318
11650.00000	94.05645	-370.68120	94.05645
11700.00000	93.84521	-371.59653	93.84521
11750.00000	93.53737	-373.04066	93.53737
11800.00000	93.29374	-374.29307	93.29374
11850.00000	93.04204	-374.49996	93.04204
11900.00000	92.57587	-376.22724	92.57587
11950.00000	92.31480	-376.80304	92.31480
12000.00000	91.95713	-377.63808	91.95713
12050.00000	91.54894	-378.08336	91.54894
12100.00000	91.28911	-379.72013	91.28911
12150.00000	90.95774	-380.73052	90.95774
12200.00000	90.71789	-381.59446	90.71789
12250.00000	90.41483	-381.47616	90.41483
12300.00000	91.34522	-383.42471	91.34522
12350.00000	89.87830	-382.11589	89.87830
12400.00000	89.54995	-381.11735	89.54995
12450.00000	89.21201	-380.53550	89.21201
12500.00000	88.91698	-380.76425	88.91698
12550.00000	88.64320	-381.04556	88.64320
12600.00000	88.36686	-381.19010	88.36686
12650.00000	88.16225	-380.29975	88.16225
12700.00000	87.99714	-381.22897	87.99714
12750.00000	87.84477	-381.13846	87.84477
12800.00000	87.64123	-379.38897	87.64123
12850.00000	87.19585	-378.03225	87.19585
12900.00000	87.00534	-377.89977	87.00534
12950.00000	86.79712	-376.87378	86.79712
13000.00000	86.54176	-376.16526	86.54176
13050.00000	86.42321	-375.00115	86.42321
13100.00000	86.21298	-374.45151	86.21298
13150.00000	86.28593	-373.63058	86.28593
13200.00000	86.24077	-370.58014	86.24077
13250.00000	86.14108	-369.76442	86.14108
13300.00000	86.24562	-366.80891	86.24562
13350.00000	86.26795	-365.07919	86.26795
13400.00000	86.24737	-364.26831	86.24737
13450.00000	86.11345	-361.93146	86.11345
13500.00000	86.48486	-361.91056	86.48486
13550.00000	86.41404	-359.37006	86.41404
13600.00000	86.51557	-358.33176	86.51557
13650.00000	86.72978	-356.70295	86.72978
13700.00000	86.79823	-355.89695	86.79823
13750.00000	86.80125	-354.71694	86.80125
13800.00000	86.94683	-355.70489	86.94683
13850.00000	87.01022	-355.48238	87.01022
13900.00000	87.22805	-354.23285	87.22805
13950.00000	87.55218	-352.50100	87.55218
14000.00000	88.04034	-350.45950	88.04034
14050.00000	88.49439	-350.19560	88.49439
14100.00000	88.72777	-348.64980	88.72777
14150.00000	88.88460	-347.38128	88.88460
14200.00000	89.35951	-348.10143	89.35951
14250.00000	90.02120	-345.68648	90.02120
14300.00000	90.19916	-345.76803	90.19916
14350.00000	90.58057	-344.35253	90.58057
14400.00000	90.74620	-344.13712	90.74620
14450.00000	91.16327	-343.16166	91.16327
14500.00000	91.46429	-344.09569	91.46429
14550.00000	92.04099	-344.60659	92.04099
14600.00000	92.41058	-345.67150	92.41058
14650.00000	92.97509	-344.18558	92.97509
14700.00000	93.28056	-347.48664	93.28056
14750.00000	93.93723	-349.52529	93.93723
14800.00000	94.33500	-349.16850	94.33500
14850.00000	94.98107	-350.26280	94.98107
14900.00000	95.50524	-351.64962	95.50524
14950.00000	96.02577	-353.22382	96.02577
15000.00000	96.58260	-355.14851	96.58260
15050.00000	96.89252	-355.56513	96.89252
15100.00000	97.39323	-356.74585	97.39323
15150.00000	97.96558	-359.40506	97.96558
15200.00000	98.33315	-360.51624	98.33315
15250.00000	98.69267	-364.14025	98.69267
15300.00000	99.42261	-367.41205	99.42261
15350.00000	99.69182	-370.84748	99.69182
15400.00000	100.02122	-372.42818	100.02122
15450.00000	100.37226	-375.74723	100.37226
15500.00000	100.79384	-378.90105	100.79384
15550.00000	101.16814	-382.43930	101.16814
15600.00000	101.43011	-385.78853	101.43011
15650.00000	101.82398	-387.53412	101.82398
15700.00000	101.93998	-392.26117	101.93998
15750.00000	102.28032	-394.88265	102.28032
15800.00000	102.50352	-397.32828	102.50352
15850.00000	102.68979	-400.39341	102.68979
15900.00000	102.68589	-404.26796	102.68589
15950.00000	103.02506	-406.83771	103.02506
16000.00000	103.22390	-409.73544	103.22390
16050.00000	103.46984	-412.24640	103.46984
16100.00000	103.47161	-415.34409	103.47161
16150.00000	103.61073	-418.23993	103.61073
16200.00000	103.79943	-421.71091	103.79943
16250.00000	103.95050	-424.07022	103.95050
16300.00000	104.29141	-426.92488	104.29141
16350.00000	104.41828	-429.44530	104.41828
16400.00000	104.56232	-431.93028	104.56232
16450.00000	104.74969	-434.41953	104.74969
16500.00000	104.80650	-436.73220	104.80650
16550.00000	105.11228	-440.61417	105.11228
16600.00000	105.33859	-443.37017	105.33859
16650.00000	105.44897	-445.94880	105.44897
16700.00000	105.62974	-448.54125	105.62974
16750.00000	105.72730	-451.97822	105.72730
16800.00000	105.93505	-455.18473	105.93505
16850.00000	106.15527	-458.23181	106.15527
16900.00000	106.33114	-461.20456	106.33114
16950.00000	106.46758	-464.26137	106.46758
17000.00000	106.45506	-467.60388	106.45506
17050.00000	106.69483	-469.84940	106.69483
17100.00000	106.61490	-471.89849	106.61490
17150.00000	107.01346	-475.94156	107.01346
17200.00000	107.14153	-479.02881	107.14153
17250.00000	107.16907	-482.66865	107.16907
17300.00000	107.38579	-485.89029	107.38579
17350.00000	107.39826	-488.65072	107.39826
17400.00000	107.57549	-491.94952	107.57549
17450.00000	107.61534	-495.73969	107.61534
17500.00000	107.74168	-498.81708	107.74168
17550.00000	107.82702	-502.19479	107.82702
17600.00000	107.98854	-505.23808	107.98854
17650.00000	108.03149	-509.31166	108.03149
17700.00000	107.94273	-513.22545	107.94273
17750.00000	108.24584	-515.65381	108.24584
17800.00000	108.14993	-519.82613	108.14993
17850.00000	108.21946	-522.88747	108.21946
17900.00000	108.21043	-526.46333	108.21043
17950.00000	108.28076	-530.20934	108.28076
18000.00000	108.29322	-534.21959	108.29322
18050.00000	108.37226	-536.93368	108.37226
18100.00000	108.26223	-541.00395	108.26223
18150.00000	108.25557	-543.74720	108.25557
18200.00000	108.14510	-547.50487	108.14510
18250.00000	108.17410	-550.25718	108.17410
18300.00000	108.27436	-553.72175	108.27436
18350.00000	108.13641	-556.48797	108.13641
18400.00000	108.05427	-559.96169	108.05427
18450.00000	107.95382	-564.21640	107.95382
18500.00000	107.92623	-567.32432	107.92623
18550.00000	107.86657	-569.96505	107.86657
18600.00000	107.87948	-573.26544	107.87948
18650.00000	107.69105	-576.23285	107.69105
18700.00000	107.61129	-579.71700	107.61129
18750.00000	107.56357	-582.63504	107.56357
18800.00000	107.59469	-584.99663	107.59469
18850.00000	107.39347	-588.24445	107.39347
18900.00000	107.27443	-590.39872	107.27443
18950.00000	107.23354	-594.44819	107.23354
19000.00000	106.99968	-596.78768	106.99968
19050.00000	107.06782	-599.75195	107.06782
19100.00000	106.92156	-602.25723	106.92156
19150.00000	106.97401	-604.90153	106.97401
19200.00000	106.86587	-607.11833	106.86587
19250.00000	106.73862	-610.89598	106.73862
19300.00000	106.62746	-612.98435	106.62746
19350.00000	106.56413	-615.54441	106.56413
19400.00000	106.44676	-618.22245	106.44676
19450.00000	106.47739	-620.24419	106.47739
19500.00000	106.34522	-624.16546	106.34522
19550.00000	106.27562	-626.20745	106.27562
19600.00000	106.24961	-629.20551	106.24961
19650.00000	106.10995	-631.54351	106.10995
19700.00000	105.94736	-634.11745	105.94736
19750.00000	105.84234	-636.30749	105.84234
19800.00000	105.85543	-639.65346	105.85543
19850.00000	105.79559	-642.08966	105.79559
19900.00000	105.65437	-645.43513	105.65437
19950.00000	105.54992	-647.89138	105.54992
20000.00000	105.43962	-650.58969	105.43962
20050.00000	105.38087	-653.18908	105.38087
20100.00000	105.13121	-656.22475	105.13121
20150.00000	105.11982	-657.60877	105.11982
20200.00000	104.97557	-660.73715	104.97557
20250.00000	104.76890	-663.15775	104.76890
20300.00000	104.59129	-665.67844	104.59129
20350.00000	104.50790	-668.31804	104.50790
20400.00000	104.28962	-669.94718	104.28962
20450.00000	104.06331	-672.26806	104.06331
20500.00000	103.96816	-674.72542	103.96816
20550.00000	103.58751	-676.02526	103.58751
20600.00000	103.48296	-677.82988	103.48296
20650.00000	103.32732	-679.63846	103.32732
20700.00000	103.03866	-681.02849	103.03866
20750.00000	102.98256	-682.60904	102.98256
20800.00000	102.76979	-683.52321	102.76979
20850.00000	102.67682	-684.97166	102.67682
20900.00000	102.49557	-685.88984	102.49557
20950.00000	102.34598	-686.50237	102.34598
21000.00000	102.27190	-687.07344	102.27190
21050.00000	102.34201	-687.50219	102.34201
21100.00000	102.29159	-688.07265	102.29159
21150.00000	102.35919	-688.86494	102.35919
21200.00000	102.44968	-689.50109	102.44968
21250.00000	102.52644	-691.47759	102.52644
21300.00000	102.63903	-692.47649	102.63903
21350.00000	102.74783	-693.37435	102.74783
21400.00000	102.83040	-695.34198	102.83040
21450.00000	102.96400	-697.06054	102.96400
21500.00000	103.05371	-699.22302	103.05371
21550.00000	103.06640	-700.90149	103.06640
21600.00000	103.18089	-703.15211	103.18089
21650.00000	103.22366	-705.63605	103.22366
21700.00000	103.22190	-707.29318	103.22190
21750.00000	103.28362	-709.70057	103.28362
21800.00000	103.30887	-711.89794	103.30887
21850.00000	103.22781	-713.97853	103.22781
21900.00000	103.28129	-716.71824	103.28129
21950.00000	103.24924	-717.85809	103.24924
22000.00000	103.29998	-719.85348	103.29998
22050.00000	103.21730	-721.45102	103.21730
22100.00000	103.21811	-723.60131	103.21811
22150.00000	103.21945	-725.33843	103.21945
22200.00000	103.28593	-727.40725	103.28593
22250.00000	103.21800	-728.58420	103.21800
22300.00000	103.11343	-730.67459	103.11343
22350.00000	103.28629	-732.59051	103.28629
22400.00000	103.28106	-734.57597	103.28106
22450.00000	103.25568	-736.35500	103.25568
22500.00000	103.22455	-736.86305	103.22455
22550.00000	103.21781	-739.41291	103.21781
22600.00000	103.24559	-742.02336	103.24559
22650.00000	103.25663	-744.20174	103.25663
22700.00000	103.27659	-745.59453	103.27659
22750.00000	103.24424	-745.96232	103.24424
22800.00000	103.33732	-749.93264	103.33732
22850.00000	103.37677	-752.76778	103.37677
22900.00000	103.39116	-752.94920	103.39116
22950.00000	103.40713	-755.13750	103.40713
23000.00000	103.47202	-756.58191	103.47202
23050.00000	103.40354	-759.58054	103.40354
23100.00000	103.48374	-760.59041	103.48374
23150.00000	103.36906	-761.71863	103.36906
23200.00000	103.63441	-765.50133	103.63441
23250.00000	103.42570	-768.01289	103.42570
23300.00000	103.73455	-770.43209	103.73455
23350.00000	103.47250	-772.54219	103.47250
23400.00000	103.47151	-775.20442	103.47151
23450.00000	103.66661	-776.96197	103.66661
23500.00000	103.49747	-778.82566	103.49747
23550.00000	103.46653	-779.23366	103.46653
23600.00000	103.38966	-783.74041	103.38966
23650.00000	103.47405	-785.12757	103.47405
23700.00000	103.68731	-789.95531	103.68731
23750.00000	103.56903	-790.74192	103.56903
23800.00000	103.26734	-792.32909	103.26734
23850.00000	103.37595	-793.99390	103.37595
23900.00000	103.68249	-796.96478	103.68249
23950.00000	103.41166	-800.00387	103.41166
24000.00000	103.20893	-803.29933	103.20893
24050.00000	103.28061	-804.02973	103.28061
24100.00000	103.44485	-808.24852	103.44485
24150.00000	103.34744	-810.67198	103.34744
24200.00000	103.20834	-814.47473	103.20834
24250.00000	102.76633	-815.05968	102.76633
24300.00000	103.12210	-820.01559	103.12210
24350.00000	102.85101	-820.37127	102.85101
24400.00000	102.64548	-823.19085	102.64548
24450.00000	102.35211	-824.81378	102.35211
24500.00000	102.57871	-826.46707	102.57871
24550.00000	102.38893	-831.45407	102.38893
24600.00000	102.69299	-831.42738	102.69299
24650.00000	102.27029	-475.46354	102.27029
24700.00000	101.98256	-114.99071	101.98256
24750.00000	102.06448	241.25784	102.06448
24800.00000	101.75309	599.22430	101.75309
24850.00000	101.48890	958.54028	101.48890
24900.00000	101.25886	1317.82695	101.25886
24950.00000	101.52169	1674.58421	101.52169
25000.00000	101.44001	1667.82074	101.44001
25050.00000	101.78310	1669.36529	101.78310
25100.00000	101.01650	1666.45485	101.01650
25150.00000	101.53063	1667.59255	101.53063
25200.00000	101.10389	1662.85954	101.10389
25250.00000	101.18788	1662.85396	101.18788
25300.00000	101.20814	1661.36223	101.20814
25350.00000	101.26083	1656.57601	101.26083
25400.00000	101.09374	1653.55361	101.09374
25450.00000	101.17756	1653.06289	101.17756
25500.00000	100.77948	1651.66305	100.77948
25550.00000	101.02338	1648.68304	101.02338
25600.00000	101.03190	1645.53446	101.03190
25650.00000	100.90294	1645.77072	100.90294
25700.00000	100.88757	1642.25964	100.88757
25750.00000	100.69965	1640.83736	100.69965
25800.00000	100.58336	1636.71268	100.58336
25850.00000	100.51381	1635.40843	100.51381
25900.00000	100.63888	1632.06808	100.63888
25950.00000	100.36884	1634.21753	100.36884
26000.00000	100.34406	1628.91258	100.34406
26050.00000	100.27952	1627.34386	100.27952
26100.00000	99.96983	1624.88068	99.96983
26150.00000	100.03044	1623.81028	100.03044
26200.00000	100.16940	1622.09221	100.16940
26250.00000	99.97002	1619.55011	99.97002
26300.00000	100.07235	1617.23687	100.07235
26350.00000	99.49149	1616.55644	99.49149
26400.00000	99.68542	1615.74068	99.68542
26450.00000	99.82002	1611.93335	99.82002
26500.00000	99.54713	1610.97363	99.54713
26550.00000	99.47422	1606.16462	99.47422
26600.00000	99.26705	1604.76857	99.26705
26650.00000	99.45435	1605.99665	99.45435
26700.00000	99.36088	1603.29532	99.36088
26750.00000	99.26759	1601.47028	99.26759
26800.00000	99.03463	1597.06760	99.03463
26850.00000	99.53842	1597.71480	99.53842
26900.00000	99.32362	1597.33733	99.32362
26950.00000	99.58734	1594.05341	99.58734
27000.00000	99.15981	1594.13501	99.15981
27050.00000	99.35081	1591.53543	99.35081
27100.00000	99.03959	1590.78067	99.03959
27150.00000	99.21754	1588.46924	99.21754
27200.00000	99.26011	1586.86098	99.26011
27250.00000	98.77956	1587.18492	98.77956
27300.00000	98.95450	1585.57188	98.95450
27350.00000	98.93161	1584.53582	98.93161
27400.00000	98.84367	1582.71592	98.84367
27450.00000	98.71656	1580.83404	98.71656
27500.00000	98.93132	1580.37553	98.93132
27550.00000	99.03991	1578.39059	99.03991
27600.00000	99.47109	1576.58571	99.47109
27650.00000	98.94639	1576.69811	98.94639
27700.00000	99.15963	1573.33867	99.15963
27750.00000	99.38448	1570.21266	99.38448
27800.00000	99.48296	1568.15265	99.48296
27850.00000	99.82421	1570.99452	99.82421
27900.00000	99.38031	1567.46319	99.38031
27950.00000	99.10587	1566.65381	99.10587
28000.00000	99.32362	1565.63908	99.32362
28050.00000	100.18004	1562.77474	100.18004
28100.00000	99.70698	1560.83302	99.70698
28150.00000	99.79183	1560.64527	99.79183
28200.00000	100.07968	1555.44014	100.07968
28250.00000	99.88061	1552.94111	99.88061
28300.00000	99.82444	1553.64283	99.82444
28350.00000	100.21886	1551.73037	100.21886
28400.00000	100.25072	1551.84758	100.25072
28450.00000	100.99678	1546.84468	100.99678
28500.00000	100.35039	1544.23178	100.35039
28550.00000	100.61186	1546.90957	100.61186
28600.00000	100.68492	1543.57995	100.68492
28650.00000	101.17137	1539.14755	101.17137
28700.00000	101.04455	1538.73909	101.04455
28750.00000	101.63088	1537.82483	101.63088
28800.00000	101.81501	1534.67166	101.81501
28850.00000	101.00539	1529.54688	101.00539
28900.00000	101.33965	1527.97249	101.33965
28950.00000	101.31251	1526.15704	101.31251
29000.00000	101.54532	1523.91139	101.54532
29050.00000	101.27228	1522.93958	101.27228
29100.00000	101.25370	1524.21117	101.25370
29150.00000	101.25812	1519.75557	101.25812
29200.00000	101.09281	1514.61465	101.09281
29250.00000	101.42400	1513.86219	101.42400
29300.00000	101.16128	1510.23194	101.16128
29350.00000	101.42132	1507.96075	101.42132
29400.00000	101.27135	1507.02076	101.27135
29450.00000	101.13062	1504.10870	101.13062
29500.00000	101.42211	1503.47397	101.42211
29550.00000	101.10694	1498.37554	101.10694
29600.00000	100.85809	1498.36733	100.85809
29650.00000	100.99926	1495.26136	100.99926
29700.00000	100.67661	1495.11703	100.67661
29750.00000	100.69128	1495.22162	100.69128
29800.00000	100.43597	1491.84740	100.43597
29850.00000	100.35574	1489.72907	100.35574
29900.00000	100.62356	1490.42321	100.62356
29950.00000	99.77119	1489.36657	99.77119
30000.00000	100.14922	1490.35730	100.14922
30050.00000	100.17767	1487.17155	100.17767
30100.00000	99.71408	1488.46750	99.71408
30150.00000	99.92411	1485.13392	99.92411
30200.00000	99.81978	1483.88012	99.81978
30250.00000	99.48246	1484.62039	99.48246
30300.00000	99.04894	1485.26283	99.04894
30350.00000	99.36385	1486.71015	99.36385
30400.00000	99.39824	1485.59359	99.39824
30450.00000	99.07905	1485.63818	99.07905
30500.00000	99.16260	1485.24275	99.16260
30550.00000	99.18892	1487.13126	99.18892
30600.00000	99.13877	1487.51309	99.13877
30650.00000	99.34956	1488.97422	99.34956
30700.00000	99.55330	1488.54409	99.55330
30750.00000	99.46359	1490.69621	99.46359
30800.00000	99.75188	1491.84915	99.75188
30850.00000	100.09309	1493.69806	100.09309
30900.00000	100.11522	1495.34724	100.11522
30950.00000	100.75521	1495.05778	100.75521
31000.00000	101.11300	1495.27724	101.11300
31050.00000	101.61933	1497.01368	101.61933
31100.00000	102.25175	1497.57193	102.25175
31150.00000	102.41083	1497.05737	102.41083
31200.00000	103.36487	1496.21104	103.36487
31250.00000	103.85545	1495.52083	103.85545
31300.00000	104.41346	1494.15475	104.41346
31350.00000	105.17923	1493.05129	105.17923
31400.00000	105.58690	1489.84814	105.58690
31450.00000	106.25658	1488.27700	106.25658
31500.00000	106.73587	1485.63930	106.73587
31550.00000	107.34812	1481.69353	107.34812
31600.00000	108.02729	1477.63477	108.02729
31650.00000	108.51068	1473.90047	108.51068
31700.00000	108.92770	1470.49433	108.92770
31750.00000	109.42821	1467.65837	109.42821
31800.00000	109.79700	1462.30968	109.79700
31850.00000	110.18237	1457.16028	110.18237
31900.00000	110.36925	1453.64640	110.36925
31950.00000	110.78559	1448.83268	110.78559
32000.00000	111.03935	1443.97284	111.03935
32050.00000	111.28668	1439.88091	111.28668
32100.00000	111.52751	1434.40139	111.52751
32150.00000	111.69842	1430.84609	111.69842
32200.00000	111.97842	1425.78884	111.97842
32250.00000	112.08890	1420.44912	112.08890
32300.00000	112.16286	1416.18771	112.16286
32350.00000	112.25072	1412.24628	112.25072
32400.00000	112.49857	1407.51156	112.49857
32450.00000	112.38448	1402.00745	112.38448
32500.00000	112.56090	1398.26965	112.56090
32550.00000	112.69606	1392.40036	112.69606
32600.00000	112.61629	1388.26622	112.61629
32650.00000	112.69081	1383.49058	112.69081
32700.00000	112.61906	1377.59993	112.61906
32750.00000	112.41458	1373.39299	112.41458
32800.00000	112.58874	1369.65112	112.58874
32850.00000	112.53259	1364.17634	112.53259
32900.00000	112.29716	1358.99469	112.29716
32950.00000	112.09718	1353.85482	112.09718
33000.00000	111.91450	1350.95936	111.91450
33050.00000	111.66221	1345.14741	111.66221
33100.00000	111.53331	1341.79967	111.53331
33150.00000	111.38125	1337.41069	111.38125
33200.00000	111.22698	1334.63881	111.22698
33250.00000	110.80513	1330.76718	110.80513
33300.00000	110.48109	1325.78051	110.48109
33350.00000	110.21915	1322.39087	110.21915
33400.00000	109.93822	1320.21840	109.93822
33450.00000	109.73799	1315.16330	109.73799
33500.00000	109.47124	1314.34388	109.47124
33550.00000	108.91454	1309.55577	108.91454
33600.00000	108.97719	1307.18296	108.97719
33650.00000	108.50036	1304.00173	108.50036
33700.00000	108.17819	1302.45084	108.17819
33750.00000	107.71616	1299.60665	107.71616
33800.00000	107.50446	1296.62863	107.50446
33850.00000	106.77204	1296.33005	106.77204
33900.00000	107.00316	1293.70588	107.00316
33950.00000	106.51580	1292.30302	106.51580
34000.00000	106.23512	1290.81798	106.23512
34050.00000	105.89234	1289.36924	105.89234
34100.00000	105.43835	1288.30521	105.43835
34150.00000	105.23294	1286.56744	105.23294
34200.00000	104.99432	1287.80105	104.99432
34250.00000	104.99037	1284.63280	104.99037
34300.00000	104.74500	1284.17337	104.74500
34350.00000	104.50416	1283.90525	104.50416
34400.00000	104.12172	1285.06975	104.12172
34450.00000	104.09431	1281.33746	104.09431
34500.00000	103.63600	1281.66924	103.63600
34550.00000	103.90905	1282.71254	103.90905
34600.00000	103.30338	1280.70465	103.30338
34650.00000	103.46024	1283.94071	103.46024
34700.00000	103.12569	1285.07501	103.12569
34750.00000	103.49825	1279.77124	103.49825
34800.00000	103.33359	1283.68251	103.33359
34850.00000	103.76878	1285.61006	103.76878
34900.00000	103.95090	1282.85610	103.95090
34950.00000	103.55828	1284.99893	103.55828
35000.00000	103.64032	1283.39789	103.64032
35050.00000	104.07316	1284.29166	104.07316
35100.00000	103.86194	1282.37790	103.86194
35150.00000	103.96784	1284.28195	103.96784
35200.00000	104.20244	1282.49657	104.20244
35250.00000	104.44320	1281.70887	104.44320
35300.00000	104.52272	1281.88404	104.52272
35350.00000	104.96736	1280.89028	104.96736
35400.00000	105.15947	1279.17550	105.15947
35450.00000	105.14489	1279.18299	105.14489
35500.00000	105.27319	1280.21751	105.27319
35550.00000	105.80748	1277.89859	105.80748
35600.00000	105.76734	1276.08864	105.76734
35650.00000	105.89628	1276.95853	105.89628
35700.00000	106.24994	1277.49726	106.24994
35750.00000	106.55807	1274.48677	106.55807
35800.00000	106.70832	1273.20851	106.70832
35850.00000	106.99232	1271.46379	106.99232
35900.00000	107.47524	1270.71966	107.47524
35950.00000	107.64540	1268.73612	107.64540
36000.00000	107.67442	1268.01904	107.67442
36050.00000	107.99469	1266.45575	107.99469
36100.00000	108.23280	1264.02476	108.23280
36150.00000	108.41109	1262.52863	108.41109
36200.00000	108.62995	1261.59921	108.62995
36250.00000	108.90859	1260.25495	108.90859
36300.00000	108.96100	1257.27101	108.96100
36350.00000	109.41889	1256.19063	109.41889
36400.00000	109.65388	1254.70483	109.65388
36450.00000	109.68184	1252.28605	109.68184
36500.00000	110.31430	1250.87432	110.31430
36550.00000	110.33500	1246.44846	110.33500
36600.00000	110.53894	1245.14887	110.53894
36650.00000	110.89774	1242.70813	110.89774
36700.00000	111.15639	1238.96834	111.15639
36750.00000	111.20495	1236.97748	111.20495
36800.00000	111.36085	1235.54167	111.36085
36850.00000	111.46778	1233.92169	111.46778
36900.00000	111.85700	1229.92283	111.85700
36950.00000	111.94700	1228.15012	111.94700
37000.00000	111.99311	1226.17824	111.99311
37050.00000	112.21276	1223.76182	112.21276
37100.00000	112.54995	1219.55246	112.54995
37150.00000	112.77738	1216.64146	112.77738
37200.00000	113.15210	1214.31012	113.15210
37250.00000	113.00933	1211.41094	113.00933
37300.00000	113.27397	1207.62899	113.27397
37350.00000	113.67793	1205.04805	113.67793
37400.00000	113.62545	1202.53185	113.62545
37450.00000	113.64186	1199.63116	113.64186
37500.00000	114.04568	1195.34442	114.04568
37550.00000	113.87502	1192.70435	113.87502
37600.00000	114.05526	1190.34387	114.05526
37650.00000	114.24773	1188.21220	114.24773
37700.00000	114.48446	1184.39325	114.48446
37750.00000	114.70840	1181.36749	114.70840
37800.00000	114.74579	1176.79476	114.74579
37850.00000	114.96505	1172.44487	114.96505
37900.00000	115.09905	1169.53609	115.09905
37950.00000	115.26078	1167.05029	115.26078
38000.00000	115.33885	1164.06540	115.33885
38050.00000	115.63940	1160.34334	115.63940
38100.00000	116.00706	1155.69825	116.00706
38150.00000	115.98237	1151.68749	115.98237
38200.00000	116.24407	1147.91298	116.24407
38250.00000	116.39873	1144.49194	116.39873
38300.00000	116.65816	1139.94025	116.65816
38350.00000	116.83344	1136.01272	116.83344
38400.00000	116.96111	1131.82879	116.96111
38450.00000	117.07248	1127.17823	117.07248
38500.00000	117.36579	1122.80278	117.36579
38550.00000	117.61745	1118.50484	117.61745
38600.00000	117.83420	1113.92754	117.83420
38650.00000	117.98454	1108.93384	117.98454
38700.00000	118.05307	1103.39956	118.05307
38750.00000	118.22700	1099.33993	118.22700
38800.00000	118.41330	1094.38369	118.41330
38850.00000	118.55117	1089.14234	118.55117
38900.00000	118.67974	1084.00228	118.67974
38950.00000	118.71914	1078.48219	118.71914
39000.00000	118.79981	1072.95302	118.79981
39050.00000	118.91812	1067.43335	118.91812
39100.00000	118.77470	1061.99625	118.77470
39150.00000	118.69435	1056.69197	118.69435
39200.00000	118.69443	1051.83544	118.69443
39250.00000	118.68457	1046.18882	118.68457
39300.00000	118.61374	1040.44141	118.61374
39350.00000	118.45131	1035.73249	118.45131
39400.00000	118.26337	1029.99594	118.26337
39450.00000	118.07861	1025.27348	118.07861
39500.00000	117.91038	1020.23997	117.91038
39550.00000	117.67315	1015.22115	117.67315
39600.00000	117.31224	1010.28776	117.31224
39650.00000	117.06453	1006.14775	117.06453
39700.00000	116.77721	1001.76221	116.77721
39750.00000	116.53504	997.47149	116.53504
39800.00000	116.23922	992.86820	116.23922
39850.00000	115.83252	989.03726	115.83252
39900.00000	115.53586	985.45335	115.53586
39950.00000	115.21212	982.18937	115.21212
40000.00000	114.72665	980.17309	114.72665
40050.00000	114.49340	975.45420	114.49340
40100.00000	114.20073	972.15473	114.20073
40150.00000	113.83141	969.07442	113.83141
40200.00000	113.45418	965.57522	113.45418
40250.00000	113.13013	963.38369	113.13013
40300.00000	112.85035	960.79181	112.85035
40350.00000	112.32408	958.75733	112.32408
40400.00000	111.97181	956.20876	111.97181
40450.00000	111.61388	954.55592	111.61388
40500.00000	111.45059	953.53949	111.45059
40550.00000	111.07278	950.44013	111.07278
40600.00000	110.82755	948.99749	110.82755
40650.00000	110.41601	947.75123	110.41601
40700.00000	109.98017	947.05087	109.98017
40750.00000	109.81399	945.29542	109.81399
40800.00000	109.52371	943.63756	109.52371
40850.00000	109.25782	943.50460	109.25782
40900.00000	108.88352	941.79044	108.88352
40950.00000	108.49771	941.07416	108.49771
41000.00000	108.11100	941.00990	108.11100
41050.00000	108.05237	940.19235	108.05237
41100.00000	107.85834	939.31344	107.85834
41150.00000	107.68790	940.43367	107.68790
41200.00000	107.57991	939.70716	107.57991
41250.00000	107.30629	936.89003	107.30629
41300.00000	106.89116	938.19387	106.89116
41350.00000	106.82770	938.99106	106.82770
41400.00000	106.73266	933.62003	106.73266
41450.00000	106.68186	937.98375	106.68186
41500.00000	106.42824	936.13128	106.42824
41550.00000	106.19731	938.66022	106.19731
41600.00000	105.90807	936.90765	105.90807
41650.00000	106.03042	934.80653	106.03042
41700.00000	105.86650	936.71826	105.86650
41750.00000	105.65740	940.71701	105.65740
41800.00000	104.70305	935.23172	104.70305
41850.00000	104.62965	937.05926	104.62965
41900.00000	104.39215	935.63355	104.39215
41950.00000	105.46042	939.52297	105.46042
42000.00000	103.92484	935.74307	103.92484
42050.00000	102.86977	932.93161	102.86977
42100.00000	103.38337	933.69700	103.38337
42150.00000	103.03078	934.32020	103.03078
42200.00000	102.47208	938.11732	102.47208
42250.00000	102.68355	937.29990	102.68355
42300.00000	101.58902	932.59648	101.58902
42350.00000	101.55722	933.16747	101.55722
42400.00000	101.59611	932.20508	101.59611
42450.00000	101.88682	927.90880	101.88682
42500.00000	101.11248	930.62617	101.11248
42550.00000	101.21089	939.64548	101.21089
42600.00000	101.28066	934.67456	101.28066
42650.00000	100.96428	934.01985	100.96428
42700.00000	100.35583	931.07682	100.35583
42750.00000	101.47576	921.97519	101.47576
42800.00000	100.51208	920.10904	100.51208
42850.00000	100.76531	918.83548	100.76531
42900.00000	101.22257	924.19933	101.22257
42950.00000	101.22993	918.36170	101.22993
43000.00000	101.70240	906.11140	101.70240
43050.00000	100.83392	906.71702	100.83392
43100.00000	101.52461	911.13630	101.52461
43150.00000	101.00921	905.53945	101.00921
43200.00000	102.03043	902.13099	102.03043
43250.00000	102.04626	896.96508	102.04626
43300.00000	102.61575	892.34221	102.61575
43350.00000	103.23026	891.22479	103.23026
43400.00000	103.25830	891.17680	103.25830
43450.00000	103.76879	883.65548	103.76879
43500.00000	103.05296	879.34134	103.05296
43550.00000	103.88034	871.24294	103.88034
43600.00000	103.71608	867.26181	103.71608
43650.00000	104.75519	864.08858	104.75519
43700.00000	104.76080	862.26062	104.76080
43750.00000	104.57446	860.21725	104.57446
43800.00000	104.97168	849.74732	104.97168
43850.00000	105.94352	844.37152	105.94352
43900.00000	105.67773	841.36372	105.67773
43950.00000	106.52308	839.22846	106.52308
44000.00000	106.03770	832.59789	106.03770
44050.00000	106.39246	830.11160	106.39246
44100.00000	106.34979	817.30006	106.34979
44150.00000	106.72952	818.26690	106.72952
44200.00000	106.63794	816.24128	106.63794
44250.00000	107.62445	809.49490	107.62445
44300.00000	107.83879	801.41603	107.83879
44350.00000	106.66103	798.26430	106.66103
44400.00000	107.48919	797.37409	107.48919
44450.00000	107.70576	789.94308	107.70576
44500.00000	107.24860	788.62999	107.24860
44550.00000	108.98091	776.40811	108.98091
44600.00000	107.36579	780.69393	107.36579
44650.00000	107.25277	771.61325	107.25277
44700.00000	107.40683	768.50866	107.40683
44750.00000	107.43276	767.00267	107.43276
44800.00000	108.06695	760.24984	108.06695
44850.00000	107.64097	752.59953	107.64097
44900.00000	107.31771	751.99899	107.31771
44950.00000	107.47675	746.64652	107.47675
45000.00000	107.38334	738.45992	107.38334
45050.00000	106.11051	743.72662	106.11051
45100.00000	106.73030	735.40451	106.73030
45150.00000	106.92876	723.41998	106.92876
45200.00000	106.37146	730.43732	106.37146
45250.00000	106.41014	723.87239	106.41014
45300.00000	106.40773	718.36643	106.40773
45350.00000	105.51635	712.56507	105.51635
45400.00000	105.50861	710.43107	105.50861
45450.00000	105.38058	703.24470	105.38058
45500.00000	104.00647	699.79228	104.00647
45550.00000	104.07029	703.57372	104.07029
45600.00000	104.82939	695.90733	104.82939
45650.00000	103.53266	687.80836	103.53266
45700.00000	103.45038	687.91933	103.45038
45750.00000	104.41317	692.13913	104.41317
45800.00000	102.92674	685.88003	102.92674
45850.00000	102.88186	680.99905	102.88186
45900.00000	102.74248	678.15967	102.74248
45950.00000	102.15528	683.62509	102.15528
46000.00000	100.89403	661.52472	100.89403
46050.00000	101.03028	662.41853	101.03028
46100.00000	99.72848	668.46897	99.72848
46150.00000	99.52882	667.03216	99.52882
46200.00000	97.85562	657.64929	97.85562
46250.00000	98.72179	661.37127	98.72179
46300.00000	98.31645	660.94705	98.31645
46350.00000	99.05871	658.17144	99.05871
46400.00000	97.06925	651.96663	97.06925
46450.00000	95.43450	652.31547	95.43450
46500.00000	96.61208	658.00267	96.61208
46550.00000	95.96511	660.63919	95.96511
46600.00000	96.88404	664.43117	96.88404
46650.00000	93.96278	656.22480	93.96278
46700.00000	93.88081	664.76634	93.88081
46750.00000	94.50809	673.91433	94.50809
46800.00000	93.05589	662.12538	93.05589
46850.00000	93.52726	319.73386	93.52726
46900.00000	93.73823	311.97762	93.73823
46950.00000	94.73102	310.42610	94.73102
47000.00000	93.71046	318.26817	93.71046
47050.00000	95.88735	311.24605	95.88735
47100.00000	94.53895	311.67351	94.53895
47150.00000	95.50343	306.12077	95.50343
47200.00000	94.48172	307.79106	94.48172
47250.00000	96.57559	306.85476	96.57559
47300.00000	95.68163	297.75325	95.68163
47350.00000	95.50629	-53.51372	95.50629
47400.00000	94.62707	-55.14358	94.62707
47450.00000	96.56500	-54.45618	96.56500
47500.00000	94.09113	-67.67893	94.09113
47550.00000	94.17327	-416.76262	94.17327
47600.00000	94.36221	-425.72284	94.36221
47650.00000	95.78089	-427.50896	95.78089
47700.00000	94.28386	-424.69449	94.28386
47750.00000	93.04348	-425.97742	93.04348
47800.00000	94.33150	-443.07045	94.33150
47850.00000	94.14278	-789.62115	94.14278
47900.00000	94.15316	-1142.23337	94.15316
47950.00000	93.01205	-1143.31021	93.01205
48000.00000	93.63320	-1139.78133	93.63320
48050.00000	94.32300	-1146.24440	94.32300
48100.00000	93.55525	-1151.14442	93.55525
48150.00000	94.20273	-1504.94385	94.20273
48200.00000	93.63497	-1498.91528	93.63497
48250.00000	93.19677	-1508.76438	93.19677
48300.00000	93.90723	-1505.72491	93.90723
48350.00000	94.19358	-1515.24931	94.19358
48400.00000	94.77073	-1859.43339	94.77073
48450.00000	95.36322	-1863.59148	95.36322
48500.00000	94.72093	-1868.02956	94.72093
48550.00000	93.91877	-1875.43597	93.91877
48600.00000	95.47799	-2230.06872	95.47799
48650.00000	95.91221	-2226.11836	95.91221
48700.00000	96.57075	-2243.60489	96.57075
48750.00000	94.38199	-2587.78082	94.38199
48800.00000	96.69016	-2597.84435	96.69016
48850.00000	95.77208	-2602.69651	95.77208
48900.00000	95.76833	-2958.18970	95.76833
48950.00000	95.67557	-2969.20139	95.67557
49000.00000	96.17102	-2970.24866	96.17102
49050.00000	96.05612	-2978.80617	96.05612
49100.00000	95.23323	-3332.55533	95.23323
49150.00000	97.01938	-3694.26052	97.01938
49200.00000	95.91259	-3701.79493	95.91259
49250.00000	95.63843	-4053.61446	95.63843
49300.00000	95.24590	-3705.53514	95.24590
49350.00000	93.70307	-3693.89562	93.70307
49400.00000	95.41816	-3352.48674	95.41816
49450.00000	93.65039	-2987.86676	93.65039
49500.00000	94.80703	-2631.14740	94.80703
49550.00000	94.97409	-2285.67870	94.97409
49600.00000	93.92482	-2267.94664	93.92482
49650.00000	94.10385	-2268.12449	94.10385
49700.00000	94.05256	-1933.23371	94.05256
49750.00000	94.53310	-1933.35597	94.53310
49800.00000	92.56028	-1916.90406	92.56028
49850.00000	91.67668	-1911.90454	91.67668
49900.00000	91.64901	-1570.24224	91.64901
49950.00000	94.39914	-1208.29469	94.39914
