---ACOUSTIC CALIBRATION---
Filename: C:\Data\AZH DATA\AZH41\RightSecondary.calib
Date: 8/27/2019 2:04:17 PM
Format: 4
Probe Tube Correction File: C:\Data\Probe Tube Calibrations\50_ProbeTube.calib
Experiment VIs: 850
EPL_CFTS.exe V12.0.1 (2012)
DAQmx V9.6

Attenuation (dB): 40.000000
Min Freq (Hz): 50.000000
Max Freq (Hz): 49950.000000
Freq Step (Hz): 50.000000
Sample Rate (Hz): 100000.000000
[Smoothing]
Method=None
MA.Iterations=0
MA.Length=0
Loess.Length=0
Loess.Type=Linear
Loess.Robust=FALSE


Freq(Hz)	Mag(dB)	Phase(deg)	Unsmoothed(dB)

50.00000	110.00976	378.06577	110.00976
100.00000	82.94896	462.03353	82.94896
150.00000	81.46283	465.54527	81.46283
200.00000	83.12974	429.38563	83.12974
250.00000	89.34578	431.71589	89.34578
300.00000	91.16496	375.82917	91.16496
350.00000	81.13096	344.21402	81.13096
400.00000	84.46184	311.76984	84.46184
450.00000	83.20213	290.11385	83.20213
500.00000	86.62595	309.34925	86.62595
550.00000	85.47973	337.76114	85.47973
600.00000	88.35701	349.15913	88.35701
650.00000	92.40796	332.70049	92.40796
700.00000	95.06269	326.77243	95.06269
750.00000	96.75079	322.22163	96.75079
800.00000	99.30873	312.59648	99.30873
850.00000	101.70133	302.95739	101.70133
900.00000	103.35587	283.90347	103.35587
950.00000	104.64510	267.79003	104.64510
1000.00000	104.68625	249.33287	104.68625
1050.00000	104.12824	240.84457	104.12824
1100.00000	104.41761	229.24085	104.41761
1150.00000	103.61699	219.61182	103.61699
1200.00000	103.64922	217.10117	103.64922
1250.00000	103.58104	205.70667	103.58104
1300.00000	102.80271	199.65605	102.80271
1350.00000	102.10392	193.87877	102.10392
1400.00000	101.33633	194.10313	101.33633
1450.00000	101.52621	193.94270	101.52621
1500.00000	101.47282	194.25133	101.47282
1550.00000	101.55587	191.35199	101.55587
1600.00000	102.33329	190.16250	102.33329
1650.00000	103.08268	181.02789	103.08268
1700.00000	101.92542	176.75825	101.92542
1750.00000	101.90591	175.17123	101.90591
1800.00000	101.85127	171.66749	101.85127
1850.00000	101.72809	173.69158	101.72809
1900.00000	102.47867	174.00164	102.47867
1950.00000	103.39245	166.93928	103.39245
2000.00000	103.32680	157.65492	103.32680
2050.00000	102.47985	153.05324	102.47985
2100.00000	102.22541	151.85839	102.22541
2150.00000	102.05453	148.20091	102.05453
2200.00000	101.57648	145.63416	101.57648
2250.00000	100.72760	145.06709	100.72760
2300.00000	100.75041	146.54521	100.75041
2350.00000	100.58426	148.12259	100.58426
2400.00000	100.86008	149.16218	100.86008
2450.00000	100.91121	145.32275	100.91121
2500.00000	100.75451	147.41291	100.75451
2550.00000	100.47584	148.31242	100.47584
2600.00000	100.79244	153.93020	100.79244
2650.00000	102.03180	157.25006	102.03180
2700.00000	103.50799	155.04818	103.50799
2750.00000	104.64322	146.48336	104.64322
2800.00000	104.87345	137.38060	104.87345
2850.00000	104.75290	130.58433	104.75290
2900.00000	104.41268	124.80261	104.41268
2950.00000	104.06103	121.38617	104.06103
3000.00000	103.79838	117.90988	103.79838
3050.00000	103.46769	115.36073	103.46769
3100.00000	103.32589	112.26111	103.32589
3150.00000	102.96034	107.91433	102.96034
3200.00000	102.43723	104.98013	102.43723
3250.00000	101.61883	102.62815	101.61883
3300.00000	100.86305	101.03489	100.86305
3350.00000	99.48842	101.63491	99.48842
3400.00000	98.38317	108.95344	98.38317
3450.00000	98.01763	118.58674	98.01763
3500.00000	98.29947	126.94434	98.29947
3550.00000	98.84140	132.14086	98.84140
3600.00000	99.48635	135.55634	99.48635
3650.00000	99.81176	136.73476	99.81176
3700.00000	99.48791	142.82621	99.48791
3750.00000	99.82473	153.49928	99.82473
3800.00000	101.33774	163.89315	101.33774
3850.00000	103.25147	169.37124	103.25147
3900.00000	105.24546	170.39255	105.24546
3950.00000	107.09791	168.32438	107.09791
4000.00000	108.55107	164.51468	108.55107
4050.00000	109.75450	159.93318	109.75450
4100.00000	110.75247	156.15222	110.75247
4150.00000	111.84716	152.46481	111.84716
4200.00000	112.63635	148.71466	112.63635
4250.00000	113.55536	145.60327	113.55536
4300.00000	114.45957	142.74319	114.45957
4350.00000	115.42991	139.83474	115.42991
4400.00000	116.54628	137.09379	116.54628
4450.00000	117.77756	133.78280	117.77756
4500.00000	119.12530	129.32572	119.12530
4550.00000	120.53484	123.51589	120.53484
4600.00000	121.92445	116.40460	121.92445
4650.00000	123.35591	107.83945	123.35591
4700.00000	124.69453	97.18167	124.69453
4750.00000	125.85799	84.58789	125.85799
4800.00000	126.73300	70.02784	126.73300
4850.00000	127.16675	54.37622	127.16675
4900.00000	127.10227	38.52562	127.10227
4950.00000	126.55441	23.79120	126.55441
5000.00000	125.54228	11.29890	125.54228
5050.00000	124.41122	 2.44251	124.41122
5100.00000	123.16932	-6.75272	123.16932
5150.00000	120.72586	-9.92611	120.72586
5200.00000	119.20369	 7.43997	119.20369
5250.00000	122.23044	17.47701	122.23044
5300.00000	124.39320	 4.90142	124.39320
5350.00000	124.91348	-9.46279	124.91348
5400.00000	124.74155	-21.31668	124.74155
5450.00000	124.33859	-30.69511	124.33859
5500.00000	123.87060	-38.62425	123.87060
5550.00000	123.40731	-45.42102	123.40731
5600.00000	122.94463	-51.59994	122.94463
5650.00000	122.49539	-57.17630	122.49539
5700.00000	122.04389	-62.50800	122.04389
5750.00000	121.62563	-67.29807	121.62563
5800.00000	121.20181	-71.96649	121.20181
5850.00000	120.80013	-76.39151	120.80013
5900.00000	120.42801	-80.52917	120.42801
5950.00000	120.06930	-84.57780	120.06930
6000.00000	119.72471	-88.44684	119.72471
6050.00000	119.35242	-92.34184	119.35242
6100.00000	119.00635	-95.99107	119.00635
6150.00000	118.66996	-99.58993	118.66996
6200.00000	118.32940	-103.02633	118.32940
6250.00000	118.01196	-106.43655	118.01196
6300.00000	117.70373	-109.80040	117.70373
6350.00000	117.37493	-113.11312	117.37493
6400.00000	117.05895	-116.25405	117.05895
6450.00000	116.74905	-119.32267	116.74905
6500.00000	116.43339	-122.37315	116.43339
6550.00000	116.10391	-125.29804	116.10391
6600.00000	115.78398	-128.01788	115.78398
6650.00000	115.45787	-130.65031	115.45787
6700.00000	115.14012	-133.24317	115.14012
6750.00000	114.83245	-135.61495	114.83245
6800.00000	114.53133	-137.74177	114.53133
6850.00000	114.24946	-139.88012	114.24946
6900.00000	113.96727	-141.85286	113.96727
6950.00000	113.70625	-143.58541	113.70625
7000.00000	113.49639	-145.35862	113.49639
7050.00000	113.29033	-147.18381	113.29033
7100.00000	113.10668	-148.95628	113.10668
7150.00000	112.94057	-150.46059	112.94057
7200.00000	112.77663	-152.07574	112.77663
7250.00000	112.62897	-153.60522	112.62897
7300.00000	112.54294	-154.95645	112.54294
7350.00000	112.45749	-156.27200	112.45749
7400.00000	112.42752	-157.69515	112.42752
7450.00000	112.40457	-159.25208	112.40457
7500.00000	112.41222	-160.90987	112.41222
7550.00000	112.46857	-162.47401	112.46857
7600.00000	112.53204	-164.29801	112.53204
7650.00000	112.61304	-166.34479	112.61304
7700.00000	112.75981	-168.75419	112.75981
7750.00000	112.84010	-171.54082	112.84010
7800.00000	112.93870	-174.53106	112.93870
7850.00000	113.00882	-177.72529	113.00882
7900.00000	113.06612	-181.06155	113.06612
7950.00000	113.08518	-184.70722	113.08518
8000.00000	113.08987	-188.47127	113.08987
8050.00000	113.02743	-192.58202	113.02743
8100.00000	112.97153	-195.83655	112.97153
8150.00000	112.83742	-199.48721	112.83742
8200.00000	112.73035	-202.91701	112.73035
8250.00000	112.56610	-206.72370	112.56610
8300.00000	112.43414	-210.17228	112.43414
8350.00000	112.25611	-213.49951	112.25611
8400.00000	112.06051	-217.26730	112.06051
8450.00000	111.78112	-220.54160	111.78112
8500.00000	111.51588	-223.75711	111.51588
8550.00000	111.27862	-226.60412	111.27862
8600.00000	110.99964	-229.81897	110.99964
8650.00000	110.68545	-232.58353	110.68545
8700.00000	110.43160	-235.81635	110.43160
8750.00000	110.09487	-237.61143	110.09487
8800.00000	109.84584	-240.56403	109.84584
8850.00000	109.56651	-243.19331	109.56651
8900.00000	109.34254	-245.35681	109.34254
8950.00000	109.13110	-248.05632	109.13110
9000.00000	108.88893	-250.35935	108.88893
9050.00000	108.73742	-252.86581	108.73742
9100.00000	108.55360	-255.01530	108.55360
9150.00000	108.39235	-257.15667	108.39235
9200.00000	108.25299	-259.28663	108.25299
9250.00000	108.02290	-261.30020	108.02290
9300.00000	107.85466	-263.26198	107.85466
9350.00000	107.72501	-265.32586	107.72501
9400.00000	107.44612	-267.04357	107.44612
9450.00000	107.31644	-269.10077	107.31644
9500.00000	107.19187	-270.90477	107.19187
9550.00000	107.04149	-272.82233	107.04149
9600.00000	107.00033	-275.13952	107.00033
9650.00000	106.92727	-277.44256	106.92727
9700.00000	106.86608	-279.00850	106.86608
9750.00000	106.85522	-281.59948	106.85522
9800.00000	106.72378	-282.88549	106.72378
9850.00000	106.61080	-284.14993	106.61080
9900.00000	106.32036	-286.01609	106.32036
9950.00000	106.10880	-287.26655	106.10880
10000.00000	105.89822	-289.63275	105.89822
10050.00000	105.65658	-291.80449	105.65658
10100.00000	105.43523	-294.20044	105.43523
10150.00000	105.17315	-297.48168	105.17315
10200.00000	105.06394	-300.20666	105.06394
10250.00000	104.93600	-303.04569	104.93600
10300.00000	104.96759	-305.29273	104.96759
10350.00000	104.87411	-307.02557	104.87411
10400.00000	104.71790	-308.88472	104.71790
10450.00000	104.67094	-310.67582	104.67094
10500.00000	104.55716	-312.28200	104.55716
10550.00000	104.38569	-314.29435	104.38569
10600.00000	104.18595	-316.27868	104.18595
10650.00000	103.98999	-318.40614	103.98999
10700.00000	103.87182	-321.86523	103.87182
10750.00000	103.83642	-324.74545	103.83642
10800.00000	103.73756	-327.11823	103.73756
10850.00000	103.69418	-330.19500	103.69418
10900.00000	103.63593	-332.15963	103.63593
10950.00000	103.52282	-333.84819	103.52282
11000.00000	103.34800	-335.81787	103.34800
11050.00000	102.97915	-337.98389	102.97915
11100.00000	102.70115	-340.88403	102.70115
11150.00000	102.34458	-343.44634	102.34458
11200.00000	102.15356	-346.28708	102.15356
11250.00000	101.90451	-349.45159	101.90451
11300.00000	101.66146	-352.07732	101.66146
11350.00000	101.47492	-353.81430	101.47492
11400.00000	101.17855	-355.61618	101.17855
11450.00000	100.94009	-357.58646	100.94009
11500.00000	100.74864	-358.54515	100.74864
11550.00000	100.34256	-360.18114	100.34256
11600.00000	100.13135	-363.04334	100.13135
11650.00000	99.84236	-364.40597	99.84236
11700.00000	99.72211	-366.67553	99.72211
11750.00000	99.65082	-368.88819	99.65082
11800.00000	99.53910	-371.23316	99.53910
11850.00000	99.45721	-371.92125	99.45721
11900.00000	99.06324	-374.14719	99.06324
11950.00000	98.81753	-375.53412	98.81753
12000.00000	98.40182	-377.40333	98.40182
12050.00000	97.94706	-379.67346	97.94706
12100.00000	97.63732	-383.24999	97.63732
12150.00000	97.32020	-386.40956	97.32020
12200.00000	97.08276	-389.21781	97.08276
12250.00000	96.75986	-390.80124	96.75986
12300.00000	97.53702	-392.72067	97.53702
12350.00000	96.01071	-393.82049	96.01071
12400.00000	95.48398	-393.73381	95.48398
12450.00000	94.94353	-394.31029	94.94353
12500.00000	94.39726	-395.91875	94.39726
12550.00000	93.89580	-396.95598	93.89580
12600.00000	93.42478	-397.82040	93.42478
12650.00000	93.18733	-397.97151	93.18733
12700.00000	92.80264	-397.15542	92.80264
12750.00000	92.41287	-396.74951	92.41287
12800.00000	91.91697	-395.41907	91.91697
12850.00000	91.12192	-394.58677	91.12192
12900.00000	90.74463	-394.46840	90.74463
12950.00000	90.47198	-394.16472	90.47198
13000.00000	90.28653	-393.37233	90.28653
13050.00000	90.28842	-391.55076	90.28842
13100.00000	90.14454	-390.27529	90.14454
13150.00000	90.05737	-388.77747	90.05737
13200.00000	89.86460	-385.82360	89.86460
13250.00000	89.54615	-384.72252	89.54615
13300.00000	89.22261	-382.57063	89.22261
13350.00000	89.02346	-383.47027	89.02346
13400.00000	89.10465	-384.10121	89.10465
13450.00000	89.12929	-382.01184	89.12929
13500.00000	89.25783	-379.65476	89.25783
13550.00000	89.17674	-378.16200	89.17674
13600.00000	89.29263	-374.37436	89.29263
13650.00000	89.25796	-372.17308	89.25796
13700.00000	89.03353	-371.19350	89.03353
13750.00000	88.96204	-369.66631	88.96204
13800.00000	88.86533	-370.80927	88.86533
13850.00000	88.99478	-371.24583	88.99478
13900.00000	89.13110	-369.71748	89.13110
13950.00000	89.41718	-369.17079	89.41718
14000.00000	89.85285	-366.94227	89.85285
14050.00000	90.03826	-366.50407	90.03826
14100.00000	90.21695	-364.75419	90.21695
14150.00000	90.60974	-364.18013	90.60974
14200.00000	90.94072	-362.38158	90.94072
14250.00000	91.53868	-359.56165	91.53868
14300.00000	91.69648	-359.46342	91.69648
14350.00000	91.80997	-357.18567	91.80997
14400.00000	91.72359	-357.77092	91.72359
14450.00000	91.96646	-357.67684	91.96646
14500.00000	92.38792	-359.36542	92.38792
14550.00000	92.99441	-359.01746	92.99441
14600.00000	93.39915	-360.28709	93.39915
14650.00000	94.07549	-357.51965	94.07549
14700.00000	94.34686	-361.41293	94.34686
14750.00000	94.70340	-361.50046	94.70340
14800.00000	94.97514	-361.82236	94.97514
14850.00000	95.56007	-362.84435	95.56007
14900.00000	96.02384	-364.48720	96.02384
14950.00000	96.39533	-366.30106	96.39533
15000.00000	96.78911	-368.23606	96.78911
15050.00000	96.99470	-368.99481	96.99470
15100.00000	97.40530	-370.36374	97.40530
15150.00000	97.89683	-372.59551	97.89683
15200.00000	98.07353	-372.80100	98.07353
15250.00000	98.20815	-374.84125	98.20815
15300.00000	98.67539	-377.13883	98.67539
15350.00000	98.85359	-380.03152	98.85359
15400.00000	99.06231	-380.56957	99.06231
15450.00000	99.28805	-382.89428	99.28805
15500.00000	99.57350	-384.82733	99.57350
15550.00000	99.86715	-387.92125	99.86715
15600.00000	100.18978	-390.52724	100.18978
15650.00000	100.66048	-390.40692	100.66048
15700.00000	100.80884	-392.86881	100.80884
15750.00000	101.09738	-394.04303	101.09738
15800.00000	101.26766	-395.09940	101.26766
15850.00000	101.42010	-397.67950	101.42010
15900.00000	101.65000	-400.66162	101.65000
15950.00000	102.04360	-402.88464	102.04360
16000.00000	102.30769	-404.79082	102.30769
16050.00000	102.59751	-406.55408	102.59751
16100.00000	102.62540	-409.60767	102.62540
16150.00000	102.85212	-412.39295	102.85212
16200.00000	103.18953	-415.42802	103.18953
16250.00000	103.44959	-417.14594	103.44959
16300.00000	103.75187	-419.32426	103.75187
16350.00000	103.83475	-421.77254	103.83475
16400.00000	103.93500	-423.94730	103.93500
16450.00000	104.10015	-426.42789	104.10015
16500.00000	104.25462	-429.09382	104.25462
16550.00000	104.48001	-432.12390	104.48001
16600.00000	104.66633	-434.03575	104.66633
16650.00000	104.82861	-436.05317	104.82861
16700.00000	105.03666	-437.66781	105.03666
16750.00000	105.07201	-439.98814	105.07201
16800.00000	105.26893	-442.50900	105.26893
16850.00000	105.54510	-444.94748	105.54510
16900.00000	105.74879	-447.26534	105.74879
16950.00000	105.93718	-449.30164	105.93718
17000.00000	105.98659	-451.75601	105.98659
17050.00000	106.22750	-453.55524	106.22750
17100.00000	106.34645	-455.12591	106.34645
17150.00000	106.72421	-458.41030	106.72421
17200.00000	106.93678	-460.57139	106.93678
17250.00000	107.03443	-463.35461	107.03443
17300.00000	107.31720	-465.91583	107.31720
17350.00000	107.38467	-468.26787	107.38467
17400.00000	107.66201	-471.11359	107.66201
17450.00000	107.79749	-474.22016	107.79749
17500.00000	108.01971	-476.83941	108.01971
17550.00000	108.18731	-479.77474	108.18731
17600.00000	108.43526	-482.20486	108.43526
17650.00000	108.55997	-485.96406	108.55997
17700.00000	108.67049	-489.09716	108.67049
17750.00000	108.96240	-491.31307	108.96240
17800.00000	108.99340	-494.80234	108.99340
17850.00000	109.13832	-497.32590	109.13832
17900.00000	109.20022	-500.53722	109.20022
17950.00000	109.40045	-504.02799	109.40045
18000.00000	109.51585	-507.55393	109.51585
18050.00000	109.76086	-510.03552	109.76086
18100.00000	109.77517	-513.49486	109.77517
18150.00000	109.84188	-515.99342	109.84188
18200.00000	109.88182	-519.74382	109.88182
18250.00000	110.04394	-522.18980	110.04394
18300.00000	110.18366	-525.25354	110.18366
18350.00000	110.26784	-528.19322	110.26784
18400.00000	110.27564	-531.62642	110.27564
18450.00000	110.32168	-535.82558	110.32168
18500.00000	110.41364	-538.79619	110.41364
18550.00000	110.47838	-541.46544	110.47838
18600.00000	110.63141	-545.05613	110.63141
18650.00000	110.55116	-547.90499	110.55116
18700.00000	110.58979	-551.49742	110.58979
18750.00000	110.68733	-554.64480	110.68733
18800.00000	110.83415	-557.27443	110.83415
18850.00000	110.76846	-560.90812	110.76846
18900.00000	110.78702	-563.91370	110.78702
18950.00000	110.82247	-567.68421	110.82247
19000.00000	110.71480	-570.53821	110.71480
19050.00000	110.86431	-574.06729	110.86431
19100.00000	110.81990	-577.07081	110.81990
19150.00000	110.96563	-580.25358	110.96563
19200.00000	110.92315	-583.26283	110.92315
19250.00000	110.88386	-587.63996	110.88386
19300.00000	110.80059	-590.30803	110.80059
19350.00000	110.79935	-593.68363	110.79935
19400.00000	110.73117	-596.79543	110.73117
19450.00000	110.76367	-599.48555	110.76367
19500.00000	110.64563	-603.55051	110.64563
19550.00000	110.61223	-606.70576	110.61223
19600.00000	110.61760	-610.46821	110.61760
19650.00000	110.48401	-613.04563	110.48401
19700.00000	110.30912	-616.35024	110.30912
19750.00000	110.20827	-619.01785	110.20827
19800.00000	110.21159	-622.92135	110.21159
19850.00000	110.13877	-625.65502	110.13877
19900.00000	109.98469	-629.53970	109.98469
19950.00000	109.84820	-632.36577	109.84820
20000.00000	109.75025	-635.36926	109.75025
20050.00000	109.63811	-638.40634	109.63811
20100.00000	109.42172	-641.42021	109.42172
20150.00000	109.33256	-643.42522	109.33256
20200.00000	109.13896	-646.92459	109.13896
20250.00000	108.91774	-649.61984	108.91774
20300.00000	108.68779	-652.31777	108.68779
20350.00000	108.59144	-654.97401	108.59144
20400.00000	108.34195	-656.54519	108.34195
20450.00000	108.06532	-659.02613	108.06532
20500.00000	107.93624	-661.56038	107.93624
20550.00000	107.52547	-662.83966	107.52547
20600.00000	107.41710	-664.43898	107.41710
20650.00000	107.23877	-666.06941	107.23877
20700.00000	106.99903	-667.46229	106.99903
20750.00000	106.88092	-668.68585	106.88092
20800.00000	106.69334	-669.45176	106.69334
20850.00000	106.62513	-670.52708	106.62513
20900.00000	106.46449	-671.26005	106.46449
20950.00000	106.36988	-671.48225	106.36988
21000.00000	106.33294	-671.99097	106.33294
21050.00000	106.48210	-672.18931	106.48210
21100.00000	106.50829	-672.46384	106.50829
21150.00000	106.67519	-673.34327	106.67519
21200.00000	106.83860	-673.80345	106.83860
21250.00000	107.00574	-675.99721	107.00574
21300.00000	107.25745	-676.80309	107.25745
21350.00000	107.42695	-678.10884	107.42695
21400.00000	107.60577	-680.32939	107.60577
21450.00000	107.79845	-682.50351	107.79845
21500.00000	107.99226	-685.05262	107.99226
21550.00000	108.06378	-687.15318	108.06378
21600.00000	108.25623	-689.78815	108.25623
21650.00000	108.34179	-692.57886	108.34179
21700.00000	108.43554	-694.86135	108.43554
21750.00000	108.52152	-697.48486	108.52152
21800.00000	108.60239	-700.11339	108.60239
21850.00000	108.58517	-702.47618	108.58517
21900.00000	108.66564	-705.17317	108.66564
21950.00000	108.70342	-707.51205	108.70342
22000.00000	108.79566	-709.85789	108.79566
22050.00000	108.79222	-711.89731	108.79222
22100.00000	108.79979	-714.56441	108.79979
22150.00000	108.82051	-716.81198	108.82051
22200.00000	108.89585	-719.32663	108.89585
22250.00000	108.89050	-721.08423	108.89050
22300.00000	108.78875	-723.56904	108.78875
22350.00000	108.91698	-725.96561	108.91698
22400.00000	108.95646	-728.55784	108.95646
22450.00000	108.92408	-730.48493	108.92408
22500.00000	108.86748	-731.70706	108.86748
22550.00000	108.88323	-734.18835	108.88323
22600.00000	108.89067	-737.11606	108.89067
22650.00000	108.94118	-739.21062	108.94118
22700.00000	108.95105	-740.75585	108.95105
22750.00000	108.92671	-741.11668	108.92671
22800.00000	108.96469	-745.32308	108.96469
22850.00000	109.07175	-748.12978	109.07175
22900.00000	109.12120	-748.56241	109.12120
22950.00000	109.19703	-750.73564	109.19703
23000.00000	109.16938	-752.07410	109.16938
23050.00000	109.18103	-755.12399	109.18103
23100.00000	109.33601	-756.19886	109.33601
23150.00000	109.25828	-757.56182	109.25828
23200.00000	109.45793	-761.02625	109.45793
23250.00000	109.34011	-763.83139	109.34011
23300.00000	109.64461	-766.29445	109.64461
23350.00000	109.44795	-768.59908	109.44795
23400.00000	109.49032	-770.77852	109.49032
23450.00000	109.68069	-773.30838	109.68069
23500.00000	109.57493	-774.85964	109.57493
23550.00000	109.62736	-775.62344	109.62736
23600.00000	109.56361	-779.83087	109.56361
23650.00000	109.67984	-781.57617	109.67984
23700.00000	109.88625	-786.09796	109.88625
23750.00000	109.86800	-787.59208	109.86800
23800.00000	109.65456	-788.70994	109.65456
23850.00000	109.79037	-790.49116	109.79037
23900.00000	110.19907	-793.63271	110.19907
23950.00000	109.89874	-797.32973	109.89874
24000.00000	109.79897	-800.92903	109.79897
24050.00000	109.97848	-801.76018	109.97848
24100.00000	110.22277	-806.23051	110.22277
24150.00000	110.21531	-808.71329	110.21531
24200.00000	110.20495	-813.25880	110.20495
24250.00000	109.85083	-814.18788	109.85083
24300.00000	110.15909	-818.16991	110.15909
24350.00000	110.00779	-821.03859	110.00779
24400.00000	109.90760	-824.89533	109.90760
24450.00000	109.58544	-827.27822	109.58544
24500.00000	109.98643	-829.59048	109.98643
24550.00000	109.75590	-475.05393	109.75590
24600.00000	110.07501	-117.27657	110.07501
24650.00000	109.66423	238.24471	109.66423
24700.00000	109.44874	597.77986	109.44874
24750.00000	109.39167	951.93269	109.39167
24800.00000	109.25587	1308.76654	109.25587
24850.00000	108.80718	1667.39267	108.80718
24900.00000	108.72793	2025.66777	108.72793
24950.00000	108.73741	2380.93355	108.73741
25000.00000	108.63508	2372.17185	108.63508
25050.00000	108.70412	2372.91151	108.70412
25100.00000	107.85034	2368.87465	107.85034
25150.00000	107.95629	2368.02243	107.95629
25200.00000	107.69007	2363.68346	107.69007
25250.00000	107.65402	2362.40421	107.65402
25300.00000	107.47286	2360.50467	107.47286
25350.00000	107.22254	2352.96301	107.22254
25400.00000	107.05716	2349.43357	107.05716
25450.00000	106.86765	2347.97577	106.86765
25500.00000	106.50780	2345.52741	106.50780
25550.00000	106.24829	2341.80046	106.24829
25600.00000	106.16270	2339.21095	106.16270
25650.00000	105.85150	2337.36072	105.85150
25700.00000	105.66635	2333.92973	105.66635
25750.00000	105.23754	2331.24410	105.23754
25800.00000	104.94088	2327.27927	104.94088
25850.00000	104.68186	2325.26653	104.68186
25900.00000	104.44103	2320.86637	104.44103
25950.00000	103.89120	2322.03557	103.89120
26000.00000	103.75192	2317.20845	103.75192
26050.00000	103.44924	2315.25909	103.44924
26100.00000	103.05948	2312.87877	103.05948
26150.00000	102.85539	2310.90007	102.85539
26200.00000	102.68774	2308.54257	102.68774
26250.00000	102.24227	2305.97590	102.24227
26300.00000	102.07608	2303.75004	102.07608
26350.00000	101.38906	2303.26897	101.38906
26400.00000	101.22075	2301.21724	101.22075
26450.00000	101.24048	2297.67548	101.24048
26500.00000	100.69580	2296.04346	100.69580
26550.00000	100.44335	2292.05275	100.44335
26600.00000	100.03731	2290.35560	100.03731
26650.00000	99.84624	2291.91705	99.84624
26700.00000	99.46363	2290.25914	99.46363
26750.00000	99.12333	2288.80301	99.12333
26800.00000	98.69055	2285.08996	98.69055
26850.00000	98.92210	2285.47337	98.92210
26900.00000	98.58229	2285.65729	98.58229
26950.00000	98.49159	2282.09049	98.49159
27000.00000	97.87230	2283.59199	97.87230
27050.00000	97.98429	2281.39419	97.98429
27100.00000	97.45900	2281.63271	97.45900
27150.00000	97.39494	2279.86754	97.39494
27200.00000	97.44158	2280.26288	97.44158
27250.00000	96.70874	2280.78865	96.70874
27300.00000	96.53499	2278.58947	96.53499
27350.00000	96.79466	2280.46542	96.79466
27400.00000	96.27348	2279.27090	96.27348
27450.00000	96.44477	2278.42060	96.44477
27500.00000	96.31815	2278.92567	96.31815
27550.00000	96.32675	2276.97762	96.32675
27600.00000	96.60475	2275.97655	96.60475
27650.00000	96.19827	2278.28467	96.19827
27700.00000	96.26650	2274.34556	96.26650
27750.00000	96.25719	2273.12491	96.25719
27800.00000	96.44387	2271.34655	96.44387
27850.00000	96.95634	2275.12777	96.95634
27900.00000	96.54275	2274.49722	96.54275
27950.00000	96.09162	2272.14612	96.09162
28000.00000	96.43657	2272.00192	96.43657
28050.00000	97.11250	2270.27102	97.11250
28100.00000	96.66696	2270.65476	96.66696
28150.00000	96.92322	2269.06850	96.92322
28200.00000	97.31475	2266.09592	97.31475
28250.00000	97.04228	2263.71927	97.04228
28300.00000	97.06705	2264.56687	97.06705
28350.00000	97.43208	2265.11363	97.43208
28400.00000	97.34365	2264.14419	97.34365
28450.00000	98.11395	2260.46612	98.11395
28500.00000	97.83286	2261.66645	97.83286
28550.00000	98.02357	2262.45734	98.02357
28600.00000	98.28601	2259.46273	98.28601
28650.00000	98.49427	2255.83153	98.49427
28700.00000	98.68857	2256.07552	98.68857
28750.00000	99.51464	2255.98233	99.51464
28800.00000	99.43625	2254.18284	99.43625
28850.00000	98.97426	2249.55656	98.97426
28900.00000	99.28522	2248.07811	99.28522
28950.00000	99.34340	2248.59426	99.34340
29000.00000	99.75997	2245.83216	99.75997
29050.00000	99.66079	2246.27770	99.66079
29100.00000	99.83269	2245.26774	99.83269
29150.00000	99.95326	2243.85953	99.95326
29200.00000	99.96972	2240.40255	99.96972
29250.00000	100.53551	2238.96466	100.53551
29300.00000	100.47923	2236.41594	100.47923
29350.00000	100.89729	2234.00578	100.89729
29400.00000	100.93740	2232.92979	100.93740
29450.00000	101.08430	2230.67233	101.08430
29500.00000	101.57712	2229.47736	101.57712
29550.00000	101.33085	2224.78376	101.33085
29600.00000	101.30654	2224.59150	101.30654
29650.00000	101.56990	2221.64817	101.56990
29700.00000	101.50410	2222.48086	101.50410
29750.00000	101.61803	2221.31837	101.61803
29800.00000	101.45129	2217.60401	101.45129
29850.00000	101.66809	2215.12104	101.66809
29900.00000	101.99025	2214.88988	101.99025
29950.00000	101.27579	2213.75070	101.27579
30000.00000	101.74847	2213.39272	101.74847
30050.00000	101.84003	2211.19717	101.84003
30100.00000	101.55021	2211.60230	101.55021
30150.00000	101.73205	2207.85734	101.73205
30200.00000	101.75205	2206.03927	101.75205
30250.00000	101.61329	2206.50663	101.61329
30300.00000	101.38189	2206.80327	101.38189
30350.00000	101.47697	2207.75996	101.47697
30400.00000	101.57215	2205.47231	101.57215
30450.00000	101.26993	2205.78328	101.26993
30500.00000	101.26467	2204.90694	101.26467
30550.00000	101.31916	2206.81464	101.31916
30600.00000	101.36241	2207.41110	101.36241
30650.00000	101.43889	2207.82719	101.43889
30700.00000	101.56209	2207.34770	101.56209
30750.00000	101.49031	2209.75707	101.49031
30800.00000	101.69794	2210.25447	101.69794
30850.00000	101.96070	2212.32828	101.96070
30900.00000	101.93288	2214.33609	101.93288
30950.00000	102.52071	2213.90290	102.52071
31000.00000	102.82127	2214.25062	102.82127
31050.00000	103.23939	2215.84857	103.23939
31100.00000	103.81808	2216.47375	103.81808
31150.00000	103.90841	2216.49051	103.90841
31200.00000	104.74293	2216.08745	104.74293
31250.00000	105.16290	2215.40668	105.16290
31300.00000	105.63651	2214.58544	105.63651
31350.00000	106.25670	2213.68660	106.25670
31400.00000	106.61057	2211.39433	106.61057
31450.00000	107.17509	2209.76631	107.17509
31500.00000	107.61700	2206.45433	107.61700
31550.00000	108.14272	2204.67231	108.14272
31600.00000	108.69343	2200.62668	108.69343
31650.00000	108.99761	2197.42190	108.99761
31700.00000	109.39587	2194.70563	109.39587
31750.00000	109.78865	2192.11365	109.78865
31800.00000	110.09060	2187.23274	110.09060
31850.00000	110.42494	2183.14095	110.42494
31900.00000	110.50165	2179.38039	110.50165
31950.00000	110.84410	2175.60206	110.84410
32000.00000	110.97813	2171.29352	110.97813
32050.00000	111.16317	2167.67076	111.16317
32100.00000	111.26195	2162.80910	111.26195
32150.00000	111.43975	2159.67470	111.43975
32200.00000	111.58296	2154.84981	111.58296
32250.00000	111.62206	2150.00274	111.62206
32300.00000	111.62377	2146.62529	111.62377
32350.00000	111.62899	2142.67184	111.62899
32400.00000	111.74735	2138.79830	111.74735
32450.00000	111.61713	2134.24166	111.61713
32500.00000	111.74175	2130.84662	111.74175
32550.00000	111.77830	2125.79437	111.77830
32600.00000	111.63558	2122.36138	111.63558
32650.00000	111.69521	2117.94606	111.69521
32700.00000	111.47153	2113.64541	111.47153
32750.00000	111.32045	2109.78359	111.32045
32800.00000	111.42614	2106.69411	111.42614
32850.00000	111.39632	2102.50886	111.39632
32900.00000	111.19865	2097.86042	111.19865
32950.00000	111.05522	2093.76055	111.05522
33000.00000	110.84107	2091.51088	110.84107
33050.00000	110.65695	2086.34015	110.65695
33100.00000	110.62558	2082.97259	110.62558
33150.00000	110.48809	2079.57349	110.48809
33200.00000	110.44222	2077.43484	110.44222
33250.00000	110.20040	2074.22411	110.20040
33300.00000	109.98063	2069.99065	109.98063
33350.00000	109.79265	2066.60209	109.79265
33400.00000	109.65123	2064.53005	109.65123
33450.00000	109.63506	2059.99760	109.63506
33500.00000	109.63553	2059.20958	109.63553
33550.00000	109.13053	2054.05009	109.13053
33600.00000	109.42017	2051.61748	109.42017
33650.00000	109.19860	2048.04713	109.19860
33700.00000	109.12159	2045.59150	109.12159
33750.00000	108.85024	2041.90109	108.85024
33800.00000	108.93154	2038.32796	108.93154
33850.00000	108.55355	2036.34311	108.55355
33900.00000	108.69470	2032.76611	108.69470
33950.00000	108.46098	2029.80899	108.46098
34000.00000	108.50310	2026.79279	108.50310
34050.00000	108.31865	2022.86495	108.31865
34100.00000	108.03276	2021.11527	108.03276
34150.00000	107.93009	2015.79195	107.93009
34200.00000	107.80935	2016.31372	107.80935
34250.00000	107.66763	2011.73165	107.66763
34300.00000	107.46603	2009.04469	107.46603
34350.00000	107.53808	2006.08378	107.53808
34400.00000	106.92063	2005.27283	106.92063
34450.00000	106.97023	2000.56656	106.97023
34500.00000	106.63352	1999.72371	106.63352
34550.00000	106.69380	1997.04921	106.69380
34600.00000	106.43938	1993.17794	106.43938
34650.00000	106.46574	1992.15508	106.46574
34700.00000	105.80689	1992.10333	105.80689
34750.00000	106.24505	1984.52170	106.24505
34800.00000	106.05664	1987.44408	106.05664
34850.00000	105.74316	1986.77402	105.74316
34900.00000	105.91378	1982.85880	105.91378
34950.00000	105.51133	1983.07839	105.51133
35000.00000	105.51068	1981.97924	105.51068
35050.00000	105.58862	1980.19400	105.58862
35100.00000	105.66710	1978.39082	105.66710
35150.00000	105.14664	1978.51131	105.14664
35200.00000	105.17594	1975.10188	105.17594
35250.00000	105.06755	1974.10827	105.06755
35300.00000	105.18167	1973.02649	105.18167
35350.00000	105.35033	1974.39909	105.35033
35400.00000	105.27087	1970.62111	105.27087
35450.00000	105.33780	1970.03809	105.33780
35500.00000	105.14715	1968.70725	105.14715
35550.00000	105.25110	1969.42009	105.25110
35600.00000	105.11770	1967.61259	105.11770
35650.00000	105.29149	1966.99747	105.29149
35700.00000	105.51360	1967.38167	105.51360
35750.00000	105.42339	1966.51189	105.42339
35800.00000	105.42216	1966.28813	105.42216
35850.00000	105.84529	1963.81784	105.84529
35900.00000	106.03802	1963.88750	106.03802
35950.00000	106.00012	1963.61331	106.00012
36000.00000	106.12793	1962.80665	106.12793
36050.00000	106.59984	1962.13702	106.59984
36100.00000	106.73424	1960.52144	106.73424
36150.00000	107.01212	1957.30451	107.01212
36200.00000	106.86850	1957.45569	106.86850
36250.00000	107.22606	1957.37015	107.22606
36300.00000	107.02754	1955.87966	107.02754
36350.00000	107.39334	1956.06310	107.39334
36400.00000	107.47888	1956.80771	107.47888
36450.00000	107.53161	1955.65752	107.53161
36500.00000	108.05433	1954.99852	108.05433
36550.00000	108.26030	1951.12750	108.26030
36600.00000	108.49759	1952.72865	108.49759
36650.00000	108.84002	1951.03767	108.84002
36700.00000	108.93050	1949.37656	108.93050
36750.00000	109.16520	1949.55437	109.16520
36800.00000	109.29505	1949.07492	109.29505
36850.00000	109.53631	1948.34917	109.53631
36900.00000	109.80195	1947.63846	109.80195
36950.00000	109.89059	1946.88934	109.89059
37000.00000	109.86912	1947.05940	109.86912
37050.00000	110.31145	1947.15464	110.31145
37100.00000	110.77408	1945.09348	110.77408
37150.00000	111.00789	1943.85437	111.00789
37200.00000	111.66057	1944.38335	111.66057
37250.00000	111.54207	1942.86679	111.54207
37300.00000	111.91580	1942.05786	111.91580
37350.00000	112.59829	1941.43004	112.59829
37400.00000	112.62157	1940.94766	112.62157
37450.00000	112.78518	1940.23012	112.78518
37500.00000	113.60470	1937.89901	113.60470
37550.00000	113.65271	1937.23371	113.65271
37600.00000	114.06865	1936.40104	114.06865
37650.00000	114.47207	1935.12712	114.47207
37700.00000	114.95742	1932.22763	114.95742
37750.00000	115.35916	1930.88478	115.35916
37800.00000	115.62293	1929.04092	115.62293
37850.00000	116.06748	1925.61941	116.06748
37900.00000	116.50329	1924.31592	116.50329
37950.00000	116.92652	1922.45308	116.92652
38000.00000	117.25026	1919.90058	117.25026
38050.00000	117.73888	1916.32285	117.73888
38100.00000	118.19648	1913.12149	118.19648
38150.00000	118.48234	1909.21159	118.48234
38200.00000	118.96931	1904.90547	118.96931
38250.00000	119.31095	1901.24543	119.31095
38300.00000	119.69750	1896.42634	119.69750
38350.00000	119.84969	1892.47999	119.84969
38400.00000	120.11739	1888.09220	120.11739
38450.00000	120.31419	1882.86577	120.31419
38500.00000	120.55412	1877.76248	120.55412
38550.00000	120.79841	1873.77329	120.79841
38600.00000	120.96477	1868.72950	120.96477
38650.00000	121.09844	1863.61597	121.09844
38700.00000	121.14073	1858.32090	121.14073
38750.00000	121.25104	1853.45879	121.25104
38800.00000	121.33708	1848.68605	121.33708
38850.00000	121.37826	1843.36512	121.37826
38900.00000	121.41384	1838.33999	121.41384
38950.00000	121.38109	1833.41438	121.38109
39000.00000	121.40600	1828.14465	121.40600
39050.00000	121.41096	1823.43648	121.41096
39100.00000	121.26841	1818.51559	121.26841
39150.00000	121.21563	1813.49214	121.21563
39200.00000	121.22822	1808.85819	121.22822
39250.00000	121.17872	1803.74264	121.17872
39300.00000	121.10389	1798.69207	121.10389
39350.00000	120.97190	1794.39965	120.97190
39400.00000	120.88898	1788.93855	120.88898
39450.00000	120.74859	1784.67617	120.74859
39500.00000	120.66198	1780.03793	120.66198
39550.00000	120.52392	1775.29681	120.52392
39600.00000	120.27670	1770.40473	120.27670
39650.00000	120.22470	1766.07184	120.22470
39700.00000	119.97870	1761.68790	119.97870
39750.00000	119.87984	1756.99500	119.87984
39800.00000	119.69580	1752.20824	119.69580
39850.00000	119.43759	1747.81103	119.43759
39900.00000	119.24640	1743.83581	119.24640
39950.00000	119.02103	1739.67480	119.02103
40000.00000	118.64610	1736.86612	118.64610
40050.00000	118.50892	1731.80125	118.50892
40100.00000	118.29376	1728.01502	118.29376
40150.00000	118.01914	1724.24943	118.01914
40200.00000	117.79649	1720.47723	117.79649
40250.00000	117.59820	1717.26542	117.59820
40300.00000	117.41163	1714.14365	117.41163
40350.00000	117.00786	1711.33649	117.00786
40400.00000	116.73780	1708.51305	116.73780
40450.00000	116.57689	1705.70938	116.57689
40500.00000	116.43144	1703.60490	116.43144
40550.00000	116.18937	1700.37907	116.18937
40600.00000	115.98063	1698.51149	115.98063
40650.00000	115.75566	1696.47750	115.75566
40700.00000	115.44429	1695.02355	115.44429
40750.00000	115.43456	1693.19532	115.43456
40800.00000	115.32289	1691.12358	115.32289
40850.00000	115.18966	1690.08815	115.18966
40900.00000	115.06558	1687.98895	115.06558
40950.00000	114.84337	1687.36648	114.84337
41000.00000	114.72450	1686.36772	114.72450
41050.00000	114.74809	1685.15949	114.74809
41100.00000	114.81453	1683.59722	114.81453
41150.00000	114.94384	1684.26835	114.94384
41200.00000	114.98316	1682.70454	114.98316
41250.00000	115.00692	1679.66560	115.00692
41300.00000	114.86156	1680.41595	114.86156
41350.00000	115.13053	1680.90238	115.13053
41400.00000	115.23530	1674.90620	115.23530
41450.00000	115.53464	1677.03063	115.53464
41500.00000	115.44381	1675.42203	115.44381
41550.00000	115.51348	1678.06426	115.51348
41600.00000	115.41487	1674.63896	115.41487
41650.00000	115.98643	1672.69895	115.98643
41700.00000	116.22481	1672.58861	116.22481
41750.00000	116.21487	1675.32069	116.21487
41800.00000	115.55760	1669.03826	115.55760
41850.00000	115.75924	1669.85630	115.75924
41900.00000	115.72665	1669.04587	115.72665
41950.00000	117.12588	1672.50339	117.12588
42000.00000	116.28410	1666.02673	116.28410
42050.00000	115.38507	1665.05261	115.38507
42100.00000	116.13854	1664.31891	116.13854
42150.00000	115.77231	1658.68313	115.77231
42200.00000	115.68722	1663.69615	115.68722
42250.00000	115.91517	1661.58193	115.91517
42300.00000	114.98655	1657.44192	114.98655
42350.00000	115.66332	1658.71008	115.66332
42400.00000	115.39216	1659.45952	115.39216
42450.00000	115.91496	1653.30552	115.91496
42500.00000	115.16754	1652.14392	115.16754
42550.00000	115.44687	1662.35842	115.44687
42600.00000	115.04398	1654.00714	115.04398
42650.00000	114.67151	1655.32234	114.67151
42700.00000	114.38075	1652.38939	114.38075
42750.00000	115.20561	1650.03127	115.20561
42800.00000	114.51134	1643.27280	114.51134
42850.00000	114.09546	1642.23003	114.09546
42900.00000	115.15554	1647.75347	115.15554
42950.00000	114.10655	1642.20829	114.10655
43000.00000	114.49706	1633.42673	114.49706
43050.00000	113.73128	1632.29146	113.73128
43100.00000	114.05877	1636.43541	114.05877
43150.00000	113.25735	1630.56154	113.25735
43200.00000	113.28950	1628.62955	113.28950
43250.00000	113.18065	1626.90196	113.18065
43300.00000	113.09980	1624.52015	113.09980
43350.00000	113.67055	1620.24722	113.67055
43400.00000	112.94862	1617.19249	112.94862
43450.00000	113.76530	1618.71821	113.76530
43500.00000	112.18618	1609.33584	112.18618
43550.00000	112.92537	1605.32067	112.92537
43600.00000	112.42275	1600.43048	112.42275
43650.00000	112.67028	1591.00980	112.67028
43700.00000	112.01562	1590.89800	112.01562
43750.00000	111.42925	1591.56980	111.42925
43800.00000	111.33826	1582.35524	111.33826
43850.00000	111.75850	1577.39689	111.75850
43900.00000	111.37414	1576.22758	111.37414
43950.00000	111.12750	1569.79455	111.12750
44000.00000	110.32298	1566.63289	110.32298
44050.00000	110.57675	1561.34499	110.57675
44100.00000	110.42817	1552.23783	110.42817
44150.00000	109.91547	1553.16718	109.91547
44200.00000	109.62584	1552.21071	109.62584
44250.00000	109.73854	1545.93741	109.73854
44300.00000	109.71153	1539.64910	109.71153
44350.00000	108.38672	1535.52584	108.38672
44400.00000	109.04181	1533.07184	109.04181
44450.00000	109.14182	1530.59228	109.14182
44500.00000	108.58761	1526.14510	108.58761
44550.00000	109.83591	1518.38583	109.83591
44600.00000	108.47014	1517.35593	108.47014
44650.00000	107.43401	1510.53055	107.43401
44700.00000	107.51405	1505.40222	107.51405
44750.00000	107.20540	1504.73197	107.20540
44800.00000	108.15616	1498.94276	108.15616
44850.00000	107.27779	1491.55124	107.27779
44900.00000	107.03616	1491.38093	107.03616
44950.00000	107.03700	1483.88871	107.03700
45000.00000	107.14754	1474.16611	107.14754
45050.00000	105.40716	1481.35351	105.40716
45100.00000	106.08192	1472.92700	106.08192
45150.00000	106.45159	1461.02263	106.45159
45200.00000	105.87254	1463.31266	105.87254
45250.00000	106.07766	1454.83790	106.07766
45300.00000	105.67392	1446.75643	105.67392
45350.00000	104.89058	1438.97912	104.89058
45400.00000	104.63596	1435.81956	104.63596
45450.00000	105.22531	1426.73077	105.22531
45500.00000	103.25398	1419.21926	103.25398
45550.00000	103.42398	1422.37328	103.42398
45600.00000	104.12129	1411.70487	104.12129
45650.00000	102.27601	1404.82111	102.27601
45700.00000	102.15468	1400.11232	102.15468
45750.00000	102.51870	1398.35816	102.51870
45800.00000	101.47471	1388.75427	101.47471
45850.00000	101.31124	1383.01128	101.31124
45900.00000	100.21562	1382.68643	100.21562
45950.00000	100.03584	1382.68803	100.03584
46000.00000	98.17207	1363.69346	98.17207
46050.00000	98.27717	1360.45230	98.27717
46100.00000	96.97362	1361.88941	96.97362
46150.00000	96.78464	1360.64968	96.78464
46200.00000	95.02394	1350.32186	95.02394
46250.00000	95.50181	1345.95492	95.50181
46300.00000	93.51559	1346.30081	93.51559
46350.00000	94.19735	1337.27514	94.19735
46400.00000	93.67691	1331.69924	93.67691
46450.00000	90.11922	1329.59105	90.11922
46500.00000	92.00597	1335.52921	92.00597
46550.00000	90.73531	1334.10208	90.73531
46600.00000	90.18496	1323.55329	90.18496
46650.00000	88.50591	1326.76523	88.50591
46700.00000	87.80366	1332.02318	87.80366
46750.00000	88.12724	1336.71003	88.12724
46800.00000	85.00866	1326.84598	85.00866
46850.00000	86.59860	983.31084	86.59860
46900.00000	87.03606	978.62194	87.03606
46950.00000	88.69692	972.01028	88.69692
47000.00000	85.02951	976.79170	85.02951
47050.00000	87.09912	969.09188	87.09912
47100.00000	85.44748	969.63111	85.44748
47150.00000	87.91223	969.37717	87.91223
47200.00000	86.56836	958.64692	86.56836
47250.00000	87.57970	960.20894	87.57970
47300.00000	85.96469	951.64599	85.96469
47350.00000	85.99050	599.35420	85.99050
47400.00000	84.37021	606.38439	84.37021
47450.00000	87.70633	595.52218	87.70633
47500.00000	83.20057	591.16524	83.20057
47550.00000	85.41402	243.94041	85.41402
47600.00000	84.50539	241.83393	84.50539
47650.00000	85.89531	245.36066	85.89531
47700.00000	84.37274	237.99071	84.37274
47750.00000	82.01653	242.97587	82.01653
47800.00000	84.01118	227.45548	84.01118
47850.00000	84.81882	-131.31638	84.81882
47900.00000	85.04735	-483.17357	85.04735
47950.00000	83.46966	-480.19447	83.46966
48000.00000	85.40625	-486.95309	85.40625
48050.00000	86.49742	-504.67584	86.49742
48100.00000	84.54817	-499.53117	84.54817
48150.00000	85.45987	-850.75619	85.45987
48200.00000	84.62800	-857.17913	84.62800
48250.00000	83.61510	-869.62284	83.61510
48300.00000	85.17279	-857.77000	85.17279
48350.00000	83.71861	-867.44831	83.71861
48400.00000	84.49410	-1232.50572	84.49410
48450.00000	85.96557	-1227.22624	85.96557
48500.00000	84.94192	-1235.48511	84.94192
48550.00000	84.19247	-1234.46146	84.19247
48600.00000	86.24660	-1597.50616	86.24660
48650.00000	85.83844	-1602.46198	85.83844
48700.00000	85.00374	-1614.04669	85.00374
48750.00000	84.91526	-1958.11844	84.91526
48800.00000	86.19006	-1961.33301	86.19006
48850.00000	84.52986	-1971.13284	84.52986
48900.00000	85.90876	-2321.04526	85.90876
48950.00000	85.11741	-2342.10586	85.11741
49000.00000	83.95292	-2340.25444	83.95292
49050.00000	85.31589	-2349.64816	85.31589
49100.00000	86.59479	-2702.57795	86.59479
49150.00000	87.91374	-3075.84380	87.91374
49200.00000	86.31873	-3086.82999	86.31873
49250.00000	87.28069	-3447.57965	87.28069
49300.00000	86.45563	-3080.69434	86.45563
49350.00000	83.97780	-3082.95660	83.97780
49400.00000	86.67825	-2724.27603	86.67825
49450.00000	84.85954	-2379.26705	84.85954
49500.00000	80.96670	-2042.09011	80.96670
49550.00000	83.33118	-1679.77478	83.33118
49600.00000	88.16508	-1687.96484	88.16508
49650.00000	86.34821	-1681.48852	86.34821
49700.00000	86.53032	-1345.52451	86.53032
49750.00000	89.10976	-1342.56106	89.10976
49800.00000	86.59298	-1339.45739	86.59298
49850.00000	87.15672	-1348.13678	87.15672
49900.00000	85.44349	-976.37835	85.44349
49950.00000	87.42868	-658.67776	87.42868
