---ACOUSTIC CALIBRATION---
Filename: C:\Data\CL0809 DATA\CL0809100\RightPrimary.calib
Date: 8/9/2019 9:01:59 AM
Format: 4
Probe Tube Correction File: C:\Data\Probe Tube Calibrations\74_ProbeTube.calib
Experiment VIs: 2128
EPL_CFTS.exe V15.0.1f5 (2015)
DAQmx V15.1

Attenuation (dB): 40.000000
Min Freq (Hz): 50.000000
Max Freq (Hz): 99950.000000
Freq Step (Hz): 50.000000
Sample Rate (Hz): 200000.000000
[Smoothing]
Method=None
MA.Iterations=0
MA.Length=0
Loess.Length=0
Loess.Type=Linear
Loess.Robust=FALSE


Freq(Hz)	Mag(dB)	Phase(deg)	Unsmoothed(dB)

50.00000	90.60431	87.32496	90.60431
100.00000	63.80047	192.70298	63.80047
150.00000	66.95399	271.32903	66.95399
200.00000	60.41095	448.11169	60.41095
250.00000	59.21978	625.58318	59.21978
300.00000	67.16538	838.89339	67.16538
350.00000	62.98074	991.87631	62.98074
400.00000	59.88854	1081.44966	59.88854
450.00000	63.63511	1103.99213	63.63511
500.00000	62.38459	1217.45807	62.38459
550.00000	71.54087	1155.08482	71.54087
600.00000	68.62190	1131.94729	68.62190
650.00000	75.18256	1124.12819	75.18256
700.00000	74.69248	1122.25457	74.69248
750.00000	78.48664	1092.28258	78.48664
800.00000	79.40448	1086.35665	79.40448
850.00000	77.50240	1080.11731	77.50240
900.00000	78.27983	1090.17782	78.27983
950.00000	81.32934	1087.81607	81.32934
1000.00000	83.09382	1091.61937	83.09382
1050.00000	85.96292	1085.79470	85.96292
1100.00000	89.05781	1074.17736	89.05781
1150.00000	91.05159	1060.13190	91.05159
1200.00000	92.44377	1045.47936	92.44377
1250.00000	93.06152	1031.18393	93.06152
1300.00000	93.38211	1022.80298	93.38211
1350.00000	94.31902	1016.46110	94.31902
1400.00000	95.41070	1007.56179	95.41070
1450.00000	96.15078	995.95934	96.15078
1500.00000	96.59076	985.66627	96.59076
1550.00000	96.65123	975.70737	96.65123
1600.00000	97.05560	971.09971	97.05560
1650.00000	97.59887	968.20580	97.59887
1700.00000	101.47493	952.86927	101.47493
1750.00000	98.56936	932.87854	98.56936
1800.00000	98.34326	926.86601	98.34326
1850.00000	98.07720	918.66772	98.07720
1900.00000	97.84987	911.45595	97.84987
1950.00000	97.22905	906.13736	97.22905
2000.00000	96.70575	901.89897	96.70575
2050.00000	96.31028	901.62491	96.31028
2100.00000	97.09345	901.17833	97.09345
2150.00000	98.00894	892.96876	98.00894
2200.00000	97.99484	880.45508	97.99484
2250.00000	97.08098	872.46342	97.08098
2300.00000	96.45770	870.62269	96.45770
2350.00000	96.68134	866.05902	96.68134
2400.00000	96.68873	859.29434	96.68873
2450.00000	96.11019	851.21361	96.11019
2500.00000	95.19946	848.22901	95.19946
2550.00000	94.99457	845.26195	94.99457
2600.00000	94.68146	841.54700	94.68146
2650.00000	94.26592	838.31100	94.26592
2700.00000	93.89229	833.92612	93.89229
2750.00000	93.42814	830.80879	93.42814
2800.00000	92.99452	827.39317	92.99452
2850.00000	92.46406	824.72517	92.46406
2900.00000	91.99133	822.31400	91.99133
2950.00000	91.56256	820.49438	91.56256
3000.00000	91.04954	819.64399	91.04954
3050.00000	90.67176	818.83671	90.67176
3100.00000	90.39302	818.01147	90.39302
3150.00000	89.98657	817.32232	89.98657
3200.00000	89.82896	815.89597	89.82896
3250.00000	89.66805	814.48564	89.66805
3300.00000	89.35336	812.26127	89.35336
3350.00000	89.14114	811.21884	89.14114
3400.00000	88.67312	809.98710	88.67312
3450.00000	88.26434	808.94683	88.26434
3500.00000	87.85227	809.33351	87.85227
3550.00000	87.94114	807.81319	87.94114
3600.00000	87.37327	803.92989	87.37327
3650.00000	86.70623	802.61243	86.70623
3700.00000	85.76408	801.69915	85.76408
3750.00000	84.81321	799.16654	84.81321
3800.00000	83.83808	800.24248	83.83808
3850.00000	82.09881	797.57823	82.09881
3900.00000	80.03784	804.26130	80.03784
3950.00000	77.78020	822.08002	77.78020
4000.00000	76.88015	840.75050	76.88015
4050.00000	77.72878	872.49081	77.72878
4100.00000	80.66039	890.90592	80.66039
4150.00000	84.23967	896.68355	84.23967
4200.00000	86.83635	897.43455	86.83635
4250.00000	88.26831	889.57512	88.26831
4300.00000	89.47745	890.93067	89.47745
4350.00000	90.97238	890.62156	90.97238
4400.00000	92.47883	887.92472	92.47883
4450.00000	93.58454	883.18785	93.58454
4500.00000	94.63871	879.55797	94.63871
4550.00000	95.45828	876.36565	95.45828
4600.00000	96.41474	872.86189	96.41474
4650.00000	97.27916	869.41821	97.27916
4700.00000	98.01325	865.98450	98.01325
4750.00000	98.74683	863.40602	98.74683
4800.00000	99.64267	861.30259	99.64267
4850.00000	100.61748	858.46699	100.61748
4900.00000	101.64967	854.55421	101.64967
4950.00000	102.70255	850.65358	102.70255
5000.00000	103.80776	845.84904	103.80776
5050.00000	104.96428	840.58296	104.96428
5100.00000	106.23997	834.79767	106.23997
5150.00000	107.76270	827.91271	107.76270
5200.00000	109.69600	818.30844	109.69600
5250.00000	112.24102	801.86441	112.24102
5300.00000	114.57909	765.32786	114.57909
5350.00000	111.32743	716.43772	111.32743
5400.00000	104.67919	698.99357	104.67919
5450.00000	98.70599	710.15292	98.70599
5500.00000	96.91125	738.84574	96.91125
5550.00000	97.98684	747.55985	97.98684
5600.00000	96.75005	747.30765	96.75005
5650.00000	95.61501	765.35434	95.61501
5700.00000	97.15529	779.77339	97.15529
5750.00000	99.00577	784.25479	99.00577
5800.00000	100.47925	784.42673	100.47925
5850.00000	101.67564	782.50712	101.67564
5900.00000	102.68422	779.33913	102.68422
5950.00000	103.55957	775.70337	103.55957
6000.00000	104.29288	771.25912	104.29288
6050.00000	104.83474	766.31027	104.83474
6100.00000	105.17780	761.63367	105.17780
6150.00000	105.31391	757.85689	105.31391
6200.00000	105.45474	755.70666	105.45474
6250.00000	105.69688	754.60153	105.69688
6300.00000	106.13171	754.04582	106.13171
6350.00000	106.75709	753.36184	106.75709
6400.00000	107.53934	752.16421	107.53934
6450.00000	108.43933	750.03069	108.43933
6500.00000	109.38619	746.89569	109.38619
6550.00000	110.37570	742.79356	110.37570
6600.00000	111.34835	737.77432	111.34835
6650.00000	112.30198	731.92790	112.30198
6700.00000	113.24590	725.07816	113.24590
6750.00000	114.13493	717.08541	114.13493
6800.00000	114.90909	707.98985	114.90909
6850.00000	115.52452	697.97439	115.52452
6900.00000	115.93612	687.18075	115.93612
6950.00000	116.09959	676.15841	116.09959
7000.00000	116.01567	665.45304	116.01567
7050.00000	115.75613	655.66686	115.75613
7100.00000	115.37915	646.84848	115.37915
7150.00000	114.94582	638.89719	114.94582
7200.00000	114.47595	631.66182	114.47595
7250.00000	113.98560	625.20788	113.98560
7300.00000	113.50409	619.43123	113.50409
7350.00000	113.05799	614.14630	113.05799
7400.00000	112.65532	609.31661	112.65532
7450.00000	112.31027	604.45446	112.31027
7500.00000	111.95547	599.46646	111.95547
7550.00000	111.56336	594.38929	111.56336
7600.00000	111.12048	589.79937	111.12048
7650.00000	110.69132	585.42274	110.69132
7700.00000	110.24598	581.46207	110.24598
7750.00000	109.81352	577.78033	109.81352
7800.00000	109.38298	574.33264	109.38298
7850.00000	108.98795	571.28167	108.98795
7900.00000	108.60316	568.34667	108.60316
7950.00000	108.25579	565.69894	108.25579
8000.00000	107.94759	563.18962	107.94759
8050.00000	107.64188	560.74640	107.64188
8100.00000	107.38750	558.45815	107.38750
8150.00000	107.14749	556.18677	107.14749
8200.00000	106.96025	553.78976	106.96025
8250.00000	106.79234	551.37456	106.79234
8300.00000	106.64063	548.84968	106.64063
8350.00000	106.45754	546.45354	106.45754
8400.00000	106.33322	544.08748	106.33322
8450.00000	106.21852	541.60585	106.21852
8500.00000	106.12962	539.01352	106.12962
8550.00000	106.04230	536.34729	106.04230
8600.00000	105.95895	533.60689	105.95895
8650.00000	105.90813	530.75502	105.90813
8700.00000	105.81315	527.58093	105.81315
8750.00000	105.73045	524.59253	105.73045
8800.00000	105.64373	521.42111	105.64373
8850.00000	105.58093	518.10273	105.58093
8900.00000	105.47333	514.67413	105.47333
8950.00000	105.36877	511.18692	105.36877
9000.00000	105.18109	507.71650	105.18109
9050.00000	105.06856	504.46615	105.06856
9100.00000	104.94618	501.10204	104.94618
9150.00000	104.82154	497.19182	104.82154
9200.00000	104.57999	493.72379	104.57999
9250.00000	104.35544	490.58060	104.35544
9300.00000	104.18660	486.86532	104.18660
9350.00000	103.92842	483.48343	103.92842
9400.00000	103.64829	480.01088	103.64829
9450.00000	103.38494	476.84860	103.38494
9500.00000	103.07645	473.86466	103.07645
9550.00000	102.78073	471.19433	102.78073
9600.00000	102.55629	468.63213	102.55629
9650.00000	102.32343	465.82796	102.32343
9700.00000	102.02648	463.03222	102.02648
9750.00000	101.73388	460.52625	101.73388
9800.00000	101.42279	458.22865	101.42279
9850.00000	101.08620	455.75325	101.08620
9900.00000	100.76363	454.09313	100.76363
9950.00000	100.32461	452.55818	100.32461
10000.00000	99.90462	452.74137	99.90462
10050.00000	99.74580	455.35428	99.74580
10100.00000	100.40938	456.29947	100.40938
10150.00000	100.87618	451.76487	100.87618
10200.00000	100.88186	447.00620	100.88186
10250.00000	100.74150	443.37521	100.74150
10300.00000	100.61494	440.38624	100.61494
10350.00000	100.46924	437.64769	100.46924
10400.00000	100.30714	434.98174	100.30714
10450.00000	100.19686	432.38458	100.19686
10500.00000	100.13855	429.89575	100.13855
10550.00000	100.08854	427.45457	100.08854
10600.00000	100.10291	424.40886	100.10291
10650.00000	100.04560	421.51157	100.04560
10700.00000	100.05156	418.40926	100.05156
10750.00000	100.04633	415.48922	100.04633
10800.00000	100.06753	411.84834	100.06753
10850.00000	100.08374	408.31762	100.08374
10900.00000	100.05980	404.58872	100.05980
10950.00000	100.02983	400.63003	100.02983
11000.00000	100.04251	396.38928	100.04251
11050.00000	99.90225	392.27560	99.90225
11100.00000	99.85790	388.02693	99.85790
11150.00000	99.74130	383.42311	99.74130
11200.00000	99.62003	378.78819	99.62003
11250.00000	99.37550	373.74515	99.37550
11300.00000	99.13733	369.14861	99.13733
11350.00000	98.86608	363.93812	98.86608
11400.00000	98.52918	359.12649	98.52918
11450.00000	98.17868	354.00674	98.17868
11500.00000	97.76235	349.03579	97.76235
11550.00000	97.32035	344.03481	97.32035
11600.00000	96.80532	339.38765	96.80532
11650.00000	96.30668	334.80269	96.30668
11700.00000	95.81195	330.22406	95.81195
11750.00000	95.24885	325.89703	95.24885
11800.00000	94.69621	322.09420	94.69621
11850.00000	94.16837	318.22057	94.16837
11900.00000	93.57937	314.88435	93.57937
11950.00000	93.04785	311.44260	93.04785
12000.00000	92.55113	308.34242	92.55113
12050.00000	91.92303	305.60624	91.92303
12100.00000	91.27679	302.52440	91.27679
12150.00000	90.64497	299.96275	90.64497
12200.00000	90.08670	297.03118	90.08670
12250.00000	89.43527	295.03594	89.43527
12300.00000	88.59699	292.26077	88.59699
12350.00000	87.94243	290.59054	87.94243
12400.00000	87.22444	288.05059	87.22444
12450.00000	86.62914	285.84982	86.62914
12500.00000	86.03436	283.44682	86.03436
12550.00000	85.25757	282.42688	85.25757
12600.00000	84.65520	279.60408	84.65520
12650.00000	84.05904	277.75042	84.05904
12700.00000	83.31661	275.83849	83.31661
12750.00000	82.77393	274.19880	82.77393
12800.00000	82.25649	271.80208	82.25649
12850.00000	81.49424	269.26926	81.49424
12900.00000	80.97333	265.23572	80.97333
12950.00000	80.52542	263.43442	80.52542
13000.00000	79.90857	260.97527	79.90857
13050.00000	79.42103	256.17326	79.42103
13100.00000	79.29636	251.51457	79.29636
13150.00000	78.88666	246.89573	78.88666
13200.00000	78.69869	239.98746	78.69869
13250.00000	79.07370	232.38985	79.07370
13300.00000	79.50999	227.63766	79.50999
13350.00000	80.44641	225.68574	80.44641
13400.00000	81.24478	221.38445	81.24478
13450.00000	81.42887	228.50053	81.42887
13500.00000	81.52239	237.08418	81.52239
13550.00000	80.34529	237.67834	80.34529
13600.00000	79.34281	238.08392	79.34281
13650.00000	77.97637	231.98613	77.97637
13700.00000	77.23010	221.76690	77.23010
13750.00000	76.59938	211.05898	76.59938
13800.00000	77.00698	197.68801	77.00698
13850.00000	77.25888	187.67718	77.25888
13900.00000	77.84143	173.60959	77.84143
13950.00000	79.36642	161.93314	79.36642
14000.00000	81.27060	154.85771	81.27060
14050.00000	83.25011	147.81244	83.25011
14100.00000	85.84020	146.04528	85.84020
14150.00000	87.95025	153.55535	87.95025
14200.00000	88.40847	163.58708	88.40847
14250.00000	87.72362	170.18165	87.72362
14300.00000	86.69789	171.97723	86.69789
14350.00000	86.10784	168.63292	86.10784
14400.00000	85.80353	162.86634	85.80353
14450.00000	85.52283	155.98315	85.52283
14500.00000	85.62234	150.50179	85.62234
14550.00000	86.25561	141.77496	86.25561
14600.00000	86.74875	135.20548	86.74875
14650.00000	87.46950	128.31616	87.46950
14700.00000	88.36448	120.77508	88.36448
14750.00000	89.63356	114.66573	89.63356
14800.00000	90.68239	110.66037	90.68239
14850.00000	92.01458	107.81723	92.01458
14900.00000	93.37169	107.32891	93.37169
14950.00000	94.36969	108.48384	94.36969
15000.00000	94.89853	109.66796	94.89853
15050.00000	95.18646	111.08204	95.18646
15100.00000	95.27092	110.49106	95.27092
15150.00000	95.24015	107.41919	95.24015
15200.00000	95.27133	103.34864	95.27133
15250.00000	95.33863	98.50141	95.33863
15300.00000	95.49467	93.96219	95.49467
15350.00000	95.88041	88.25688	95.88041
15400.00000	96.35120	82.06416	96.35120
15450.00000	96.93029	76.31249	96.93029
15500.00000	97.68254	71.09156	97.68254
15550.00000	98.40547	66.83787	98.40547
15600.00000	99.19446	63.63125	99.19446
15650.00000	99.95973	60.90147	99.95973
15700.00000	100.41430	59.24571	100.41430
15750.00000	100.97625	57.22990	100.97625
15800.00000	101.34296	55.67989	101.34296
15850.00000	101.71253	53.24008	101.71253
15900.00000	101.83271	49.48799	101.83271
15950.00000	102.03994	44.99430	102.03994
16000.00000	102.26444	40.14505	102.26444
16050.00000	102.60497	34.76395	102.60497
16100.00000	102.89010	29.38829	102.89010
16150.00000	103.26130	23.60914	103.26130
16200.00000	103.69688	18.75150	103.69688
16250.00000	104.10203	12.90917	104.10203
16300.00000	104.53409	 8.17850	104.53409
16350.00000	104.91560	 3.61111	104.91560
16400.00000	105.21217	-0.13666	105.21217
16450.00000	105.49904	-3.94739	105.49904
16500.00000	105.63187	-8.07641	105.63187
16550.00000	105.72091	-11.78123	105.72091
16600.00000	105.81336	-16.29767	105.81336
16650.00000	105.81502	-20.75207	105.81502
16700.00000	105.86367	-25.75360	105.86367
16750.00000	105.87895	-30.33441	105.87895
16800.00000	105.90862	-34.77597	105.90862
16850.00000	106.04594	-39.83025	106.04594
16900.00000	106.15749	-43.81319	106.15749
16950.00000	106.23373	-47.92781	106.23373
17000.00000	106.31477	-51.66236	106.31477
17050.00000	106.39706	-55.15942	106.39706
17100.00000	106.45873	-58.50766	106.45873
17150.00000	106.49032	-61.85258	106.49032
17200.00000	106.42414	-65.16195	106.42414
17250.00000	106.42878	-68.81043	106.42878
17300.00000	106.42545	-72.24463	106.42545
17350.00000	106.40273	-75.94600	106.40273
17400.00000	106.43590	-79.88445	106.43590
17450.00000	106.45783	-83.49027	106.45783
17500.00000	106.46339	-86.94256	106.46339
17550.00000	106.52223	-90.59372	106.52223
17600.00000	106.59172	-93.74030	106.59172
17650.00000	106.65871	-96.87806	106.65871
17700.00000	106.72723	-100.08258	106.72723
17750.00000	106.75701	-103.09456	106.75701
17800.00000	106.77652	-106.19077	106.77652
17850.00000	106.82516	-109.23352	106.82516
17900.00000	106.84076	-112.38090	106.84076
17950.00000	106.86618	-115.72312	106.86618
18000.00000	106.89641	-118.96113	106.89641
18050.00000	106.91459	-122.39761	106.91459
18100.00000	106.93095	-125.80923	106.93095
18150.00000	106.97355	-129.14927	106.97355
18200.00000	106.99350	-132.50364	106.99350
18250.00000	107.01401	-135.93711	107.01401
18300.00000	107.01610	-139.35139	107.01610
18350.00000	107.02606	-142.80659	107.02606
18400.00000	107.00785	-146.14576	107.00785
18450.00000	107.01365	-149.44256	107.01365
18500.00000	106.99565	-152.59112	106.99565
18550.00000	106.98626	-156.05378	106.98626
18600.00000	106.94168	-159.32325	106.94168
18650.00000	106.95571	-162.57694	106.95571
18700.00000	106.91924	-165.68341	106.91924
18750.00000	106.88231	-168.84728	106.88231
18800.00000	106.82546	-172.14958	106.82546
18850.00000	106.79108	-174.95506	106.79108
18900.00000	106.67401	-178.06723	106.67401
18950.00000	106.62211	-181.24089	106.62211
19000.00000	106.54005	-184.28203	106.54005
19050.00000	106.48140	-187.24362	106.48140
19100.00000	106.42422	-190.25733	106.42422
19150.00000	106.37556	-192.92368	106.37556
19200.00000	106.32722	-195.98322	106.32722
19250.00000	106.25870	-198.43305	106.25870
19300.00000	106.22060	-201.12577	106.22060
19350.00000	106.19062	-203.97011	106.19062
19400.00000	106.11587	-206.56442	106.11587
19450.00000	106.05638	-209.54539	106.05638
19500.00000	106.03623	-211.99323	106.03623
19550.00000	106.00092	-214.79919	106.00092
19600.00000	105.94666	-217.59154	105.94666
19650.00000	105.89833	-220.30932	105.89833
19700.00000	105.86322	-223.15854	105.86322
19750.00000	105.82346	-225.67702	105.82346
19800.00000	105.79607	-228.14786	105.79607
19850.00000	105.73618	-230.96073	105.73618
19900.00000	105.70018	-233.66597	105.70018
19950.00000	105.64291	-236.17152	105.64291
20000.00000	105.60052	-239.04493	105.60052
20050.00000	105.54174	-241.52296	105.54174
20100.00000	105.49824	-243.99773	105.49824
20150.00000	105.45955	-246.80971	105.45955
20200.00000	105.43969	-249.35363	105.43969
20250.00000	105.40842	-251.54841	105.40842
20300.00000	105.37824	-254.15931	105.37824
20350.00000	105.36416	-256.60213	105.36416
20400.00000	105.33702	-259.04392	105.33702
20450.00000	105.33067	-261.49825	105.33067
20500.00000	105.32606	-264.32601	105.32606
20550.00000	105.28178	-266.88465	105.28178
20600.00000	105.26658	-269.51002	105.26658
20650.00000	105.28313	-272.31737	105.28313
20700.00000	105.27707	-274.75372	105.27707
20750.00000	105.22921	-277.41480	105.22921
20800.00000	105.22780	-280.07125	105.22780
20850.00000	105.20813	-282.98072	105.20813
20900.00000	105.17698	-285.56063	105.17698
20950.00000	105.14603	-288.26166	105.14603
21000.00000	105.14418	-291.28224	105.14418
21050.00000	105.10193	-294.04016	105.10193
21100.00000	105.09360	-296.84280	105.09360
21150.00000	105.05802	-299.33357	105.05802
21200.00000	105.04371	-301.92087	105.04371
21250.00000	104.99527	-304.71059	104.99527
21300.00000	104.95203	-307.74052	104.95203
21350.00000	104.90258	-310.49491	104.90258
21400.00000	104.84277	-313.46419	104.84277
21450.00000	104.83689	-316.27082	104.83689
21500.00000	104.84565	-319.00382	104.84565
21550.00000	104.79225	-321.73333	104.79225
21600.00000	104.74147	-324.76712	104.74147
21650.00000	104.71189	-327.39102	104.71189
21700.00000	104.60638	-330.62034	104.60638
21750.00000	104.60016	-333.73599	104.60016
21800.00000	104.50141	-336.62325	104.50141
21850.00000	104.46044	-339.44107	104.46044
21900.00000	104.36607	-342.35069	104.36607
21950.00000	104.28979	-345.49892	104.28979
22000.00000	104.14529	-348.18460	104.14529
22050.00000	104.04517	-350.93019	104.04517
22100.00000	103.93729	-353.39750	103.93729
22150.00000	103.87213	-356.11343	103.87213
22200.00000	103.77391	-359.16395	103.77391
22250.00000	103.71538	-361.60261	103.71538
22300.00000	103.60946	-364.72647	103.60946
22350.00000	103.50747	-367.53386	103.50747
22400.00000	103.40200	-370.76968	103.40200
22450.00000	103.25674	-373.70769	103.25674
22500.00000	103.12081	-376.47140	103.12081
22550.00000	102.99259	-379.35799	102.99259
22600.00000	102.82911	-382.08884	102.82911
22650.00000	102.66749	-384.57080	102.66749
22700.00000	102.47223	-387.12464	102.47223
22750.00000	102.35949	-389.82309	102.35949
22800.00000	102.16004	-392.16840	102.16004
22850.00000	102.01924	-394.73324	102.01924
22900.00000	101.87136	-396.91319	101.87136
22950.00000	101.73495	-399.18846	101.73495
23000.00000	101.54079	-401.52502	101.54079
23050.00000	101.39372	-403.70032	101.39372
23100.00000	101.25291	-405.73665	101.25291
23150.00000	101.05393	-408.23248	101.05393
23200.00000	100.92011	-410.79987	100.92011
23250.00000	100.83910	-412.85799	100.83910
23300.00000	100.75066	-415.25514	100.75066
23350.00000	100.56105	-416.77870	100.56105
23400.00000	100.42146	-418.71705	100.42146
23450.00000	100.31941	-420.66542	100.31941
23500.00000	100.24357	-422.62397	100.24357
23550.00000	100.08340	-424.83943	100.08340
23600.00000	100.02553	-426.82493	100.02553
23650.00000	99.86905	-428.80375	99.86905
23700.00000	99.85321	-430.53014	99.85321
23750.00000	99.76231	-432.84201	99.76231
23800.00000	99.67618	-434.90263	99.67618
23850.00000	99.63387	-437.28938	99.63387
23900.00000	99.57622	-439.40711	99.57622
23950.00000	99.45191	-441.57429	99.45191
24000.00000	99.42012	-444.02590	99.42012
24050.00000	99.26439	-446.62482	99.26439
24100.00000	99.25480	-448.42293	99.25480
24150.00000	99.14030	-450.43743	99.14030
24200.00000	99.11137	-453.52305	99.11137
24250.00000	99.00864	-455.33983	99.00864
24300.00000	98.96123	-458.25830	98.96123
24350.00000	98.84293	-460.64824	98.84293
24400.00000	98.79494	-463.34811	98.79494
24450.00000	98.68279	-465.56267	98.68279
24500.00000	98.47800	-469.11466	98.47800
24550.00000	98.40010	-471.90300	98.40010
24600.00000	98.23343	-474.67826	98.23343
24650.00000	98.11887	-477.67415	98.11887
24700.00000	97.93266	-480.51317	97.93266
24750.00000	97.78502	-483.05449	97.78502
24800.00000	97.57752	-485.22034	97.57752
24850.00000	97.43548	-487.89623	97.43548
24900.00000	97.19663	-490.36388	97.19663
24950.00000	97.03811	-492.59692	97.03811
25000.00000	96.76991	-495.66465	96.76991
25050.00000	96.51258	-497.31720	96.51258
25100.00000	96.34495	-499.16079	96.34495
25150.00000	95.98973	-501.25718	95.98973
25200.00000	95.78326	-503.22371	95.78326
25250.00000	95.48285	-505.56741	95.48285
25300.00000	95.17716	-507.65742	95.17716
25350.00000	95.04513	-509.53424	95.04513
25400.00000	94.78107	-511.33614	94.78107
25450.00000	94.64687	-513.72456	94.64687
25500.00000	94.33399	-515.07762	94.33399
25550.00000	94.07594	-516.59419	94.07594
25600.00000	93.87721	-517.59876	93.87721
25650.00000	93.62903	-519.95288	93.62903
25700.00000	93.47838	-520.97289	93.47838
25750.00000	93.31372	-523.04825	93.31372
25800.00000	93.10174	-523.98145	93.10174
25850.00000	93.02427	-525.63219	93.02427
25900.00000	92.72552	-527.47592	92.72552
25950.00000	92.58821	-528.77447	92.58821
26000.00000	92.36707	-530.34813	92.36707
26050.00000	92.22558	-531.95456	92.22558
26100.00000	92.06116	-532.94313	92.06116
26150.00000	91.82788	-535.66338	91.82788
26200.00000	91.60338	-536.72017	91.60338
26250.00000	91.49392	-538.28265	91.49392
26300.00000	91.12603	-540.09189	91.12603
26350.00000	91.00816	-541.48208	91.00816
26400.00000	90.91225	-543.99393	90.91225
26450.00000	90.59756	-545.84285	90.59756
26500.00000	90.29990	-547.18915	90.29990
26550.00000	90.11056	-548.27785	90.11056
26600.00000	89.91364	-549.34338	89.91364
26650.00000	89.68923	-551.09472	89.68923
26700.00000	89.41358	-552.63263	89.41358
26750.00000	89.04278	-554.10420	89.04278
26800.00000	88.88654	-555.46313	88.88654
26850.00000	88.55731	-556.01051	88.55731
26900.00000	88.27549	-557.57912	88.27549
26950.00000	87.93947	-558.12774	87.93947
27000.00000	87.53180	-559.67597	87.53180
27050.00000	87.30302	-559.92572	87.30302
27100.00000	87.05300	-559.95405	87.05300
27150.00000	86.78038	-560.69614	86.78038
27200.00000	86.48306	-560.54332	86.48306
27250.00000	86.24295	-560.99046	86.24295
27300.00000	86.04946	-561.34573	86.04946
27350.00000	85.61646	-560.81655	85.61646
27400.00000	85.39051	-560.34965	85.39051
27450.00000	85.31740	-560.62883	85.31740
27500.00000	85.11061	-560.42542	85.11061
27550.00000	84.89643	-559.98017	84.89643
27600.00000	84.82500	-560.41228	84.82500
27650.00000	84.57788	-558.77552	84.57788
27700.00000	84.47716	-559.10067	84.47716
27750.00000	84.31952	-558.93625	84.31952
27800.00000	84.23618	-557.93164	84.23618
27850.00000	84.12255	-557.63494	84.12255
27900.00000	84.10498	-557.16230	84.10498
27950.00000	84.01783	-555.91404	84.01783
28000.00000	84.10661	-556.21672	84.10661
28050.00000	83.98339	-554.85891	83.98339
28100.00000	83.82417	-554.00287	83.82417
28150.00000	83.88894	-553.32243	83.88894
28200.00000	84.01149	-553.19540	84.01149
28250.00000	83.87872	-552.90848	83.87872
28300.00000	83.89747	-552.80416	83.89747
28350.00000	84.05952	-551.44212	84.05952
28400.00000	84.06749	-551.44610	84.06749
28450.00000	84.06155	-550.62877	84.06155
28500.00000	84.19533	-550.77729	84.19533
28550.00000	84.31336	-550.19866	84.31336
28600.00000	84.50665	-550.91054	84.50665
28650.00000	84.45492	-549.90241	84.45492
28700.00000	84.72892	-549.99832	84.72892
28750.00000	84.72253	-549.32084	84.72253
28800.00000	84.76166	-549.94601	84.76166
28850.00000	85.02646	-549.29841	85.02646
28900.00000	85.05245	-549.78265	85.05245
28950.00000	85.27529	-549.01705	85.27529
29000.00000	85.38902	-549.31408	85.38902
29050.00000	85.62331	-549.27241	85.62331
29100.00000	85.73097	-549.06542	85.73097
29150.00000	85.98089	-549.26677	85.98089
29200.00000	86.33672	-549.23702	86.33672
29250.00000	86.43996	-549.67714	86.43996
29300.00000	86.55663	-549.43599	86.55663
29350.00000	86.80152	-550.29640	86.80152
29400.00000	87.02839	-550.77736	87.02839
29450.00000	87.20620	-550.95181	87.20620
29500.00000	87.43455	-552.50697	87.43455
29550.00000	87.70993	-552.62443	87.70993
29600.00000	87.94132	-553.12779	87.94132
29650.00000	88.16816	-553.73405	88.16816
29700.00000	88.33962	-554.85572	88.33962
29750.00000	88.59389	-556.10412	88.59389
29800.00000	88.75659	-556.39733	88.75659
29850.00000	89.10838	-557.67760	89.10838
29900.00000	89.35496	-558.58750	89.35496
29950.00000	89.48908	-559.55765	89.48908
30000.00000	89.73268	-560.41520	89.73268
30050.00000	90.02545	-561.06391	90.02545
30100.00000	90.20448	-562.49160	90.20448
30150.00000	90.39627	-563.32965	90.39627
30200.00000	90.65523	-564.42859	90.65523
30250.00000	90.91854	-565.81415	90.91854
30300.00000	91.14521	-567.57740	91.14521
30350.00000	91.44263	-568.95526	91.44263
30400.00000	91.64876	-570.51384	91.64876
30450.00000	91.90394	-571.63481	91.90394
30500.00000	92.15340	-573.10372	92.15340
30550.00000	92.36328	-574.49689	92.36328
30600.00000	92.58583	-576.20905	92.58583
30650.00000	92.83135	-577.40625	92.83135
30700.00000	93.09755	-578.68397	93.09755
30750.00000	93.30230	-580.76215	93.30230
30800.00000	93.40110	-582.68836	93.40110
30850.00000	93.70699	-584.09302	93.70699
30900.00000	93.96939	-586.12460	93.96939
30950.00000	94.13080	-587.62337	94.13080
31000.00000	94.39107	-589.81084	94.39107
31050.00000	94.60801	-591.37044	94.60801
31100.00000	94.82057	-593.54002	94.82057
31150.00000	94.95922	-595.27377	94.95922
31200.00000	95.18261	-597.38466	95.18261
31250.00000	95.42290	-599.35393	95.42290
31300.00000	95.59959	-601.42088	95.59959
31350.00000	95.82842	-603.42693	95.82842
31400.00000	96.00270	-605.28760	96.00270
31450.00000	96.15412	-607.35525	96.15412
31500.00000	96.32434	-609.83773	96.32434
31550.00000	96.51957	-611.85438	96.51957
31600.00000	96.67853	-614.17176	96.67853
31650.00000	96.85285	-616.40275	96.85285
31700.00000	96.95995	-618.47938	96.95995
31750.00000	97.16979	-620.63028	97.16979
31800.00000	97.22461	-623.10563	97.22461
31850.00000	97.36456	-624.93469	97.36456
31900.00000	97.52107	-627.60161	97.52107
31950.00000	97.61813	-629.88782	97.61813
32000.00000	97.69136	-631.94844	97.69136
32050.00000	97.84042	-634.20018	97.84042
32100.00000	97.93773	-636.38364	97.93773
32150.00000	98.01053	-638.60666	98.01053
32200.00000	98.08141	-640.73317	98.08141
32250.00000	98.15776	-642.59142	98.15776
32300.00000	98.19598	-644.79900	98.19598
32350.00000	98.26235	-646.92635	98.26235
32400.00000	98.34982	-648.72719	98.34982
32450.00000	98.41903	-650.67897	98.41903
32500.00000	98.47576	-652.82990	98.47576
32550.00000	98.48808	-654.35686	98.48808
32600.00000	98.58844	-656.28326	98.58844
32650.00000	98.67953	-657.85642	98.67953
32700.00000	98.73503	-659.72164	98.73503
32750.00000	98.78696	-661.43646	98.78696
32800.00000	98.85546	-662.99321	98.85546
32850.00000	98.95173	-664.51496	98.95173
32900.00000	99.00032	-665.94867	99.00032
32950.00000	99.10723	-667.46877	99.10723
33000.00000	99.20812	-669.23181	99.20812
33050.00000	99.23103	-670.64429	99.23103
33100.00000	99.42920	-672.10946	99.42920
33150.00000	99.48597	-673.31275	99.48597
33200.00000	99.59198	-674.64744	99.59198
33250.00000	99.67642	-676.10250	99.67642
33300.00000	99.81596	-677.39442	99.81596
33350.00000	99.92447	-679.15859	99.92447
33400.00000	100.07237	-680.47860	100.07237
33450.00000	100.19154	-681.91477	100.19154
33500.00000	100.33450	-683.25080	100.33450
33550.00000	100.50132	-684.69451	100.50132
33600.00000	100.64506	-686.01823	100.64506
33650.00000	100.80563	-687.44203	100.80563
33700.00000	100.98876	-688.99818	100.98876
33750.00000	101.15408	-690.50634	101.15408
33800.00000	101.32732	-692.17983	101.32732
33850.00000	101.48960	-693.66637	101.48960
33900.00000	101.62851	-695.24447	101.62851
33950.00000	101.81192	-696.82195	101.81192
34000.00000	101.96195	-698.03519	101.96195
34050.00000	102.14707	-699.15925	102.14707
34100.00000	102.31500	-700.73784	102.31500
34150.00000	102.52869	-702.37970	102.52869
34200.00000	102.73710	-703.65635	102.73710
34250.00000	102.94628	-705.13242	102.94628
34300.00000	103.14793	-706.71082	103.14793
34350.00000	103.38752	-708.03991	103.38752
34400.00000	103.62672	-709.96588	103.62672
34450.00000	103.85809	-711.43986	103.85809
34500.00000	104.10693	-713.18124	104.10693
34550.00000	104.37710	-715.16891	104.37710
34600.00000	104.62162	-717.07295	104.62162
34650.00000	104.81723	-719.32117	104.81723
34700.00000	104.92685	-720.83375	104.92685
34750.00000	105.12036	-722.12882	105.12036
34800.00000	105.38322	-723.28415	105.38322
34850.00000	105.67997	-724.69356	105.67997
34900.00000	106.02242	-726.19588	106.02242
34950.00000	106.35071	-727.78970	106.35071
35000.00000	106.68522	-729.43387	106.68522
35050.00000	107.05941	-731.42695	107.05941
35100.00000	107.40585	-733.52132	107.40585
35150.00000	107.77401	-735.66146	107.77401
35200.00000	108.18385	-738.03264	108.18385
35250.00000	108.55114	-740.38220	108.55114
35300.00000	108.89349	-743.13671	108.89349
35350.00000	109.24681	-745.75547	109.24681
35400.00000	109.63623	-748.64866	109.63623
35450.00000	109.98776	-751.60031	109.98776
35500.00000	110.33325	-754.57108	110.33325
35550.00000	110.70053	-757.85312	110.70053
35600.00000	111.04140	-761.22584	111.04140
35650.00000	111.37047	-764.66079	111.37047
35700.00000	111.67675	-768.33652	111.67675
35750.00000	111.95954	-771.84597	111.95954
35800.00000	112.26584	-775.65182	112.26584
35850.00000	112.53658	-779.49098	112.53658
35900.00000	112.78741	-783.40015	112.78741
35950.00000	113.02333	-787.30859	113.02333
36000.00000	113.24799	-791.37821	113.24799
36050.00000	113.42631	-795.49180	113.42631
36100.00000	113.59794	-799.65667	113.59794
36150.00000	113.74139	-803.75443	113.74139
36200.00000	113.86579	-807.92036	113.86579
36250.00000	113.95791	-812.02019	113.95791
36300.00000	114.04374	-816.12693	114.04374
36350.00000	114.10589	-820.19113	114.10589
36400.00000	114.14673	-824.10596	114.14673
36450.00000	114.16429	-827.99617	114.16429
36500.00000	114.16802	-831.84980	114.16802
36550.00000	114.16190	-835.59254	114.16190
36600.00000	114.13458	-839.17266	114.13458
36650.00000	114.10336	-842.67229	114.10336
36700.00000	114.05823	-846.06954	114.05823
36750.00000	114.00708	-849.35667	114.00708
36800.00000	113.94722	-852.53919	113.94722
36850.00000	113.88679	-855.51074	113.88679
36900.00000	113.82359	-858.43742	113.82359
36950.00000	113.75217	-861.15618	113.75217
37000.00000	113.69188	-863.82752	113.69188
37050.00000	113.63157	-866.24592	113.63157
37100.00000	113.56963	-868.75732	113.56963
37150.00000	113.52134	-871.01057	113.52134
37200.00000	113.48327	-872.96392	113.48327
37250.00000	113.46101	-874.96088	113.46101
37300.00000	113.44547	-876.92911	113.44547
37350.00000	113.46661	-878.67582	113.46661
37400.00000	113.48422	-880.48703	113.48422
37450.00000	113.52439	-882.02379	113.52439
37500.00000	113.59278	-883.42422	113.59278
37550.00000	113.68258	-885.02467	113.68258
37600.00000	113.81617	-886.46756	113.81617
37650.00000	113.96210	-887.93945	113.96210
37700.00000	114.14892	-889.27489	114.14892
37750.00000	114.38272	-890.76326	114.38272
37800.00000	114.65265	-892.36264	114.65265
37850.00000	114.96490	-893.94482	114.96490
37900.00000	115.29651	-895.89908	115.29651
37950.00000	115.65997	-898.12469	115.65997
38000.00000	116.05511	-900.54673	116.05511
38050.00000	116.45294	-903.44364	116.45294
38100.00000	116.83021	-906.50880	116.83021
38150.00000	117.21306	-909.92942	117.21306
38200.00000	117.57959	-913.61697	117.57959
38250.00000	117.92110	-917.54177	117.92110
38300.00000	118.24592	-921.69733	118.24592
38350.00000	118.53434	-926.05115	118.53434
38400.00000	118.79233	-930.46549	118.79233
38450.00000	119.02809	-934.97909	119.02809
38500.00000	119.22498	-939.56487	119.22498
38550.00000	119.39573	-944.23872	119.39573
38600.00000	119.52869	-948.82309	119.52869
38650.00000	119.63861	-953.49666	119.63861
38700.00000	119.73991	-958.06140	119.73991
38750.00000	119.81002	-962.55875	119.81002
38800.00000	119.85130	-967.08132	119.85130
38850.00000	119.90788	-971.54905	119.90788
38900.00000	119.91617	-975.93689	119.91617
38950.00000	119.92908	-980.24278	119.92908
39000.00000	119.93450	-984.54662	119.93450
39050.00000	119.92965	-988.84216	119.92965
39100.00000	119.90373	-993.02507	119.90373
39150.00000	119.86247	-997.17413	119.86247
39200.00000	119.82239	-1001.30071	119.82239
39250.00000	119.77631	-1005.31364	119.77631
39300.00000	119.72962	-1009.13187	119.72962
39350.00000	119.67805	-1013.00761	119.67805
39400.00000	119.64119	-1016.91436	119.64119
39450.00000	119.61258	-1020.70831	119.61258
39500.00000	119.57730	-1024.56747	119.57730
39550.00000	119.54638	-1028.50968	119.54638
39600.00000	119.49660	-1032.49592	119.49660
39650.00000	119.43796	-1036.51409	119.43796
39700.00000	119.37988	-1040.61370	119.37988
39750.00000	119.29734	-1044.63462	119.29734
39800.00000	119.19922	-1048.66147	119.19922
39850.00000	119.08699	-1052.68466	119.08699
39900.00000	118.95801	-1056.64693	118.95801
39950.00000	118.82341	-1060.54753	118.82341
40000.00000	118.68063	-1064.47103	118.68063
40050.00000	118.51743	-1068.31220	118.51743
40100.00000	118.35130	-1072.09618	118.35130
40150.00000	118.17034	-1075.82459	118.17034
40200.00000	117.97197	-1079.60891	117.97197
40250.00000	117.77970	-1083.16571	117.77970
40300.00000	117.55745	-1086.65102	117.55745
40350.00000	117.33665	-1090.01959	117.33665
40400.00000	117.10074	-1093.31302	117.10074
40450.00000	116.85806	-1096.51335	116.85806
40500.00000	116.61726	-1099.49798	116.61726
40550.00000	116.37842	-1102.46769	116.37842
40600.00000	116.12212	-1105.18749	116.12212
40650.00000	115.87098	-1107.86729	115.87098
40700.00000	115.62103	-1110.41859	115.62103
40750.00000	115.38748	-1112.79659	115.38748
40800.00000	115.17034	-1115.00831	115.17034
40850.00000	114.97039	-1117.23235	114.97039
40900.00000	114.79188	-1119.22225	114.79188
40950.00000	114.58842	-1121.25663	114.58842
41000.00000	114.45067	-1123.18978	114.45067
41050.00000	114.30049	-1125.09592	114.30049
41100.00000	114.19294	-1126.97295	114.19294
41150.00000	114.09263	-1128.79558	114.09263
41200.00000	114.02024	-1130.74366	114.02024
41250.00000	113.96923	-1132.69169	113.96923
41300.00000	113.93233	-1134.77833	113.93233
41350.00000	113.90076	-1137.00092	113.90076
41400.00000	113.85879	-1139.19145	113.85879
41450.00000	113.84214	-1141.63246	113.84214
41500.00000	113.80655	-1143.96556	113.80655
41550.00000	113.78047	-1146.40417	113.78047
41600.00000	113.75026	-1149.15783	113.75026
41650.00000	113.70984	-1151.85159	113.70984
41700.00000	113.66579	-1154.59343	113.66579
41750.00000	113.60203	-1157.33553	113.60203
41800.00000	113.51698	-1160.32015	113.51698
41850.00000	113.42932	-1163.46537	113.42932
41900.00000	113.32660	-1166.28763	113.32660
41950.00000	113.21426	-1169.05166	113.21426
42000.00000	113.10058	-1171.96037	113.10058
42050.00000	112.97445	-1174.85943	112.97445
42100.00000	112.80516	-1177.70485	112.80516
42150.00000	112.63548	-1180.41972	112.63548
42200.00000	112.46311	-1183.12897	112.46311
42250.00000	112.28414	-1185.48559	112.28414
42300.00000	112.10315	-1187.82397	112.10315
42350.00000	111.89378	-1190.19020	111.89378
42400.00000	111.69655	-1192.47696	111.69655
42450.00000	111.50264	-1194.64638	111.50264
42500.00000	111.31131	-1196.66900	111.31131
42550.00000	111.13822	-1198.78748	111.13822
42600.00000	110.91597	-1200.72977	110.91597
42650.00000	110.71400	-1202.50529	110.71400
42700.00000	110.54047	-1204.13858	110.54047
42750.00000	110.37366	-1206.17865	110.37366
42800.00000	110.24203	-1207.45734	110.24203
42850.00000	110.03588	-1209.21082	110.03588
42900.00000	109.91632	-1210.53302	109.91632
42950.00000	109.76535	-1212.22521	109.76535
43000.00000	109.65268	-1213.54035	109.65268
43050.00000	109.46800	-1214.99179	109.46800
43100.00000	109.41081	-1216.36071	109.41081
43150.00000	109.25078	-1217.64621	109.25078
43200.00000	109.13555	-1219.20285	109.13555
43250.00000	109.02454	-1220.31021	109.02454
43300.00000	108.95061	-1221.33238	108.95061
43350.00000	108.81875	-1222.31271	108.81875
43400.00000	108.77273	-1223.44058	108.77273
43450.00000	108.71441	-1224.57331	108.71441
43500.00000	108.57339	-1225.21877	108.57339
43550.00000	108.59891	-1226.17151	108.59891
43600.00000	108.50793	-1226.83896	108.50793
43650.00000	108.49244	-1227.61102	108.49244
43700.00000	108.45673	-1228.31758	108.45673
43750.00000	108.46348	-1229.09523	108.46348
43800.00000	108.47652	-1229.95453	108.47652
43850.00000	108.47422	-1230.63956	108.47422
43900.00000	108.61507	-1231.35100	108.61507
43950.00000	108.64967	-1231.94585	108.64967
44000.00000	108.73017	-1232.66338	108.73017
44050.00000	108.87055	-1233.35600	108.87055
44100.00000	108.96456	-1234.26484	108.96456
44150.00000	109.10732	-1234.75391	109.10732
44200.00000	109.31187	-1235.51596	109.31187
44250.00000	109.53751	-1236.61254	109.53751
44300.00000	109.75866	-1237.71071	109.75866
44350.00000	109.95059	-1238.61032	109.95059
44400.00000	110.26388	-1239.82462	110.26388
44450.00000	110.44976	-1241.21871	110.44976
44500.00000	110.75564	-1242.37791	110.75564
44550.00000	111.06506	-1243.80395	111.06506
44600.00000	111.35619	-1245.66783	111.35619
44650.00000	111.65830	-1247.52679	111.65830
44700.00000	111.97504	-1249.36039	111.97504
44750.00000	112.24072	-1251.48191	112.24072
44800.00000	112.57036	-1253.36785	112.57036
44850.00000	112.91868	-1256.04923	112.91868
44900.00000	113.21015	-1258.46260	113.21015
44950.00000	113.60062	-1261.10514	113.60062
45000.00000	113.86118	-1264.06362	113.86118
45050.00000	114.27074	-1267.16806	114.27074
45100.00000	114.61450	-1270.33285	114.61450
45150.00000	114.92988	-1273.84716	114.92988
45200.00000	115.24620	-1277.70474	115.24620
45250.00000	115.56691	-1281.67025	115.56691
45300.00000	115.83507	-1285.95304	115.83507
45350.00000	116.08122	-1289.87104	116.08122
45400.00000	116.32029	-1294.36297	116.32029
45450.00000	116.54417	-1298.80727	116.54417
45500.00000	116.69830	-1303.09848	116.69830
45550.00000	116.82286	-1307.54336	116.82286
45600.00000	116.95076	-1312.03481	116.95076
45650.00000	117.04987	-1316.67105	117.04987
45700.00000	117.09416	-1321.19594	117.09416
45750.00000	117.15207	-1325.95697	117.15207
45800.00000	117.13888	-1330.35723	117.13888
45850.00000	117.15024	-1335.16832	117.15024
45900.00000	117.11473	-1339.69951	117.11473
45950.00000	117.01417	-1344.44198	117.01417
46000.00000	116.95516	-1348.67945	116.95516
46050.00000	116.82312	-1353.11621	116.82312
46100.00000	116.68605	-1357.19238	116.68605
46150.00000	116.57565	-1361.19935	116.57565
46200.00000	116.41632	-1365.19376	116.41632
46250.00000	116.30512	-1368.79883	116.30512
46300.00000	116.16663	-1372.50607	116.16663
46350.00000	116.02672	-1376.12054	116.02672
46400.00000	115.82720	-1379.45495	115.82720
46450.00000	115.70458	-1382.75891	115.70458
46500.00000	115.55897	-1386.29642	115.55897
46550.00000	115.39498	-1389.54658	115.39498
46600.00000	115.26138	-1392.57220	115.26138
46650.00000	115.14361	-1395.71310	115.14361
46700.00000	115.01878	-1398.97438	115.01878
46750.00000	114.88620	-1402.22828	114.88620
46800.00000	114.76021	-1405.37619	114.76021
46850.00000	114.57715	-1408.44057	114.57715
46900.00000	114.46948	-1411.47629	114.46948
46950.00000	114.35038	-1414.48033	114.35038
47000.00000	114.21156	-1417.70956	114.21156
47050.00000	114.08403	-1420.67758	114.08403
47100.00000	113.98808	-1423.72133	113.98808
47150.00000	113.85168	-1426.27319	113.85168
47200.00000	113.73870	-1429.45658	113.73870
47250.00000	113.56680	-1431.87308	113.56680
47300.00000	113.49550	-1435.19074	113.49550
47350.00000	113.51225	-1437.81869	113.51225
47400.00000	113.34524	-1440.54972	113.34524
47450.00000	113.28931	-1443.50046	113.28931
47500.00000	113.18169	-1446.21735	113.18169
47550.00000	113.12488	-1449.40322	113.12488
47600.00000	112.98985	-1452.88096	112.98985
47650.00000	112.91712	-1455.63138	112.91712
47700.00000	112.90190	-1459.19146	112.90190
47750.00000	112.75893	-1462.43510	112.75893
47800.00000	112.67220	-1465.90532	112.67220
47850.00000	112.57290	-1469.19711	112.57290
47900.00000	112.49642	-1472.50428	112.49642
47950.00000	112.41037	-1476.22602	112.41037
48000.00000	112.19510	-1479.84069	112.19510
48050.00000	112.07655	-1483.25439	112.07655
48100.00000	111.89457	-1487.01965	111.89457
48150.00000	111.80928	-1490.51653	111.80928
48200.00000	111.54751	-1494.56098	111.54751
48250.00000	111.35787	-1497.79229	111.35787
48300.00000	111.18452	-1501.46412	111.18452
48350.00000	111.00656	-1504.96909	111.00656
48400.00000	110.67580	-1509.11008	110.67580
48450.00000	110.44693	-1512.54896	110.44693
48500.00000	110.06699	-1515.99693	110.06699
48550.00000	109.76744	-1519.44893	109.76744
48600.00000	109.36326	-1523.84065	109.36326
48650.00000	108.97569	-1526.59907	108.97569
48700.00000	108.54707	-1529.56141	108.54707
48750.00000	108.20199	-1533.10750	108.20199
48800.00000	107.67967	-1535.02098	107.67967
48850.00000	107.14713	-1538.46058	107.14713
48900.00000	106.75794	-1539.93688	106.75794
48950.00000	106.23428	-1542.38605	106.23428
49000.00000	105.79902	-1544.66919	105.79902
49050.00000	105.37894	-1546.88103	105.37894
49100.00000	104.85754	-1547.03664	104.85754
49150.00000	104.56871	-1549.08525	104.56871
49200.00000	104.04338	-1549.23828	104.04338
49250.00000	103.71566	-1550.40505	103.71566
49300.00000	103.35901	-1550.01927	103.35901
49350.00000	102.80237	-1550.40296	102.80237
49400.00000	102.34017	-1550.79257	102.34017
49450.00000	102.21021	-1550.54141	102.21021
49500.00000	101.87191	-1549.87450	101.87191
49550.00000	101.87177	-1549.38819	101.87177
49600.00000	101.50264	-1549.23074	101.50264
49650.00000	101.51557	-1549.95177	101.51557
49700.00000	101.30672	-1549.18776	101.30672
49750.00000	101.17671	-1188.87949	101.17671
49800.00000	101.23067	-1188.41399	101.23067
49850.00000	101.23805	-470.30551	101.23805
49900.00000	101.29454	-469.17281	101.29454
49950.00000	101.30769	-109.11279	101.30769
50000.00000	101.44032	-109.43949	101.44032
50050.00000	101.44318	-110.70617	101.44318
50100.00000	101.48230	-111.00742	101.48230
50150.00000	101.80044	-112.88984	101.80044
50200.00000	101.77309	-113.44020	101.77309
50250.00000	101.95800	-114.45756	101.95800
50300.00000	102.08642	-115.56171	102.08642
50350.00000	102.17500	-116.41041	102.17500
50400.00000	102.35962	-118.81811	102.35962
50450.00000	102.31856	-120.91843	102.31856
50500.00000	102.57822	-121.77105	102.57822
50550.00000	102.52987	-124.68125	102.52987
50600.00000	102.81799	-127.19758	102.81799
50650.00000	102.92770	-129.05838	102.92770
50700.00000	102.74291	-131.35569	102.74291
50750.00000	102.85208	-133.95461	102.85208
50800.00000	102.93084	-137.06795	102.93084
50850.00000	102.90354	-139.03508	102.90354
50900.00000	102.81199	-142.61211	102.81199
50950.00000	102.93467	-144.91554	102.93467
51000.00000	102.99776	-149.06928	102.99776
51050.00000	102.91481	-151.25617	102.91481
51100.00000	102.74290	-154.71094	102.74290
51150.00000	102.59560	-157.35833	102.59560
51200.00000	102.36636	-160.85143	102.36636
51250.00000	102.22935	-162.47043	102.22935
51300.00000	102.08398	-166.42871	102.08398
51350.00000	101.83626	-167.25205	101.83626
51400.00000	101.57968	-171.75735	101.57968
51450.00000	101.09323	-172.20116	101.09323
51500.00000	100.85375	-174.26977	100.85375
51550.00000	100.60034	-175.35193	100.60034
51600.00000	100.35501	-177.69689	100.35501
51650.00000	99.84981	-178.04011	99.84981
51700.00000	99.71735	-178.96043	99.71735
51750.00000	99.25868	-178.35163	99.25868
51800.00000	99.25854	-179.91600	99.25854
51850.00000	99.07818	-180.16732	99.07818
51900.00000	98.99835	-181.14587	98.99835
51950.00000	98.43600	-181.50028	98.43600
52000.00000	98.43822	-179.79298	98.43822
52050.00000	98.48710	-179.42344	98.48710
52100.00000	98.44753	-178.28855	98.44753
52150.00000	98.27250	-179.09262	98.27250
52200.00000	98.47045	-179.88257	98.47045
52250.00000	98.51552	-180.14076	98.51552
52300.00000	98.15020	-178.28084	98.15020
52350.00000	98.49346	-179.32986	98.49346
52400.00000	98.68653	-179.93166	98.68653
52450.00000	98.78158	-181.27486	98.78158
52500.00000	98.77282	-181.50613	98.77282
52550.00000	98.98605	-180.88504	98.98605
52600.00000	99.09612	-182.56019	99.09612
52650.00000	99.28427	-182.74155	99.28427
52700.00000	99.40804	-183.98582	99.40804
52750.00000	99.61296	-183.87173	99.61296
52800.00000	99.89945	-185.79957	99.89945
52850.00000	99.95233	-186.60663	99.95233
52900.00000	100.18493	-187.63374	100.18493
52950.00000	100.38471	-189.85138	100.38471
53000.00000	100.44018	-191.17453	100.44018
53050.00000	100.65558	-192.74273	100.65558
53100.00000	100.92948	-194.45786	100.92948
53150.00000	101.14647	-196.13492	101.14647
53200.00000	101.18668	-199.22120	101.18668
53250.00000	101.43082	-199.52822	101.43082
53300.00000	101.41057	-202.77353	101.41057
53350.00000	101.47847	-203.79482	101.47847
53400.00000	101.72446	-206.31593	101.72446
53450.00000	101.78069	-208.76969	101.78069
53500.00000	101.89889	-210.11211	101.89889
53550.00000	102.13665	-213.00086	102.13665
53600.00000	102.04448	-215.11465	102.04448
53650.00000	102.25610	-217.44078	102.25610
53700.00000	102.30800	-219.77912	102.30800
53750.00000	102.28802	-222.47833	102.28802
53800.00000	102.33627	-223.95008	102.33627
53850.00000	102.30486	-225.99881	102.30486
53900.00000	102.37565	-227.08329	102.37565
53950.00000	102.34737	-230.67080	102.34737
54000.00000	102.39996	-232.43740	102.39996
54050.00000	102.37534	-233.97346	102.37534
54100.00000	102.34652	-235.50193	102.34652
54150.00000	102.49920	-237.08427	102.49920
54200.00000	102.25372	-238.05133	102.25372
54250.00000	102.32046	-239.87795	102.32046
54300.00000	102.42317	-241.49835	102.42317
54350.00000	102.51598	-243.32938	102.51598
54400.00000	102.74076	-244.59862	102.74076
54450.00000	102.69791	-245.47888	102.69791
54500.00000	102.73334	-245.39562	102.73334
54550.00000	102.80779	-247.72972	102.80779
54600.00000	102.99052	-247.99625	102.99052
54650.00000	103.19407	-250.39259	103.19407
54700.00000	103.34981	-250.69393	103.34981
54750.00000	103.56618	-252.14006	103.56618
54800.00000	103.73819	-253.47180	103.73819
54850.00000	103.84258	-255.42416	103.84258
54900.00000	104.21559	-256.82477	104.21559
54950.00000	104.44304	-258.30754	104.44304
55000.00000	104.81595	-260.61553	104.81595
55050.00000	104.99268	-262.67197	104.99268
55100.00000	105.31432	-264.11952	105.31432
55150.00000	105.65793	-266.51730	105.65793
55200.00000	105.86900	-269.28832	105.86900
55250.00000	106.14418	-271.65814	106.14418
55300.00000	106.50607	-274.69973	106.50607
55350.00000	106.75261	-276.71221	106.75261
55400.00000	107.00399	-280.53012	107.00399
55450.00000	107.27199	-283.05043	107.27199
55500.00000	107.59348	-286.48596	107.59348
55550.00000	107.75901	-289.73466	107.75901
55600.00000	107.98779	-293.28526	107.98779
55650.00000	108.26680	-296.90006	108.26680
55700.00000	108.42803	-300.57621	108.42803
55750.00000	108.61391	-304.58778	108.61391
55800.00000	108.77838	-308.29919	108.77838
55850.00000	108.96035	-312.16509	108.96035
55900.00000	109.04705	-316.19772	109.04705
55950.00000	109.17427	-320.20270	109.17427
56000.00000	109.28035	-324.32715	109.28035
56050.00000	109.36133	-327.71539	109.36133
56100.00000	109.44383	-332.07018	109.44383
56150.00000	109.49098	-335.72731	109.49098
56200.00000	109.50445	-339.79427	109.50445
56250.00000	109.51047	-343.83227	109.51047
56300.00000	109.50502	-347.55437	109.50502
56350.00000	109.50099	-351.66861	109.50099
56400.00000	109.56582	-355.28119	109.56582
56450.00000	109.46592	-359.30215	109.46592
56500.00000	109.41862	-363.12148	109.41862
56550.00000	109.37402	-367.06760	109.37402
56600.00000	109.29581	-370.84368	109.29581
56650.00000	109.23407	-374.39538	109.23407
56700.00000	109.11589	-377.92952	109.11589
56750.00000	109.01254	-381.57010	109.01254
56800.00000	108.91537	-385.21243	108.91537
56850.00000	108.77597	-388.65169	108.77597
56900.00000	108.66340	-392.11251	108.66340
56950.00000	108.54415	-395.43942	108.54415
57000.00000	108.36110	-398.49396	108.36110
57050.00000	108.17337	-402.06272	108.17337
57100.00000	108.00738	-405.01370	108.00738
57150.00000	107.85210	-408.07405	107.85210
57200.00000	107.62012	-410.77368	107.62012
57250.00000	107.50386	-413.75147	107.50386
57300.00000	107.29330	-416.53274	107.29330
57350.00000	107.12822	-418.76626	107.12822
57400.00000	106.92462	-421.09407	106.92462
57450.00000	106.73919	-423.42828	106.73919
57500.00000	106.53941	-425.50670	106.53941
57550.00000	106.42201	-427.73723	106.42201
57600.00000	106.24389	-429.32833	106.24389
57650.00000	106.15261	-431.38229	106.15261
57700.00000	105.98917	-433.24492	105.98917
57750.00000	106.00002	-434.89651	106.00002
57800.00000	105.91652	-436.74646	105.91652
57850.00000	105.91272	-438.12746	105.91272
57900.00000	105.86347	-440.14232	105.86347
57950.00000	105.90394	-441.73052	105.90394
58000.00000	105.95053	-443.54146	105.95053
58050.00000	106.01510	-445.43653	106.01510
58100.00000	106.09045	-447.75208	106.09045
58150.00000	106.15750	-450.13849	106.15750
58200.00000	106.23255	-452.75562	106.23255
58250.00000	106.28189	-455.78167	106.28189
58300.00000	106.31706	-458.72741	106.31706
58350.00000	106.37418	-461.89975	106.37418
58400.00000	106.39312	-464.91761	106.39312
58450.00000	106.31944	-467.71473	106.31944
58500.00000	106.25391	-470.86764	106.25391
58550.00000	106.16343	-474.44563	106.16343
58600.00000	106.10438	-477.03825	106.10438
58650.00000	105.96967	-479.70210	105.96967
58700.00000	105.88309	-482.51694	105.88309
58750.00000	105.80023	-485.17610	105.80023
58800.00000	105.71344	-487.61700	105.71344
58850.00000	105.64828	-490.16940	105.64828
58900.00000	105.52925	-492.71562	105.52925
58950.00000	105.47131	-495.59542	105.47131
59000.00000	105.36340	-498.36287	105.36340
59050.00000	105.25719	-501.00314	105.25719
59100.00000	105.12880	-503.96013	105.12880
59150.00000	105.01081	-506.70996	105.01081
59200.00000	104.82048	-509.38115	104.82048
59250.00000	104.58337	-511.84497	104.58337
59300.00000	104.39341	-514.11030	104.39341
59350.00000	104.15270	-516.27900	104.15270
59400.00000	103.91454	-518.12133	103.91454
59450.00000	103.64879	-519.79780	103.64879
59500.00000	103.46113	-521.12098	103.46113
59550.00000	103.31133	-521.99259	103.31133
59600.00000	103.16366	-522.75644	103.16366
59650.00000	103.05796	-523.97913	103.05796
59700.00000	102.97170	-524.71949	102.97170
59750.00000	102.93334	-525.21026	102.93334
59800.00000	102.88229	-526.11321	102.88229
59850.00000	102.94686	-526.65801	102.94686
59900.00000	102.96425	-527.76989	102.96425
59950.00000	103.04641	-528.45807	103.04641
60000.00000	103.16968	-529.60940	103.16968
60050.00000	103.23709	-530.80390	103.23709
60100.00000	103.38637	-531.72034	103.38637
60150.00000	103.51902	-532.93385	103.51902
60200.00000	103.68796	-534.44534	103.68796
60250.00000	103.92834	-535.83951	103.92834
60300.00000	104.16073	-537.66521	104.16073
60350.00000	104.38253	-539.43392	104.38253
60400.00000	104.63374	-541.79002	104.63374
60450.00000	104.88490	-543.91965	104.88490
60500.00000	105.13694	-546.96413	105.13694
60550.00000	105.33407	-549.95734	105.33407
60600.00000	105.52987	-553.06449	105.52987
60650.00000	105.69422	-556.41095	105.69422
60700.00000	105.80293	-559.88360	105.80293
60750.00000	105.90565	-563.24953	105.90565
60800.00000	105.94345	-566.59867	105.94345
60850.00000	106.01302	-570.17507	106.01302
60900.00000	106.03553	-573.24814	106.03553
60950.00000	106.01367	-576.49732	106.01367
61000.00000	106.01978	-579.52967	106.01978
61050.00000	106.02024	-582.44796	106.02024
61100.00000	106.00445	-585.48452	106.00445
61150.00000	105.98961	-588.38082	105.98961
61200.00000	106.01800	-591.32014	106.01800
61250.00000	105.98618	-593.94268	105.98618
61300.00000	106.00992	-596.92029	106.00992
61350.00000	105.97439	-599.76457	105.97439
61400.00000	106.01218	-602.66949	106.01218
61450.00000	106.03177	-605.28867	106.03177
61500.00000	106.00302	-607.99754	106.00302
61550.00000	106.03772	-610.88957	106.03772
61600.00000	106.05963	-613.83571	106.05963
61650.00000	106.05037	-616.64226	106.05037
61700.00000	106.09607	-619.81030	106.09607
61750.00000	106.05482	-622.77418	106.05482
61800.00000	106.09367	-625.69924	106.09367
61850.00000	106.09950	-628.59730	106.09950
61900.00000	106.05878	-631.64534	106.05878
61950.00000	106.09346	-634.81186	106.09346
62000.00000	106.10561	-638.16838	106.10561
62050.00000	106.07759	-641.16647	106.07759
62100.00000	106.08531	-644.41380	106.08531
62150.00000	106.01363	-647.65015	106.01363
62200.00000	105.95137	-650.86113	105.95137
62250.00000	105.88750	-654.17606	105.88750
62300.00000	105.80482	-657.39690	105.80482
62350.00000	105.72462	-660.53242	105.72462
62400.00000	105.58695	-663.92541	105.58695
62450.00000	105.50198	-666.80748	105.50198
62500.00000	105.35822	-669.59235	105.35822
62550.00000	105.19048	-672.73303	105.19048
62600.00000	105.03664	-675.64497	105.03664
62650.00000	104.91720	-678.04819	104.91720
62700.00000	104.73619	-680.66655	104.73619
62750.00000	104.55001	-683.22884	104.55001
62800.00000	104.44418	-685.29155	104.44418
62850.00000	104.31505	-687.42680	104.31505
62900.00000	104.22080	-689.48454	104.22080
62950.00000	104.09578	-691.23289	104.09578
63000.00000	103.96597	-692.83611	103.96597
63050.00000	103.94253	-694.36538	103.94253
63100.00000	103.94414	-696.46869	103.94414
63150.00000	103.94124	-698.49346	103.94124
63200.00000	103.88664	-700.38241	103.88664
63250.00000	103.97167	-701.79918	103.97167
63300.00000	104.00686	-703.79607	104.00686
63350.00000	104.06559	-706.00300	104.06559
63400.00000	104.15291	-707.95637	104.15291
63450.00000	104.23246	-710.25159	104.23246
63500.00000	104.37239	-712.61316	104.37239
63550.00000	104.45427	-715.08649	104.45427
63600.00000	104.58639	-717.83639	104.58639
63650.00000	104.74903	-720.65556	104.74903
63700.00000	104.83756	-723.38611	104.83756
63750.00000	105.04371	-726.81832	105.04371
63800.00000	105.06808	-730.12796	105.06808
63850.00000	105.16598	-734.04266	105.16598
63900.00000	105.19632	-737.81852	105.19632
63950.00000	105.15247	-741.62061	105.15247
64000.00000	105.05748	-744.91046	105.05748
64050.00000	105.00831	-747.71818	105.00831
64100.00000	104.97574	-750.54296	104.97574
64150.00000	105.06710	-753.09351	105.06710
64200.00000	105.23632	-755.96709	105.23632
64250.00000	105.42042	-759.40862	105.42042
64300.00000	105.60275	-763.86524	105.60275
64350.00000	105.77877	-769.03179	105.77877
64400.00000	105.85176	-774.25715	105.85176
64450.00000	105.80117	-780.37467	105.80117
64500.00000	105.61336	-786.79114	105.61336
64550.00000	105.27651	-793.09251	105.27651
64600.00000	104.87098	-798.33317	104.87098
64650.00000	104.24340	-803.59485	104.24340
64700.00000	103.60255	-808.26497	103.60255
64750.00000	102.89138	-811.31284	102.89138
64800.00000	102.14543	-813.42174	102.14543
64850.00000	101.64104	-815.39814	101.64104
64900.00000	101.01402	-815.30947	101.01402
64950.00000	100.58279	-815.57595	100.58279
65000.00000	100.21961	-815.27372	100.21961
65050.00000	99.93087	-814.86798	99.93087
65100.00000	99.80484	-815.35168	99.80484
65150.00000	99.65403	-814.69265	99.65403
65200.00000	99.61245	-814.97756	99.61245
65250.00000	99.70022	-815.71804	99.70022
65300.00000	99.79003	-816.08281	99.79003
65350.00000	99.84379	-817.36422	99.84379
65400.00000	99.91312	-818.80536	99.91312
65450.00000	100.03027	-820.33087	100.03027
65500.00000	100.20665	-822.14853	100.20665
65550.00000	100.24960	-823.66569	100.24960
65600.00000	100.48283	-826.47936	100.48283
65650.00000	100.66570	-829.15175	100.66570
65700.00000	100.67366	-832.37181	100.67366
65750.00000	100.72472	-835.43173	100.72472
65800.00000	100.71187	-838.91651	100.71187
65850.00000	100.68144	-841.78438	100.68144
65900.00000	100.62959	-844.98470	100.62959
65950.00000	100.48173	-848.01791	100.48173
66000.00000	100.48193	-851.38560	100.48193
66050.00000	100.41121	-853.06816	100.41121
66100.00000	100.32944	-856.62132	100.32944
66150.00000	100.24902	-859.49907	100.24902
66200.00000	100.07394	-862.35178	100.07394
66250.00000	100.04199	-865.11852	100.04199
66300.00000	99.94790	-868.03384	99.94790
66350.00000	99.75545	-870.79267	99.75545
66400.00000	99.62504	-873.59260	99.62504
66450.00000	99.53684	-876.26239	99.53684
66500.00000	99.40348	-879.10284	99.40348
66550.00000	99.20182	-881.30682	99.20182
66600.00000	98.91968	-883.54059	98.91968
66650.00000	98.79235	-886.08494	98.79235
66700.00000	98.73397	-887.71089	98.73397
66750.00000	98.52717	-889.80632	98.52717
66800.00000	98.35001	-891.73985	98.35001
66850.00000	98.32495	-894.30478	98.32495
66900.00000	98.23815	-895.79701	98.23815
66950.00000	98.12665	-898.35939	98.12665
67000.00000	98.04984	-900.32720	98.04984
67050.00000	97.87027	-902.77948	97.87027
67100.00000	97.81433	-904.83901	97.81433
67150.00000	97.69187	-907.27338	97.69187
67200.00000	97.45941	-909.44342	97.45941
67250.00000	97.38652	-911.78927	97.38652
67300.00000	97.16730	-913.05426	97.16730
67350.00000	96.97477	-914.21825	96.97477
67400.00000	96.91753	-915.79254	96.91753
67450.00000	96.73526	-916.73765	96.73526
67500.00000	96.57014	-917.37597	96.57014
67550.00000	96.59787	-918.21054	96.59787
67600.00000	96.56915	-918.55194	96.56915
67650.00000	96.65733	-919.21171	96.65733
67700.00000	96.81102	-919.81019	96.81102
67750.00000	97.00093	-921.18081	97.00093
67800.00000	97.16846	-922.22280	97.16846
67850.00000	97.42974	-924.03713	97.42974
67900.00000	97.67811	-925.42967	97.67811
67950.00000	97.93456	-927.11316	97.93456
68000.00000	98.19090	-929.75985	98.19090
68050.00000	98.48613	-932.32961	98.48613
68100.00000	98.78200	-935.13290	98.78200
68150.00000	99.02700	-938.15184	99.02700
68200.00000	99.36956	-941.75177	99.36956
68250.00000	99.54016	-945.50916	99.54016
68300.00000	99.79980	-949.19841	99.79980
68350.00000	99.95432	-953.59751	99.95432
68400.00000	100.10840	-957.67777	100.10840
68450.00000	100.20446	-962.05733	100.20446
68500.00000	100.33890	-966.60963	100.33890
68550.00000	100.34403	-971.12481	100.34403
68600.00000	100.39108	-975.70707	100.39108
68650.00000	100.38140	-979.79714	100.38140
68700.00000	100.33578	-984.42297	100.33578
68750.00000	100.31386	-988.67580	100.31386
68800.00000	100.24542	-993.00052	100.24542
68850.00000	100.23173	-997.20931	100.23173
68900.00000	100.15841	-1001.71638	100.15841
68950.00000	100.08777	-1005.87063	100.08777
69000.00000	99.99359	-1010.35064	99.99359
69050.00000	99.88766	-1014.81053	99.88766
69100.00000	99.85502	-1019.14130	99.85502
69150.00000	99.70902	-1023.98166	99.70902
69200.00000	99.56370	-1028.36923	99.56370
69250.00000	99.39784	-1033.06424	99.39784
69300.00000	99.23296	-1037.85796	99.23296
69350.00000	98.99682	-1042.97042	98.99682
69400.00000	98.67955	-1047.75817	98.67955
69450.00000	98.39084	-1052.65774	98.39084
69500.00000	98.05016	-1057.41079	98.05016
69550.00000	97.65283	-1062.33220	97.65283
69600.00000	97.17448	-1066.76876	97.17448
69650.00000	96.63223	-1070.47361	96.63223
69700.00000	96.18552	-1074.57338	96.18552
69750.00000	95.60250	-1078.24360	95.60250
69800.00000	95.04552	-1081.28277	95.04552
69850.00000	94.49189	-1084.23991	94.49189
69900.00000	93.93380	-1086.03096	93.93380
69950.00000	93.41707	-1088.13923	93.41707
70000.00000	92.95422	-1089.82669	92.95422
70050.00000	92.46868	-1090.42499	92.46868
70100.00000	92.04713	-1092.74605	92.04713
70150.00000	91.87179	-1094.13776	91.87179
70200.00000	91.45664	-1095.16513	91.45664
70250.00000	91.16364	-1097.63485	91.16364
70300.00000	90.74912	-1098.15782	90.74912
70350.00000	90.51021	-1099.74167	90.51021
70400.00000	90.17908	-1101.90244	90.17908
70450.00000	89.90468	-1102.70726	89.90468
70500.00000	89.52544	-1104.39330	89.52544
70550.00000	89.36707	-1105.86645	89.36707
70600.00000	89.06277	-1106.68560	89.06277
70650.00000	88.75035	-1107.54766	88.75035
70700.00000	88.46329	-1108.98388	88.46329
70750.00000	88.42475	-1108.92542	88.42475
70800.00000	88.10015	-1110.00518	88.10015
70850.00000	88.02850	-1111.19045	88.02850
70900.00000	87.91840	-1112.35930	87.91840
70950.00000	87.96674	-1112.79406	87.96674
71000.00000	88.01002	-1113.56562	88.01002
71050.00000	88.08308	-1115.32168	88.08308
71100.00000	88.02015	-1118.12711	88.02015
71150.00000	88.02371	-1120.06473	88.02371
71200.00000	88.05208	-1121.74973	88.05208
71250.00000	88.04735	-1125.02862	88.04735
71300.00000	88.16146	-1128.98356	88.16146
71350.00000	87.93322	-1131.99674	87.93322
71400.00000	87.78505	-1136.31035	87.78505
71450.00000	87.70938	-1140.50892	87.70938
71500.00000	87.42295	-1144.31746	87.42295
71550.00000	87.09614	-1148.63896	87.09614
71600.00000	86.79280	-1151.83417	86.79280
71650.00000	86.03023	-1155.86745	86.03023
71700.00000	85.55406	-1159.83460	85.55406
71750.00000	85.29963	-1160.63488	85.29963
71800.00000	84.73463	-1164.95195	84.73463
71850.00000	83.79346	-1168.51093	83.79346
71900.00000	82.89322	-1169.31723	82.89322
71950.00000	82.44510	-1171.35891	82.44510
72000.00000	81.55744	-1169.75202	81.55744
72050.00000	80.09354	-1168.01036	80.09354
72100.00000	79.63305	-1164.21509	79.63305
72150.00000	79.45685	-1160.73802	79.45685
72200.00000	78.92793	-1156.43930	78.92793
72250.00000	79.36047	-1154.48746	79.36047
72300.00000	79.73248	-1146.95300	79.73248
72350.00000	79.41190	-1146.26818	79.41190
72400.00000	80.40049	-1145.48088	80.40049
72450.00000	80.92801	-1144.36144	80.92801
72500.00000	81.14933	-1147.81845	81.14933
72550.00000	81.90565	-1150.98513	81.90565
72600.00000	81.38171	-1147.48159	81.38171
72650.00000	81.67311	-1154.34631	81.67311
72700.00000	82.06496	-1156.77709	82.06496
72750.00000	81.77015	-1156.10040	81.77015
72800.00000	81.78107	-1160.36185	81.78107
72850.00000	82.12762	-1155.94556	82.12762
72900.00000	81.78553	-1158.46565	81.78553
72950.00000	82.49090	-1162.83688	82.49090
73000.00000	82.72339	-1156.91847	82.72339
73050.00000	82.90313	-1158.70458	82.90313
73100.00000	83.77641	-1163.00411	83.77641
73150.00000	83.71140	-1165.93230	83.71140
73200.00000	84.38433	-1169.77318	84.38433
73250.00000	85.05819	-1174.05427	85.05819
73300.00000	84.99949	-1178.11030	84.99949
73350.00000	85.51443	-1185.55827	85.51443
73400.00000	85.92236	-1188.68731	85.92236
73450.00000	85.44803	-1193.97368	85.44803
73500.00000	85.88253	-1202.70911	85.88253
73550.00000	85.89111	-1204.85135	85.89111
73600.00000	85.81761	-1211.22104	85.81761
73650.00000	86.11630	-1216.87862	86.11630
73700.00000	85.66195	-1220.51631	85.66195
73750.00000	85.60870	-1231.60891	85.60870
73800.00000	85.57424	-1234.79214	85.57424
73850.00000	85.24104	-1241.08682	85.24104
73900.00000	84.95593	-1251.05130	84.95593
73950.00000	84.50758	-1251.33592	84.50758
74000.00000	84.12990	-1262.30648	84.12990
74050.00000	84.17969	-1271.97800	84.17969
74100.00000	83.83232	-1275.23558	83.83232
74150.00000	83.49655	-1289.55136	83.49655
74200.00000	83.05667	-1293.68350	83.05667
74250.00000	81.57304	-1304.17115	81.57304
74300.00000	82.65857	-1327.39728	82.65857
74350.00000	81.23892	-1338.02541	81.23892
74400.00000	78.27666	-1394.42306	78.27666
74450.00000	74.46615	-1568.87598	74.46615
74500.00000	77.92050	-1631.10935	77.92050
74550.00000	76.48115	-1669.98453	76.48115
74600.00000	75.43708	-1685.83597	75.43708
74650.00000	74.24762	-1710.47940	74.24762
74700.00000	73.66438	-1718.04165	73.66438
74750.00000	73.62081	-1722.12659	73.62081
74800.00000	73.31653	-1753.86092	73.31653
74850.00000	72.83953	-1754.07027	72.83953
74900.00000	71.66330	-1772.01918	71.66330
74950.00000	73.52607	-1789.35411	73.52607
75000.00000	72.94492	-1794.58775	72.94492
75050.00000	73.71522	-1811.26475	73.71522
75100.00000	74.32831	-1813.94858	74.32831
75150.00000	74.09977	-1814.44085	74.09977
75200.00000	76.62254	-1833.68792	76.62254
75250.00000	76.60303	-1838.59729	76.60303
75300.00000	75.65596	-1846.34226	75.65596
75350.00000	77.33337	-1848.59823	77.33337
75400.00000	77.11209	-1855.34064	77.11209
75450.00000	77.64043	-1865.29339	77.64043
75500.00000	78.97870	-1863.11161	78.97870
75550.00000	78.44048	-1873.94958	78.44048
75600.00000	79.76637	-1877.27910	79.76637
75650.00000	79.64806	-1879.58911	79.64806
75700.00000	79.74971	-1886.91588	79.74971
75750.00000	80.14731	-1886.53394	80.14731
75800.00000	80.41963	-1898.90749	80.41963
75850.00000	80.81340	-1898.19834	80.81340
75900.00000	80.98649	-1900.31830	80.98649
75950.00000	81.06033	-1908.63204	81.06033
76000.00000	81.83901	-1909.82736	81.83901
76050.00000	80.93215	-1912.91169	80.93215
76100.00000	82.02157	-1920.93022	82.02157
76150.00000	82.21946	-1920.76811	82.21946
76200.00000	82.17954	-1928.37330	82.17954
76250.00000	83.02065	-1928.54608	83.02065
76300.00000	82.34374	-1934.23177	82.34374
76350.00000	83.48565	-1939.69625	83.48565
76400.00000	83.69601	-1939.21706	83.69601
76450.00000	82.75955	-1944.05272	82.75955
76500.00000	83.98835	-1945.95627	83.98835
76550.00000	83.72498	-1949.28232	83.72498
76600.00000	83.31919	-1956.92777	83.31919
76650.00000	83.90879	-1953.92821	83.90879
76700.00000	83.13832	-1957.64658	83.13832
76750.00000	84.41149	-1963.73737	84.41149
76800.00000	83.78732	-1959.93933	83.78732
76850.00000	83.23551	-1969.05762	83.23551
76900.00000	84.76910	-1968.77377	84.76910
76950.00000	83.83158	-1968.26752	83.83158
77000.00000	84.43007	-1977.00292	84.43007
77050.00000	85.03269	-1975.19307	85.03269
77100.00000	84.31107	-1978.51601	84.31107
77150.00000	85.50749	-1983.67296	85.50749
77200.00000	85.57312	-1979.02519	85.57312
77250.00000	85.14387	-1988.65856	85.14387
77300.00000	86.60864	-1989.31227	86.60864
77350.00000	85.47454	-1989.89834	85.47454
77400.00000	86.55238	-1997.85293	86.55238
77450.00000	87.03007	-1997.58328	87.03007
77500.00000	86.22076	-2005.16176	86.22076
77550.00000	87.58194	-2009.70314	87.58194
77600.00000	86.91694	-2008.02647	86.91694
77650.00000	87.23813	-2019.38594	87.23813
77700.00000	88.18091	-2016.19002	88.18091
77750.00000	87.17481	-2024.34171	87.17481
77800.00000	87.90839	-2031.76017	87.90839
77850.00000	87.77299	-2028.24990	87.77299
77900.00000	87.38249	-2040.22727	87.38249
77950.00000	88.38974	-2041.23723	88.38974
78000.00000	87.22755	-2044.89218	87.22755
78050.00000	88.06790	-2054.40469	88.06790
78100.00000	88.00048	-2052.95746	88.00048
78150.00000	87.18908	-2063.15455	87.18908
78200.00000	88.18920	-2065.96050	88.18920
78250.00000	87.16849	-2065.29850	87.16849
78300.00000	87.48272	-2077.37757	87.48272
78350.00000	87.78832	-2073.95805	87.78832
78400.00000	86.61719	-2079.94071	86.61719
78450.00000	87.61175	-2086.52926	87.61175
78500.00000	86.82822	-2084.09007	86.82822
78550.00000	86.32125	-2093.06198	86.32125
78600.00000	86.67730	-2092.66481	86.67730
78650.00000	85.41977	-2097.57503	85.41977
78700.00000	86.26228	-2103.67849	86.26228
78750.00000	85.47672	-2100.28532	85.47672
78800.00000	84.91036	-2105.69159	84.91036
78850.00000	85.84185	-2106.48825	85.84185
78900.00000	84.62606	-2108.28283	84.62606
78950.00000	85.13478	-2115.77962	85.13478
79000.00000	85.05863	-2112.57872	85.05863
79050.00000	84.49389	-2119.70630	84.49389
79100.00000	85.17750	-2120.86213	85.17750
79150.00000	84.32226	-2119.56863	84.32226
79200.00000	84.53054	-2128.10396	84.53054
79250.00000	84.73635	-2126.13568	84.73635
79300.00000	83.96835	-2131.68733	83.96835
79350.00000	84.76132	-2134.94602	84.76132
79400.00000	83.98613	-2133.22573	83.98613
79450.00000	83.89306	-2142.57826	83.89306
79500.00000	84.40404	-2141.39152	84.40404
79550.00000	83.53369	-2145.17822	83.53369
79600.00000	84.39371	-2151.48151	84.39371
79650.00000	83.94445	-2149.94050	83.94445
79700.00000	83.61115	-2159.92658	83.61115
79750.00000	84.10344	-2157.33710	84.10344
79800.00000	82.98621	-2164.08800	82.98621
79850.00000	83.33869	-2168.05313	83.33869
79900.00000	82.69085	-2167.58101	82.69085
79950.00000	82.49331	-2176.62075	82.49331
80000.00000	82.62055	-2173.56329	82.62055
80050.00000	81.76004	-2176.57648	81.76004
80100.00000	82.03063	-2183.45320	82.03063
80150.00000	81.59201	-2181.14182	81.59201
80200.00000	81.71238	-2188.85841	81.71238
80250.00000	81.71990	-2191.14047	81.71990
80300.00000	80.36546	-2192.67387	80.36546
80350.00000	80.76650	-2201.23550	80.76650
80400.00000	79.77016	-2199.57858	79.77016
80450.00000	78.91492	-2207.05565	78.91492
80500.00000	78.87235	-2205.54425	78.87235
80550.00000	77.49254	-2206.00319	77.49254
80600.00000	77.97843	-2207.48516	77.97843
80650.00000	76.94953	-2202.29547	76.94953
80700.00000	76.73877	-2206.73599	76.73877
80750.00000	77.25894	-2206.80130	77.25894
80800.00000	76.12726	-2204.43128	76.12726
80850.00000	76.55796	-2207.76030	76.55796
80900.00000	76.34429	-2202.12530	76.34429
80950.00000	75.88287	-2206.57147	75.88287
81000.00000	76.24882	-2205.08901	76.24882
81050.00000	75.43188	-2204.84341	75.43188
81100.00000	76.12146	-2208.15582	76.12146
81150.00000	76.35985	-2204.26596	76.35985
81200.00000	75.88480	-2210.39335	75.88480
81250.00000	76.32314	-2209.77444	76.32314
81300.00000	75.74955	-2208.50748	75.74955
81350.00000	76.47410	-2213.87211	76.47410
81400.00000	75.76045	-2212.23152	75.76045
81450.00000	75.55810	-2218.75838	75.55810
81500.00000	76.12322	-2218.23416	76.12322
81550.00000	75.10248	-2222.10862	75.10248
81600.00000	75.33989	-2224.81862	75.33989
81650.00000	74.70019	-2225.21244	74.70019
81700.00000	74.60863	-2229.36062	74.60863
81750.00000	74.64946	-2223.50484	74.64946
81800.00000	73.84765	-2226.19272	73.84765
81850.00000	74.05919	-2225.21293	74.05919
81900.00000	73.30668	-2225.97526	73.30668
81950.00000	72.76250	-2229.81471	72.76250
82000.00000	73.56319	-2223.57276	73.56319
82050.00000	72.96017	-2224.17672	72.96017
82100.00000	73.46100	-2223.24393	73.46100
82150.00000	73.23020	-2220.64560	73.23020
82200.00000	74.03270	-2223.73461	74.03270
82250.00000	74.25940	-2219.63995	74.25940
82300.00000	73.72039	-2224.93496	73.72039
82350.00000	74.61267	-2225.33309	74.61267
82400.00000	74.18052	-2223.38179	74.18052
82450.00000	74.81943	-2227.77315	74.81943
82500.00000	74.72583	-2232.17314	74.72583
82550.00000	74.71762	-2235.37452	74.71762
82600.00000	74.90199	-2241.42376	74.90199
82650.00000	74.50143	-2243.11989	74.50143
82700.00000	73.67339	-2256.47281	73.67339
82750.00000	72.47822	-2256.44310	72.47822
82800.00000	70.89769	-2262.64693	70.89769
82850.00000	67.91406	-2265.49591	67.91406
82900.00000	59.76337	-2230.17088	59.76337
82950.00000	67.60965	-2184.46402	67.60965
83000.00000	73.27406	-2179.85486	73.27406
83050.00000	75.53074	-2189.58173	75.53074
83100.00000	77.76101	-2197.95208	77.76101
83150.00000	78.54341	-2210.55287	78.54341
83200.00000	79.28821	-2221.10973	79.28821
83250.00000	78.70502	-2228.70254	78.70502
83300.00000	78.62320	-2234.45045	78.62320
83350.00000	77.88237	-2235.53373	77.88237
83400.00000	76.67582	-2234.36899	76.67582
83450.00000	76.15095	-2225.39603	76.15095
83500.00000	77.44873	-2213.88822	77.44873
83550.00000	78.99994	-2208.71112	78.99994
83600.00000	81.12830	-2205.86833	81.12830
83650.00000	82.50238	-2212.88789	82.50238
83700.00000	83.89245	-2217.34038	83.89245
83750.00000	84.97953	-2223.50203	84.97953
83800.00000	85.80246	-2229.80155	85.80246
83850.00000	86.60818	-2236.00418	86.60818
83900.00000	87.12189	-2242.53665	87.12189
83950.00000	87.55458	-2248.80907	87.55458
84000.00000	88.01963	-2255.64502	88.01963
84050.00000	88.16548	-2261.63993	88.16548
84100.00000	88.57623	-2268.02143	88.57623
84150.00000	88.81480	-2273.59148	88.81480
84200.00000	89.15212	-2278.63607	89.15212
84250.00000	89.25132	-2284.25964	89.25132
84300.00000	89.49184	-2289.67380	89.49184
84350.00000	89.72034	-2295.25205	89.72034
84400.00000	89.90445	-2300.80754	89.90445
84450.00000	90.08925	-2305.69047	90.08925
84500.00000	90.27038	-2311.85411	90.27038
84550.00000	90.42517	-2316.44102	90.42517
84600.00000	90.47801	-2322.65930	90.47801
84650.00000	90.72937	-2328.18242	90.72937
84700.00000	90.78435	-2334.24795	90.78435
84750.00000	90.89139	-2340.28025	90.89139
84800.00000	90.85052	-2346.86218	90.85052
84850.00000	90.98689	-2352.44471	90.98689
84900.00000	90.80320	-2358.89185	90.80320
84950.00000	90.75960	-2365.33615	90.75960
85000.00000	90.61653	-2370.92037	90.61653
85050.00000	90.48222	-2377.54743	90.48222
85100.00000	90.28013	-2384.18186	90.28013
85150.00000	90.05361	-2390.17579	90.05361
85200.00000	89.64090	-2395.90260	89.64090
85250.00000	89.87250	-2402.31301	89.87250
85300.00000	89.05072	-2407.23246	89.05072
85350.00000	88.61110	-2412.36519	88.61110
85400.00000	88.24962	-2417.88100	88.24962
85450.00000	87.75761	-2422.68157	87.75761
85500.00000	87.17304	-2428.10090	87.17304
85550.00000	86.74399	-2433.20602	86.74399
85600.00000	86.11025	-2436.50163	86.11025
85650.00000	85.52300	-2441.57578	85.52300
85700.00000	84.83247	-2445.32284	84.83247
85750.00000	84.43979	-2448.16719	84.43979
85800.00000	83.81171	-2449.86519	83.81171
85850.00000	83.18287	-2454.95416	83.18287
85900.00000	82.36881	-2457.05264	82.36881
85950.00000	81.95040	-2459.99605	81.95040
86000.00000	81.54126	-2458.56578	81.54126
86050.00000	80.39748	-2458.53057	80.39748
86100.00000	80.63966	-2460.80743	80.63966
86150.00000	79.91535	-2463.12107	79.91535
86200.00000	79.75862	-2460.84461	79.75862
86250.00000	80.06549	-2459.82494	80.06549
86300.00000	79.18110	-2464.15177	79.18110
86350.00000	78.60938	-2463.50963	78.60938
86400.00000	78.07449	-2466.64447	78.07449
86450.00000	77.68664	-2466.27690	77.68664
86500.00000	77.88450	-2465.01129	77.88450
86550.00000	78.07648	-2466.74261	78.07648
86600.00000	77.57055	-2469.19364	77.57055
86650.00000	77.89818	-2468.18024	77.89818
86700.00000	77.88287	-2468.78427	77.88287
86750.00000	78.02459	-2468.39268	78.02459
86800.00000	77.71839	-2474.49345	77.71839
86850.00000	77.69708	-2472.67199	77.69708
86900.00000	77.23351	-2472.87935	77.23351
86950.00000	77.30435	-2474.53034	77.30435
87000.00000	77.64686	-2474.91489	77.64686
87050.00000	77.61488	-2479.54371	77.61488
87100.00000	77.38168	-2480.56226	77.38168
87150.00000	77.11354	-2482.83212	77.11354
87200.00000	77.06719	-2482.98376	77.06719
87250.00000	77.48389	-2484.82695	77.48389
87300.00000	77.34959	-2488.92821	77.34959
87350.00000	77.18429	-2489.99416	77.18429
87400.00000	77.09034	-2491.90092	77.09034
87450.00000	77.21135	-2495.97158	77.21135
87500.00000	77.04783	-2495.98013	77.04783
87550.00000	76.64667	-2499.84679	76.64667
87600.00000	76.78093	-2501.97849	76.78093
87650.00000	76.71828	-2504.64588	76.71828
87700.00000	76.36992	-2505.47376	76.36992
87750.00000	76.59200	-2507.20249	76.59200
87800.00000	76.20207	-2509.54315	76.20207
87850.00000	76.35138	-2515.57437	76.35138
87900.00000	76.31268	-2515.99461	76.31268
87950.00000	75.98673	-2516.43771	75.98673
88000.00000	76.04641	-2521.24143	76.04641
88050.00000	75.67633	-2523.52389	75.67633
88100.00000	75.91690	-2524.97465	75.91690
88150.00000	75.42798	-2527.43219	75.42798
88200.00000	75.34159	-2527.09520	75.34159
88250.00000	74.36200	-2530.18935	74.36200
88300.00000	74.44498	-2532.28817	74.44498
88350.00000	74.30128	-2536.85849	74.30128
88400.00000	73.73312	-2540.25152	73.73312
88450.00000	73.65714	-2539.65809	73.65714
88500.00000	73.26942	-2542.41386	73.26942
88550.00000	72.47565	-2540.50381	72.47565
88600.00000	72.28232	-2544.78357	72.28232
88650.00000	71.98331	-2542.63191	71.98331
88700.00000	71.66736	-2543.50681	71.66736
88750.00000	71.87480	-2541.91887	71.87480
88800.00000	71.62697	-2543.33619	71.62697
88850.00000	71.50972	-2544.05537	71.50972
88900.00000	71.23107	-2540.51293	71.23107
88950.00000	70.59842	-2542.29191	70.59842
89000.00000	71.57877	-2540.24175	71.57877
89050.00000	70.81510	-2541.10762	70.81510
89100.00000	70.29248	-2540.24841	70.29248
89150.00000	70.84182	-2542.38924	70.84182
89200.00000	70.10833	-2541.95153	70.10833
89250.00000	70.01820	-2543.30064	70.01820
89300.00000	70.97459	-2547.63460	70.97459
89350.00000	70.55693	-2541.87614	70.55693
89400.00000	70.78688	-2543.94719	70.78688
89450.00000	70.15358	-2538.13224	70.15358
89500.00000	70.35074	-2543.90827	70.35074
89550.00000	69.73483	-2544.67462	69.73483
89600.00000	70.18967	-2543.73532	70.18967
89650.00000	70.32075	-2540.35493	70.32075
89700.00000	70.27448	-2536.87973	70.27448
89750.00000	70.58177	-2535.66500	70.58177
89800.00000	70.54698	-2532.46797	70.54698
89850.00000	70.57082	-2531.71188	70.57082
89900.00000	71.07387	-2533.30269	71.07387
89950.00000	71.69984	-2529.00189	71.69984
90000.00000	71.77624	-2515.34068	71.77624
90050.00000	73.10479	-2509.01456	73.10479
90100.00000	75.66831	-2506.01549	75.66831
90150.00000	76.92487	-2506.30794	76.92487
90200.00000	80.50110	-2510.78288	80.50110
90250.00000	81.79945	-2535.60336	81.79945
90300.00000	82.08616	-2549.73464	82.08616
90350.00000	80.91590	-2562.25881	80.91590
90400.00000	80.32567	-2566.99814	80.32567
90450.00000	79.94266	-2570.16053	79.94266
90500.00000	79.45032	-2574.91939	79.45032
90550.00000	79.16631	-2576.11968	79.16631
90600.00000	79.61449	-2577.49233	79.61449
90650.00000	79.46020	-2581.48991	79.46020
90700.00000	79.53628	-2583.04227	79.53628
90750.00000	79.90694	-2582.96863	79.90694
90800.00000	80.00478	-2587.12875	80.00478
90850.00000	80.28437	-2586.99542	80.28437
90900.00000	80.42694	-2592.64345	80.42694
90950.00000	80.56081	-2593.51138	80.56081
91000.00000	80.84949	-2597.64905	80.84949
91050.00000	81.06935	-2601.48160	81.06935
91100.00000	81.30960	-2604.94481	81.30960
91150.00000	81.39984	-2606.98090	81.39984
91200.00000	81.54731	-2611.50719	81.54731
91250.00000	81.79282	-2614.04856	81.79282
91300.00000	82.06290	-2617.20265	82.06290
91350.00000	82.09581	-2621.28686	82.09581
91400.00000	82.47884	-2624.73679	82.47884
91450.00000	82.37891	-2625.12029	82.37891
91500.00000	82.67723	-2631.77587	82.67723
91550.00000	82.73399	-2635.18315	82.73399
91600.00000	83.26641	-2638.72315	83.26641
91650.00000	83.28720	-2641.64859	83.28720
91700.00000	83.38218	-2646.28841	83.38218
91750.00000	83.41835	-2648.73621	83.41835
91800.00000	83.60304	-2653.03093	83.60304
91850.00000	83.62793	-2657.32484	83.62793
91900.00000	83.91355	-2661.73266	83.91355
91950.00000	83.68704	-2663.75701	83.68704
92000.00000	84.02874	-2668.98077	84.02874
92050.00000	84.01074	-2673.49028	84.01074
92100.00000	84.23821	-2677.20372	84.23821
92150.00000	84.22627	-2680.79263	84.22627
92200.00000	84.38396	-2685.85617	84.38396
92250.00000	84.39118	-2689.20026	84.39118
92300.00000	84.52861	-2691.56545	84.52861
92350.00000	84.68791	-2697.02129	84.68791
92400.00000	84.71092	-2701.50652	84.71092
92450.00000	84.54520	-2704.73925	84.54520
92500.00000	84.58891	-2709.28027	84.58891
92550.00000	84.59740	-2714.89882	84.59740
92600.00000	84.62278	-2718.21340	84.62278
92650.00000	84.39413	-2723.04175	84.39413
92700.00000	84.64723	-2726.27390	84.64723
92750.00000	84.32688	-2730.48383	84.32688
92800.00000	84.40649	-2733.44248	84.40649
92850.00000	84.35557	-2737.76085	84.35557
92900.00000	84.09740	-2741.39712	84.09740
92950.00000	84.13580	-2743.16155	84.13580
93000.00000	84.43703	-2747.82499	84.43703
93050.00000	84.14247	-2751.75079	84.14247
93100.00000	84.14867	-2754.14675	84.14867
93150.00000	84.27684	-2758.13879	84.27684
93200.00000	84.27497	-2762.91818	84.27497
93250.00000	84.32579	-2765.16658	84.32579
93300.00000	84.05407	-2770.59735	84.05407
93350.00000	84.14385	-2775.90591	84.14385
93400.00000	84.21955	-2778.91809	84.21955
93450.00000	84.19635	-2783.42802	84.19635
93500.00000	84.03317	-2787.03139	84.03317
93550.00000	84.03929	-2792.82911	84.03929
93600.00000	84.07262	-2797.07340	84.07262
93650.00000	83.87975	-2801.78553	83.87975
93700.00000	83.99519	-2805.83834	83.99519
93750.00000	83.58549	-2810.41159	83.58549
93800.00000	83.45108	-2815.53329	83.45108
93850.00000	83.50892	-2821.76955	83.50892
93900.00000	83.17914	-2825.26299	83.17914
93950.00000	83.03878	-2830.92388	83.03878
94000.00000	82.89495	-2834.04732	82.89495
94050.00000	82.67948	-2839.02038	82.67948
94100.00000	82.46498	-2843.24368	82.46498
94150.00000	82.33672	-2848.74734	82.33672
94200.00000	81.95831	-2853.97374	81.95831
94250.00000	81.96509	-2858.71035	81.96509
94300.00000	81.46965	-2863.30193	81.46965
94350.00000	80.92436	-2867.39444	80.92436
94400.00000	80.69353	-2870.74080	80.69353
94450.00000	80.79085	-2876.14807	80.79085
94500.00000	80.38143	-2879.59155	80.38143
94550.00000	79.98561	-2883.83214	79.98561
94600.00000	79.80671	-2890.00829	79.80671
94650.00000	79.17116	-2893.93939	79.17116
94700.00000	78.77111	-2894.93508	78.77111
94750.00000	78.29631	-2902.81493	78.29631
94800.00000	78.10956	-2908.70676	78.10956
94850.00000	78.12465	-2911.89033	78.12465
94900.00000	77.59589	-2915.68723	77.59589
94950.00000	76.48620	-2919.31032	76.48620
95000.00000	76.80560	-2922.99427	76.80560
95050.00000	75.50657	-2928.86050	75.50657
95100.00000	75.23428	-2929.77124	75.23428
95150.00000	74.45711	-2936.25667	74.45711
95200.00000	74.45956	-2937.57873	74.45956
95250.00000	72.95499	-2946.09516	72.95499
95300.00000	72.82493	-2943.21518	72.82493
95350.00000	72.09870	-2945.24590	72.09870
95400.00000	71.08483	-2949.82194	71.08483
95450.00000	70.71287	-2949.70727	70.71287
95500.00000	70.70938	-2954.44068	70.70938
95550.00000	71.33746	-2956.37855	71.33746
95600.00000	68.43866	-2946.74549	68.43866
95650.00000	70.50514	-2954.41019	70.50514
95700.00000	70.04620	-2950.51930	70.04620
95750.00000	68.07006	-2948.98257	68.07006
95800.00000	67.43845	-2954.85253	67.43845
95850.00000	68.60539	-2952.09901	68.60539
95900.00000	67.62989	-2952.61145	67.62989
95950.00000	67.05922	-2952.23695	67.05922
96000.00000	68.10973	-2943.58168	68.10973
96050.00000	68.29088	-2958.67590	68.29088
96100.00000	67.66767	-2965.57833	67.66767
96150.00000	68.62025	-2959.66230	68.62025
96200.00000	68.95736	-2962.06790	68.95736
96250.00000	66.16526	-2973.87188	66.16526
96300.00000	66.81416	-2962.54143	66.81416
96350.00000	65.12647	-2980.00509	65.12647
96400.00000	65.71411	-2971.63920	65.71411
96450.00000	65.69830	-2973.58816	65.69830
96500.00000	69.91978	-2972.44363	69.91978
96550.00000	66.20346	-2979.10142	66.20346
96600.00000	68.15127	-2992.23839	68.15127
96650.00000	60.63059	-2978.69855	60.63059
96700.00000	63.46053	-2993.87505	63.46053
96750.00000	64.74554	-2995.71710	64.74554
96800.00000	66.99221	-2987.99648	66.99221
96850.00000	64.07995	-2978.82020	64.07995
96900.00000	66.98689	-3014.32278	66.98689
96950.00000	68.86031	-2996.80144	68.86031
97000.00000	67.24236	-3004.52422	67.24236
97050.00000	63.82543	-3033.63366	63.82543
97100.00000	66.80045	-3005.66109	66.80045
97150.00000	66.15386	-3034.63346	66.15386
97200.00000	64.87719	-3026.03085	64.87719
97250.00000	62.24134	-3048.79435	62.24134
97300.00000	56.23888	-3114.53437	56.23888
97350.00000	55.11492	-2962.00768	55.11492
97400.00000	64.89165	-3029.02880	64.89165
97450.00000	58.63891	-3107.52375	58.63891
97500.00000	50.18572	-2920.33899	50.18572
97550.00000	53.60527	-2982.21641	53.60527
97600.00000	55.55663	-2917.37231	55.55663
97650.00000	54.21619	-2941.22901	54.21619
97700.00000	55.63283	-2946.74367	55.63283
97750.00000	53.88724	-2969.76451	53.88724
97800.00000	59.77278	-2941.87626	59.77278
97850.00000	61.02678	-2909.28914	61.02678
97900.00000	58.42465	-2936.38498	58.42465
97950.00000	59.24236	-2963.25573	59.24236
98000.00000	62.80484	-2962.06202	62.80484
98050.00000	61.67102	-2991.74579	61.67102
98100.00000	60.43783	-2976.61087	60.43783
98150.00000	58.54634	-2979.12826	58.54634
98200.00000	60.92672	-2964.47393	60.92672
98250.00000	55.81810	-2995.70348	55.81810
98300.00000	60.26411	-2968.82184	60.26411
98350.00000	61.41405	-3016.49334	61.41405
98400.00000	64.50479	-2993.93816	64.50479
98450.00000	61.81745	-2998.41067	61.81745
98500.00000	63.59331	-2989.92099	63.59331
98550.00000	60.64854	-2982.41055	60.64854
98600.00000	63.30658	-3002.15178	63.30658
98650.00000	61.79299	-3012.10777	61.79299
98700.00000	60.67304	-3018.19164	60.67304
98750.00000	61.78511	-3051.22566	61.78511
98800.00000	61.96936	-3057.84631	61.96936
98850.00000	60.46497	-3080.14960	60.46497
98900.00000	61.11960	-3061.15388	61.11960
98950.00000	59.61258	-3103.37917	59.61258
99000.00000	62.54406	-3097.84492	62.54406
99050.00000	59.94867	-3095.23960	59.94867
99100.00000	62.04765	-3075.84082	62.04765
99150.00000	60.69182	-3079.63498	60.69182
99200.00000	61.22546	-3090.92939	61.22546
99250.00000	61.57970	-3106.59824	61.57970
99300.00000	58.93096	-3114.10481	58.93096
99350.00000	62.41029	-3130.39068	62.41029
99400.00000	60.74667	-3143.63995	60.74667
99450.00000	60.31685	-3149.95972	60.31685
99500.00000	54.53945	-3173.70215	54.53945
99550.00000	55.40582	-3136.99682	55.40582
99600.00000	55.54212	-3157.00609	55.54212
99650.00000	55.47783	-3138.98516	55.47783
99700.00000	57.81269	-3160.95129	57.81269
99750.00000	56.47789	-3178.57546	56.47789
99800.00000	56.13403	-3161.27748	56.13403
99850.00000	59.02713	-3189.29543	59.02713
99900.00000	57.46155	-3205.38321	57.46155
99950.00000	59.97745	-3220.74633	59.97745
