---ACOUSTIC CALIBRATION---
Filename: C:\Data\CL0809 DATA\CL0809100\RightPrimary.calib
Date: 8/9/2019 9:00:41 AM
Format: 4
Probe Tube Correction File: C:\Data\Probe Tube Calibrations\74_ProbeTube.calib
Experiment VIs: 2128
EPL_CFTS.exe V15.0.1f5 (2015)
DAQmx V15.1

Attenuation (dB): 40.000000
Min Freq (Hz): 50.000000
Max Freq (Hz): 99950.000000
Freq Step (Hz): 50.000000
Sample Rate (Hz): 200000.000000
[Smoothing]
Method=None
MA.Iterations=0
MA.Length=0
Loess.Length=0
Loess.Type=Linear
Loess.Robust=FALSE


Freq(Hz)	Mag(dB)	Phase(deg)	Unsmoothed(dB)

50.00000	90.59523	104.86297	90.59523
100.00000	65.29434	220.61642	65.29434
150.00000	62.97838	393.08535	62.97838
200.00000	54.03527	720.49530	54.03527
250.00000	54.41360	1044.76440	54.41360
300.00000	65.10460	1204.60742	65.10460
350.00000	60.72724	1358.35637	60.72724
400.00000	60.00187	1427.72721	60.00187
450.00000	60.83300	1451.30689	60.83300
500.00000	63.73634	1573.53062	63.73634
550.00000	69.09337	1520.63892	69.09337
600.00000	65.64250	1486.91910	65.64250
650.00000	73.63448	1486.19509	73.63448
700.00000	72.28318	1491.61354	72.28318
750.00000	76.04610	1459.03546	76.04610
800.00000	78.16398	1450.20512	78.16398
850.00000	76.97404	1443.68148	76.97404
900.00000	77.62001	1451.98206	77.62001
950.00000	80.22651	1448.97399	80.22651
1000.00000	82.20126	1454.98465	82.20126
1050.00000	85.10463	1447.00100	85.10463
1100.00000	88.01468	1436.06890	88.01468
1150.00000	89.99358	1421.70689	89.99358
1200.00000	91.34547	1408.25912	91.34547
1250.00000	92.13448	1394.43932	92.13448
1300.00000	92.51689	1384.35363	92.51689
1350.00000	93.23167	1377.85328	93.23167
1400.00000	94.39955	1369.58596	94.39955
1450.00000	95.05784	1357.61646	95.05784
1500.00000	95.39092	1347.85450	95.39092
1550.00000	95.60013	1338.15576	95.60013
1600.00000	96.01783	1333.39175	96.01783
1650.00000	96.51633	1330.30362	96.51633
1700.00000	100.40734	1314.95194	100.40734
1750.00000	97.45569	1294.99509	97.45569
1800.00000	97.24381	1289.48414	97.24381
1850.00000	97.05905	1281.52478	97.05905
1900.00000	96.91560	1273.72728	96.91560
1950.00000	96.24494	1267.57627	96.24494
2000.00000	95.62844	1263.58597	95.62844
2050.00000	95.29199	1264.14690	95.29199
2100.00000	96.17001	1263.05976	96.17001
2150.00000	97.00922	1254.53158	97.00922
2200.00000	96.95609	1242.07450	96.95609
2250.00000	96.00123	1233.77613	96.00123
2300.00000	95.37797	1232.60925	95.37797
2350.00000	95.63733	1228.20403	95.63733
2400.00000	95.60891	1221.01639	95.60891
2450.00000	95.00509	1213.18975	95.00509
2500.00000	94.13886	1210.41895	94.13886
2550.00000	93.91020	1207.19098	93.91020
2600.00000	93.52827	1203.47169	93.52827
2650.00000	93.14858	1200.60828	93.14858
2700.00000	92.81227	1196.58368	92.81227
2750.00000	92.36728	1193.30129	92.36728
2800.00000	91.86528	1189.64022	91.86528
2850.00000	91.37488	1186.80559	91.37488
2900.00000	90.94666	1184.37583	90.94666
2950.00000	90.40172	1182.92568	90.40172
3000.00000	89.99615	1181.92863	89.99615
3050.00000	89.55314	1180.89337	89.55314
3100.00000	89.24341	1180.57132	89.24341
3150.00000	88.83048	1180.48732	88.83048
3200.00000	88.72125	1178.89607	88.72125
3250.00000	88.61485	1178.22101	88.61485
3300.00000	88.30707	1175.89699	88.30707
3350.00000	88.05952	1174.64574	88.05952
3400.00000	87.68225	1173.14307	87.68225
3450.00000	87.24444	1172.69204	87.24444
3500.00000	86.87813	1172.67741	86.87813
3550.00000	86.88562	1170.81811	86.88562
3600.00000	86.28559	1167.23851	86.28559
3650.00000	85.61735	1166.12053	85.61735
3700.00000	84.72192	1164.71285	84.72192
3750.00000	83.69073	1163.44339	83.69073
3800.00000	82.71886	1164.58874	82.71886
3850.00000	81.01727	1162.16104	81.01727
3900.00000	78.94674	1168.78394	78.94674
3950.00000	76.79979	1187.93764	76.79979
4000.00000	75.35406	1214.09471	75.35406
4050.00000	77.11423	1238.03534	77.11423
4100.00000	79.95436	1255.54474	79.95436
4150.00000	83.67553	1261.90674	83.67553
4200.00000	86.22987	1262.45427	86.22987
4250.00000	87.59885	1254.80131	87.59885
4300.00000	88.84423	1256.30515	88.84423
4350.00000	90.35880	1255.52250	90.35880
4400.00000	91.89835	1252.46382	91.89835
4450.00000	92.99704	1247.99787	92.99704
4500.00000	94.10141	1244.42748	94.10141
4550.00000	94.94034	1241.16881	94.94034
4600.00000	95.90946	1237.62092	95.90946
4650.00000	96.80104	1233.84823	96.80104
4700.00000	97.54907	1230.29418	97.54907
4750.00000	98.29194	1227.83446	98.29194
4800.00000	99.21915	1225.80174	99.21915
4850.00000	100.24478	1222.83056	100.24478
4900.00000	101.31893	1218.79200	101.31893
4950.00000	102.39683	1214.61860	102.39683
5000.00000	103.50418	1209.70669	103.50418
5050.00000	104.67850	1204.24525	104.67850
5100.00000	105.96698	1198.24137	105.96698
5150.00000	107.49038	1191.20176	107.49038
5200.00000	109.43191	1181.36492	109.43191
5250.00000	111.97797	1164.81039	111.97797
5300.00000	114.30254	1128.04964	114.30254
5350.00000	111.02943	1079.14025	111.02943
5400.00000	104.37992	1061.77065	104.37992
5450.00000	98.44445	1073.10357	98.44445
5500.00000	96.68049	1101.29765	96.68049
5550.00000	97.70597	1109.93464	97.70597
5600.00000	96.49029	1109.74840	96.49029
5650.00000	95.37980	1127.62559	95.37980
5700.00000	96.91013	1141.90094	96.91013
5750.00000	98.75804	1146.14148	98.75804
5800.00000	100.22957	1146.13644	100.22957
5850.00000	101.40706	1144.18907	101.40706
5900.00000	102.40148	1140.90930	102.40148
5950.00000	103.26767	1137.17225	103.26767
6000.00000	103.97465	1132.71921	103.97465
6050.00000	104.49330	1127.85242	104.49330
6100.00000	104.82965	1123.14812	104.82965
6150.00000	104.96824	1119.42300	104.96824
6200.00000	105.10629	1117.26240	105.10629
6250.00000	105.34743	1116.19809	105.34743
6300.00000	105.76431	1115.54488	105.76431
6350.00000	106.37467	1114.90712	106.37467
6400.00000	107.13632	1113.85327	107.13632
6450.00000	108.01151	1111.91433	108.01151
6500.00000	108.95669	1109.12590	108.95669
6550.00000	109.97973	1105.38095	109.97973
6600.00000	111.01355	1100.60142	111.01355
6650.00000	112.04903	1094.64230	112.04903
6700.00000	113.05412	1087.43714	113.05412
6750.00000	113.95665	1078.94641	113.95665
6800.00000	114.70229	1069.36882	114.70229
6850.00000	115.24498	1059.17582	115.24498
6900.00000	115.58694	1048.53098	115.58694
6950.00000	115.71834	1037.96963	115.71834
7000.00000	115.65945	1027.65396	115.65945
7050.00000	115.44962	1017.98278	115.44962
7100.00000	115.10287	1009.12739	115.10287
7150.00000	114.68303	1001.15571	114.68303
7200.00000	114.23612	993.98560	114.23612
7250.00000	113.78998	987.49438	113.78998
7300.00000	113.34796	981.44877	113.34796
7350.00000	112.91142	975.69560	112.91142
7400.00000	112.44682	970.44545	112.44682
7450.00000	112.01928	965.62052	112.01928
7500.00000	111.61421	960.95368	111.61421
7550.00000	111.21565	956.38105	111.21565
7600.00000	110.80109	952.05101	110.80109
7650.00000	110.39838	947.83737	110.39838
7700.00000	109.97429	943.85900	109.97429
7750.00000	109.55184	940.27934	109.55184
7800.00000	109.13144	936.94356	109.13144
7850.00000	108.74892	933.90381	108.74892
7900.00000	108.36622	930.98454	108.36622
7950.00000	108.02561	928.45964	108.02561
8000.00000	107.72384	926.07529	107.72384
8050.00000	107.42741	923.75616	107.42741
8100.00000	107.17594	921.51836	107.17594
8150.00000	106.96171	919.38478	106.96171
8200.00000	106.77665	917.22209	106.77665
8250.00000	106.63229	914.93319	106.63229
8300.00000	106.50133	912.59467	106.50133
8350.00000	106.33514	910.19269	106.33514
8400.00000	106.22363	908.01787	106.22363
8450.00000	106.12647	905.72264	106.12647
8500.00000	106.06089	903.33160	106.06089
8550.00000	105.99191	900.89899	105.99191
8600.00000	105.97245	898.40886	105.97245
8650.00000	105.95217	895.86156	105.95217
8700.00000	105.93136	892.87138	105.93136
8750.00000	105.89106	889.96092	105.89106
8800.00000	105.86606	886.96519	105.86606
8850.00000	105.88600	883.74200	105.88600
8900.00000	105.83827	880.44829	105.83827
8950.00000	105.82913	877.00092	105.82913
9000.00000	105.70409	873.25851	105.70409
9050.00000	105.64800	870.09952	105.64800
9100.00000	105.61764	866.70927	105.61764
9150.00000	105.56230	862.61146	105.56230
9200.00000	105.38130	859.02246	105.38130
9250.00000	105.23274	855.58993	105.23274
9300.00000	105.14054	851.74660	105.14054
9350.00000	104.94966	847.99004	104.94966
9400.00000	104.74016	844.14001	104.74016
9450.00000	104.54593	840.57304	104.54593
9500.00000	104.28836	836.98240	104.28836
9550.00000	104.02835	833.90576	104.02835
9600.00000	103.81271	830.91829	103.81271
9650.00000	103.60497	827.71864	103.60497
9700.00000	103.32293	824.58109	103.32293
9750.00000	103.04771	821.56402	103.04771
9800.00000	102.74434	819.05662	102.74434
9850.00000	102.45602	816.21869	102.45602
9900.00000	102.12297	814.34012	102.12297
9950.00000	101.72088	812.42360	101.72088
10000.00000	101.29913	812.28735	101.29913
10050.00000	101.13877	814.38421	101.13877
10100.00000	101.79424	815.04711	101.79424
10150.00000	102.23909	810.26384	102.23909
10200.00000	102.25073	805.20748	102.25073
10250.00000	102.08950	801.52628	102.08950
10300.00000	101.92965	798.32850	101.92965
10350.00000	101.77612	795.33546	101.77612
10400.00000	101.58345	792.54330	101.58345
10450.00000	101.47979	789.95783	101.47979
10500.00000	101.41189	787.14996	101.41189
10550.00000	101.36792	784.63181	101.36792
10600.00000	101.38024	781.52196	101.38024
10650.00000	101.32547	778.65374	101.32547
10700.00000	101.30631	775.41872	101.30631
10750.00000	101.30019	772.55848	101.30019
10800.00000	101.31947	768.82782	101.31947
10850.00000	101.33285	765.25721	101.33285
10900.00000	101.33013	761.62375	101.33013
10950.00000	101.30362	757.90621	101.30362
11000.00000	101.32734	753.72917	101.32734
11050.00000	101.20604	749.54770	101.20604
11100.00000	101.17864	745.55452	101.17864
11150.00000	101.10227	741.03021	101.10227
11200.00000	100.99290	736.67505	100.99290
11250.00000	100.80813	731.78439	100.80813
11300.00000	100.61737	727.10745	100.61737
11350.00000	100.42388	722.18735	100.42388
11400.00000	100.12229	717.24927	100.12229
11450.00000	99.84134	712.26671	99.84134
11500.00000	99.50896	707.32444	99.50896
11550.00000	99.15518	702.15587	99.15518
11600.00000	98.73905	697.46453	98.73905
11650.00000	98.30410	692.81067	98.30410
11700.00000	97.90571	688.13508	97.90571
11750.00000	97.45402	683.59055	97.45402
11800.00000	97.02787	679.54074	97.02787
11850.00000	96.60579	675.33330	96.60579
11900.00000	96.10921	671.56600	96.10921
11950.00000	95.67507	667.88381	95.67507
12000.00000	95.30379	664.43246	95.30379
12050.00000	94.77343	661.04210	94.77343
12100.00000	94.24469	657.58199	94.24469
12150.00000	93.67804	653.94235	93.67804
12200.00000	93.13900	650.37675	93.13900
12250.00000	92.58605	647.09173	92.58605
12300.00000	91.82689	644.07602	91.82689
12350.00000	91.23969	641.03440	91.23969
12400.00000	90.60377	637.15036	90.60377
12450.00000	89.98805	634.09355	89.98805
12500.00000	89.45581	631.07302	89.45581
12550.00000	88.77736	627.95950	88.77736
12600.00000	88.16810	624.21589	88.16810
12650.00000	87.57712	621.88792	87.57712
12700.00000	86.76823	618.17199	86.76823
12750.00000	86.28014	615.98120	86.28014
12800.00000	85.67057	611.22616	85.67057
12850.00000	85.05478	609.26330	85.05478
12900.00000	84.39518	604.38005	84.39518
12950.00000	83.81446	599.65883	83.81446
13000.00000	83.10286	594.64421	83.10286
13050.00000	82.59197	589.74114	82.59197
13100.00000	82.06919	584.84730	82.06919
13150.00000	81.66177	580.35599	81.66177
13200.00000	81.60725	571.05242	81.60725
13250.00000	81.58484	561.73834	81.58484
13300.00000	81.71341	557.80595	81.71341
13350.00000	82.62745	550.58331	82.62745
13400.00000	83.09182	548.84021	83.09182
13450.00000	83.53210	553.20301	83.53210
13500.00000	83.05059	563.05672	83.05059
13550.00000	81.85700	564.15890	81.85700
13600.00000	80.35936	562.98791	80.35936
13650.00000	78.48623	555.34148	78.48623
13700.00000	77.58421	547.13136	77.58421
13750.00000	76.80083	532.95872	76.80083
13800.00000	76.55109	520.47899	76.55109
13850.00000	76.83396	506.37111	76.83396
13900.00000	77.21597	493.98045	77.21597
13950.00000	78.06764	481.18838	78.06764
14000.00000	79.89361	472.35929	79.89361
14050.00000	81.82075	466.24842	81.82075
14100.00000	84.46480	463.83892	84.46480
14150.00000	86.64376	473.61907	86.64376
14200.00000	87.09685	486.56593	87.09685
14250.00000	86.56354	494.47809	86.56354
14300.00000	85.45083	496.94411	85.45083
14350.00000	84.50459	492.20147	84.50459
14400.00000	84.06674	488.03142	84.06674
14450.00000	83.86241	481.42019	83.86241
14500.00000	83.49278	476.21186	83.49278
14550.00000	84.08886	467.85326	84.08886
14600.00000	84.10384	462.46203	84.10384
14650.00000	85.15399	455.10224	85.15399
14700.00000	85.96065	448.88278	85.96065
14750.00000	87.13371	442.66991	87.13371
14800.00000	88.21501	438.65135	88.21501
14850.00000	89.64741	436.16427	89.64741
14900.00000	90.88528	435.33260	90.88528
14950.00000	91.92292	438.01795	91.92292
15000.00000	92.52100	440.97274	92.52100
15050.00000	92.73607	442.23263	92.73607
15100.00000	93.00039	442.84728	93.00039
15150.00000	93.03580	440.75689	93.03580
15200.00000	93.13191	436.37595	93.13191
15250.00000	93.23664	432.89892	93.23664
15300.00000	93.32117	426.35462	93.32117
15350.00000	93.65789	420.71616	93.65789
15400.00000	94.00779	414.88693	94.00779
15450.00000	94.63639	407.72085	94.63639
15500.00000	95.39818	402.12791	95.39818
15550.00000	96.07546	397.70949	96.07546
15600.00000	96.74983	393.50183	96.74983
15650.00000	97.48001	389.87431	97.48001
15700.00000	97.92466	387.48952	97.92466
15750.00000	98.29288	385.91653	98.29288
15800.00000	98.48322	384.02412	98.48322
15850.00000	98.67011	382.37537	98.67011
15900.00000	98.62552	378.75754	98.62552
15950.00000	98.64834	374.76914	98.64834
16000.00000	98.68729	370.19497	98.68729
16050.00000	98.83987	365.45008	98.83987
16100.00000	98.91183	360.85860	98.91183
16150.00000	99.09512	355.46467	99.09512
16200.00000	99.40376	351.79207	99.40376
16250.00000	99.69312	346.88921	99.69312
16300.00000	100.02922	342.72929	100.02922
16350.00000	100.38514	339.89260	100.38514
16400.00000	100.51747	337.15724	100.51747
16450.00000	100.75859	334.58044	100.75859
16500.00000	100.88198	332.14543	100.88198
16550.00000	100.94623	329.45435	100.94623
16600.00000	101.04976	326.37923	101.04976
16650.00000	101.02423	322.98990	101.02423
16700.00000	101.11278	319.57958	101.11278
16750.00000	101.13348	315.70486	101.13348
16800.00000	101.22170	312.48745	101.22170
16850.00000	101.40401	308.46725	101.40401
16900.00000	101.56028	305.31565	101.56028
16950.00000	101.73877	302.02669	101.73877
17000.00000	101.96908	299.09380	101.96908
17050.00000	102.17118	296.29096	102.17118
17100.00000	102.27488	293.63521	102.27488
17150.00000	102.46714	290.64129	102.46714
17200.00000	102.49646	287.90731	102.49646
17250.00000	102.61691	284.78099	102.61691
17300.00000	102.69986	281.67332	102.69986
17350.00000	102.77992	278.11543	102.77992
17400.00000	102.91929	274.25149	102.91929
17450.00000	103.06328	270.89877	103.06328
17500.00000	103.13023	267.01999	103.13023
17550.00000	103.27965	263.35760	103.27965
17600.00000	103.43148	259.80774	103.43148
17650.00000	103.52975	256.69839	103.52975
17700.00000	103.63973	253.23040	103.63973
17750.00000	103.72810	249.87360	103.72810
17800.00000	103.75243	246.48160	103.75243
17850.00000	103.79543	243.18940	103.79543
17900.00000	103.82940	239.80894	103.82940
17950.00000	103.82060	236.14509	103.82060
18000.00000	103.81650	232.72200	103.81650
18050.00000	103.79244	229.25325	103.79244
18100.00000	103.77899	225.80592	103.77899
18150.00000	103.70464	222.41537	103.70464
18200.00000	103.71107	219.25774	103.71107
18250.00000	103.66419	216.20040	103.66419
18300.00000	103.58453	213.01611	103.58453
18350.00000	103.53532	209.99477	103.53532
18400.00000	103.46913	207.30677	103.46913
18450.00000	103.44579	204.47058	103.44579
18500.00000	103.43250	201.88491	103.43250
18550.00000	103.37021	199.03529	103.37021
18600.00000	103.35551	196.61142	103.35551
18650.00000	103.35067	193.80095	103.35067
18700.00000	103.35833	191.51225	103.35833
18750.00000	103.33347	188.95612	103.33347
18800.00000	103.31696	186.47292	103.31696
18850.00000	103.30287	184.26513	103.30287
18900.00000	103.29634	181.85300	103.29634
18950.00000	103.30984	179.09963	103.30984
19000.00000	103.27401	176.49950	103.27401
19050.00000	103.30023	173.88860	103.30023
19100.00000	103.31149	171.28052	103.31149
19150.00000	103.34076	169.00010	103.34076
19200.00000	103.37437	166.18724	103.37437
19250.00000	103.36768	163.91395	103.36768
19300.00000	103.41290	161.53300	103.41290
19350.00000	103.45480	158.95074	103.45480
19400.00000	103.45985	156.38529	103.45985
19450.00000	103.45945	153.70745	103.45945
19500.00000	103.49137	151.26623	103.49137
19550.00000	103.52178	148.84029	103.52178
19600.00000	103.54599	146.21692	103.54599
19650.00000	103.57769	143.60269	103.57769
19700.00000	103.62336	140.94045	103.62336
19750.00000	103.63547	138.43742	103.63547
19800.00000	103.68385	136.00562	103.68385
19850.00000	103.71108	133.39712	103.71108
19900.00000	103.75080	130.81531	103.75080
19950.00000	103.78877	128.30385	103.78877
20000.00000	103.78624	125.37741	103.78624
20050.00000	103.83142	122.91356	103.83142
20100.00000	103.88107	120.11072	103.88107
20150.00000	103.91149	117.26750	103.91149
20200.00000	103.93997	114.54310	103.93997
20250.00000	103.99609	112.08226	103.99609
20300.00000	104.01749	109.45484	104.01749
20350.00000	104.03011	106.71082	104.03011
20400.00000	104.06629	104.04687	104.06629
20450.00000	104.10027	101.17213	104.10027
20500.00000	104.14180	98.34472	104.14180
20550.00000	104.14193	95.43137	104.14193
20600.00000	104.15872	92.51341	104.15872
20650.00000	104.21220	89.67647	104.21220
20700.00000	104.25059	87.20270	104.25059
20750.00000	104.23282	84.24453	104.23282
20800.00000	104.24792	81.61215	104.24792
20850.00000	104.27706	78.51304	104.27706
20900.00000	104.24206	75.88974	104.24206
20950.00000	104.25910	72.95606	104.25910
21000.00000	104.28149	69.88130	104.28149
21050.00000	104.30158	67.04299	104.30158
21100.00000	104.30902	64.21371	104.30902
21150.00000	104.32152	61.52117	104.32152
21200.00000	104.31775	58.81492	104.31775
21250.00000	104.27694	55.79837	104.27694
21300.00000	104.26172	52.88864	104.26172
21350.00000	104.27075	50.00052	104.27075
21400.00000	104.25301	46.95324	104.25301
21450.00000	104.28411	43.93496	104.28411
21500.00000	104.32176	41.37332	104.32176
21550.00000	104.29530	38.32006	104.29530
21600.00000	104.30034	35.18170	104.30034
21650.00000	104.28569	32.45336	104.28569
21700.00000	104.25555	28.96129	104.25555
21750.00000	104.25022	25.95599	104.25022
21800.00000	104.21580	22.84601	104.21580
21850.00000	104.20842	19.74912	104.20842
21900.00000	104.15295	16.80952	104.15295
21950.00000	104.12552	13.66517	104.12552
22000.00000	104.02351	10.60852	104.02351
22050.00000	103.98056	 7.84115	103.98056
22100.00000	103.92725	 5.24885	103.92725
22150.00000	103.87342	 2.17001	103.87342
22200.00000	103.84621	-0.91669	103.84621
22250.00000	103.79758	-3.82865	103.79758
22300.00000	103.76994	-6.96094	103.76994
22350.00000	103.71688	-10.16366	103.71688
22400.00000	103.64256	-13.27034	103.64256
22450.00000	103.59533	-16.49883	103.59533
22500.00000	103.48436	-19.77475	103.48436
22550.00000	103.44625	-23.04855	103.44625
22600.00000	103.32251	-26.01045	103.32251
22650.00000	103.22689	-28.95057	103.22689
22700.00000	103.14372	-31.78349	103.14372
22750.00000	103.03114	-35.27804	103.03114
22800.00000	102.89484	-38.27634	102.89484
22850.00000	102.78588	-41.44737	102.78588
22900.00000	102.67179	-44.14485	102.67179
22950.00000	102.57727	-47.26308	102.57727
23000.00000	102.41110	-50.16084	102.41110
23050.00000	102.23500	-53.50066	102.23500
23100.00000	102.14792	-56.34208	102.14792
23150.00000	101.95689	-59.45854	101.95689
23200.00000	101.78041	-62.45257	101.78041
23250.00000	101.71134	-65.43170	101.71134
23300.00000	101.54141	-68.75021	101.54141
23350.00000	101.28233	-71.41784	101.28233
23400.00000	101.13116	-73.96485	101.13116
23450.00000	100.94737	-76.54320	100.94737
23500.00000	100.78752	-79.15850	100.78752
23550.00000	100.56335	-82.07252	100.56335
23600.00000	100.41745	-84.80624	100.41745
23650.00000	100.16170	-87.24509	100.16170
23700.00000	100.00159	-89.73198	100.00159
23750.00000	99.77026	-92.32162	99.77026
23800.00000	99.51820	-94.77626	99.51820
23850.00000	99.37312	-97.24238	99.37312
23900.00000	99.08859	-99.13720	99.08859
23950.00000	98.87323	-101.39486	98.87323
24000.00000	98.71862	-103.79614	98.71862
24050.00000	98.49329	-106.13334	98.49329
24100.00000	98.26704	-108.34237	98.26704
24150.00000	98.07495	-109.90788	98.07495
24200.00000	97.87472	-112.18127	97.87472
24250.00000	97.64438	-114.14947	97.64438
24300.00000	97.45800	-115.91575	97.45800
24350.00000	97.29110	-117.70783	97.29110
24400.00000	97.25144	-119.47925	97.25144
24450.00000	96.90836	-120.93777	96.90836
24500.00000	96.69454	-123.65062	96.69454
24550.00000	96.47830	-125.55699	96.47830
24600.00000	96.34421	-127.49566	96.34421
24650.00000	96.11099	-129.08036	96.11099
24700.00000	96.00767	-130.19527	96.00767
24750.00000	95.88793	-132.10149	95.88793
24800.00000	95.71472	-133.16985	95.71472
24850.00000	95.66928	-134.72354	95.66928
24900.00000	95.45831	-136.12124	95.45831
24950.00000	95.47605	-137.63222	95.47605
25000.00000	95.24985	-139.65606	95.24985
25050.00000	95.15916	-140.66390	95.15916
25100.00000	95.13549	-141.75258	95.13549
25150.00000	94.96326	-143.00412	94.96326
25200.00000	94.85016	-144.85225	94.85016
25250.00000	94.77204	-146.91925	94.77204
25300.00000	94.62284	-148.61948	94.62284
25350.00000	94.59617	-150.37743	94.59617
25400.00000	94.56316	-151.78912	94.56316
25450.00000	94.57894	-154.23805	94.57894
25500.00000	94.51555	-155.65079	94.51555
25550.00000	94.43363	-157.52509	94.43363
25600.00000	94.38971	-159.18677	94.38971
25650.00000	94.27432	-161.68655	94.27432
25700.00000	94.27279	-163.28025	94.27279
25750.00000	94.21198	-165.85133	94.21198
25800.00000	94.17992	-167.02459	94.17992
25850.00000	94.08871	-169.27904	94.08871
25900.00000	93.95897	-171.64390	93.95897
25950.00000	93.91950	-173.66042	93.91950
26000.00000	93.83441	-175.35809	93.83441
26050.00000	93.88839	-177.82193	93.88839
26100.00000	93.79544	-179.93302	93.79544
26150.00000	93.70882	-182.67802	93.70882
26200.00000	93.57453	-184.36372	93.57453
26250.00000	93.52117	-186.76589	93.52117
26300.00000	93.35848	-189.61780	93.35848
26350.00000	93.31862	-192.18250	93.31862
26400.00000	93.25483	-194.95903	93.25483
26450.00000	93.00587	-197.66220	93.00587
26500.00000	92.96531	-200.05719	92.96531
26550.00000	92.80472	-201.37902	92.80472
26600.00000	92.59507	-204.24643	92.59507
26650.00000	92.48230	-207.04306	92.48230
26700.00000	92.28080	-209.69355	92.28080
26750.00000	92.09658	-211.95148	92.09658
26800.00000	91.94863	-214.26506	91.94863
26850.00000	91.70266	-216.52325	91.70266
26900.00000	91.48276	-218.98586	91.48276
26950.00000	91.19068	-221.41758	91.19068
27000.00000	90.91653	-223.68302	90.91653
27050.00000	90.70023	-225.69706	90.70023
27100.00000	90.35211	-227.64268	90.35211
27150.00000	90.04761	-229.36167	90.04761
27200.00000	89.84119	-231.87867	89.84119
27250.00000	89.54663	-233.33460	89.54663
27300.00000	89.26677	-235.34929	89.26677
27350.00000	88.91262	-236.99308	88.91262
27400.00000	88.51866	-238.01008	88.51866
27450.00000	88.38057	-240.09211	88.38057
27500.00000	88.04384	-241.38833	88.04384
27550.00000	87.69186	-241.97241	87.69186
27600.00000	87.50035	-243.15028	87.50035
27650.00000	87.04992	-244.99016	87.04992
27700.00000	86.71914	-245.80744	86.71914
27750.00000	86.52061	-246.34898	86.52061
27800.00000	86.06177	-247.03793	86.06177
27850.00000	85.85111	-247.86126	85.85111
27900.00000	85.48131	-248.57253	85.48131
27950.00000	85.27235	-248.06370	85.27235
28000.00000	84.91713	-247.29607	84.91713
28050.00000	84.76124	-247.34536	84.76124
28100.00000	84.54870	-247.13965	84.54870
28150.00000	84.19984	-247.26843	84.19984
28200.00000	84.19501	-247.42511	84.19501
28250.00000	83.91994	-247.25433	83.91994
28300.00000	83.71976	-247.45382	83.71976
28350.00000	83.56200	-246.90510	83.56200
28400.00000	83.28983	-246.64714	83.28983
28450.00000	83.20537	-247.17424	83.20537
28500.00000	83.12199	-246.24948	83.12199
28550.00000	82.98736	-245.30697	82.98736
28600.00000	83.03280	-245.12723	83.03280
28650.00000	82.99914	-244.60571	82.99914
28700.00000	82.93139	-245.01467	82.93139
28750.00000	82.84713	-244.59100	82.84713
28800.00000	82.71120	-245.08887	82.71120
28850.00000	82.75750	-243.97206	82.75750
28900.00000	82.88026	-244.02770	82.88026
28950.00000	82.67070	-243.65166	82.67070
29000.00000	82.68949	-244.17157	82.68949
29050.00000	82.64842	-243.42761	82.64842
29100.00000	82.63751	-242.17646	82.63751
29150.00000	82.73509	-241.51062	82.73509
29200.00000	82.76211	-242.14043	82.76211
29250.00000	83.00866	-241.80684	83.00866
29300.00000	82.96570	-241.11000	82.96570
29350.00000	83.03732	-241.23571	83.03732
29400.00000	83.12696	-241.48060	83.12696
29450.00000	83.27313	-241.80093	83.27313
29500.00000	83.34038	-242.19564	83.34038
29550.00000	83.59202	-241.56020	83.59202
29600.00000	83.52405	-241.50507	83.52405
29650.00000	83.65076	-241.98185	83.65076
29700.00000	83.84616	-242.54694	83.84616
29750.00000	84.05343	-243.38782	84.05343
29800.00000	84.12812	-243.53977	84.12812
29850.00000	84.41557	-242.83723	84.41557
29900.00000	84.44512	-243.57264	84.44512
29950.00000	84.75458	-243.80684	84.75458
30000.00000	84.74866	-245.15511	84.74866
30050.00000	85.05179	-244.89984	85.05179
30100.00000	85.24038	-245.60126	85.24038
30150.00000	85.36183	-245.99964	85.36183
30200.00000	85.57277	-247.20669	85.57277
30250.00000	85.74267	-248.06773	85.74267
30300.00000	85.85166	-249.01615	85.85166
30350.00000	86.21336	-250.36894	86.21336
30400.00000	86.36939	-251.08340	86.36939
30450.00000	86.52661	-251.98161	86.52661
30500.00000	86.73584	-252.70549	86.73584
30550.00000	86.96038	-254.50251	86.96038
30600.00000	87.10657	-255.28962	87.10657
30650.00000	87.26346	-256.05000	87.26346
30700.00000	87.37761	-257.58615	87.37761
30750.00000	87.69507	-259.04113	87.69507
30800.00000	87.81275	-260.66761	87.81275
30850.00000	88.02167	-261.84025	88.02167
30900.00000	88.22838	-263.77878	88.22838
30950.00000	88.38059	-264.52316	88.38059
31000.00000	88.59830	-265.72234	88.59830
31050.00000	88.80705	-267.65909	88.80705
31100.00000	88.90523	-269.16900	88.90523
31150.00000	89.06692	-271.05305	89.06692
31200.00000	89.29774	-272.65372	89.29774
31250.00000	89.45250	-274.24453	89.45250
31300.00000	89.65752	-276.22650	89.65752
31350.00000	89.77539	-277.74910	89.77539
31400.00000	89.97260	-279.41385	89.97260
31450.00000	90.21405	-281.32845	90.21405
31500.00000	90.28161	-283.94544	90.28161
31550.00000	90.43487	-285.72575	90.43487
31600.00000	90.60520	-287.48695	90.60520
31650.00000	90.81476	-289.46548	90.81476
31700.00000	90.86406	-291.41789	90.86406
31750.00000	91.04912	-293.23389	91.04912
31800.00000	91.11749	-295.45961	91.11749
31850.00000	91.24170	-297.72529	91.24170
31900.00000	91.37513	-299.95576	91.37513
31950.00000	91.44920	-301.85150	91.44920
32000.00000	91.49341	-304.51150	91.49341
32050.00000	91.46048	-307.12439	91.46048
32100.00000	91.52422	-308.55785	91.52422
32150.00000	91.66094	-310.92113	91.66094
32200.00000	91.60362	-312.99920	91.60362
32250.00000	91.65812	-314.70009	91.65812
32300.00000	91.74064	-316.50542	91.74064
32350.00000	91.72195	-318.48114	91.72195
32400.00000	91.70296	-320.47795	91.70296
32450.00000	91.67885	-322.63304	91.67885
32500.00000	91.72180	-323.82067	91.72180
32550.00000	91.70716	-325.73564	91.70716
32600.00000	91.72463	-327.86915	91.72463
32650.00000	91.62982	-328.97446	91.62982
32700.00000	91.64978	-330.09345	91.64978
32750.00000	91.60611	-332.29598	91.60611
32800.00000	91.64028	-332.80106	91.64028
32850.00000	91.65851	-333.67750	91.65851
32900.00000	91.72051	-334.94790	91.72051
32950.00000	91.71220	-336.38116	91.71220
33000.00000	91.76223	-338.08410	91.76223
33050.00000	91.66650	-338.64630	91.66650
33100.00000	91.86429	-340.07589	91.86429
33150.00000	91.87599	-341.19071	91.87599
33200.00000	91.86707	-342.10614	91.86707
33250.00000	91.92674	-343.39650	91.92674
33300.00000	91.94820	-343.94294	91.94820
33350.00000	92.03419	-344.69651	92.03419
33400.00000	92.17987	-345.90739	92.17987
33450.00000	92.22905	-346.66649	92.22905
33500.00000	92.26955	-347.13186	92.26955
33550.00000	92.42984	-348.24086	92.42984
33600.00000	92.64669	-349.13467	92.64669
33650.00000	92.70195	-349.59263	92.70195
33700.00000	92.84578	-351.10017	92.84578
33750.00000	92.95539	-352.01474	92.95539
33800.00000	93.05953	-353.45721	93.05953
33850.00000	93.29107	-354.28613	93.29107
33900.00000	93.33604	-355.43048	93.33604
33950.00000	93.46109	-356.11177	93.46109
34000.00000	93.68581	-357.09544	93.68581
34050.00000	93.77624	-358.35877	93.77624
34100.00000	93.90735	-359.21374	93.90735
34150.00000	94.08501	-360.06262	94.08501
34200.00000	94.27501	-360.96657	94.27501
34250.00000	94.47857	-362.02933	94.47857
34300.00000	94.64420	-363.37890	94.64420
34350.00000	94.91067	-364.62035	94.91067
34400.00000	95.16250	-365.44067	95.16250
34450.00000	95.37533	-366.44525	95.37533
34500.00000	95.56171	-367.31475	95.56171
34550.00000	95.84344	-369.08169	95.84344
34600.00000	96.07659	-370.47975	96.07659
34650.00000	96.16770	-372.17119	96.16770
34700.00000	96.27448	-372.89612	96.27448
34750.00000	96.51858	-374.04577	96.51858
34800.00000	96.74680	-374.66933	96.74680
34850.00000	97.04283	-375.33920	97.04283
34900.00000	97.35705	-376.41562	97.35705
34950.00000	97.67819	-377.80513	97.67819
35000.00000	97.98510	-378.73932	97.98510
35050.00000	98.31042	-380.26654	98.31042
35100.00000	98.69787	-381.62878	98.69787
35150.00000	99.06686	-383.51145	99.06686
35200.00000	99.41727	-384.60771	99.41727
35250.00000	99.79730	-386.40125	99.79730
35300.00000	100.19901	-388.13394	100.19901
35350.00000	100.59049	-390.49012	100.59049
35400.00000	100.96657	-392.49128	100.96657
35450.00000	101.34445	-395.42603	101.34445
35500.00000	101.69051	-397.57277	101.69051
35550.00000	102.12254	-399.93979	102.12254
35600.00000	102.49046	-402.69012	102.49046
35650.00000	102.85905	-405.62545	102.85905
35700.00000	103.24160	-408.99083	103.24160
35750.00000	103.54705	-411.67595	103.54705
35800.00000	103.92190	-415.30870	103.92190
35850.00000	104.20285	-418.26238	104.20285
35900.00000	104.52842	-421.93371	104.52842
35950.00000	104.81290	-425.28669	104.81290
36000.00000	105.07489	-428.89826	105.07489
36050.00000	105.33579	-432.57277	105.33579
36100.00000	105.58275	-436.59882	105.58275
36150.00000	105.74963	-440.33958	105.74963
36200.00000	105.96459	-444.17343	105.96459
36250.00000	106.10668	-448.07598	106.10668
36300.00000	106.21995	-451.89166	106.21995
36350.00000	106.36042	-455.81250	106.36042
36400.00000	106.42706	-459.44036	106.42706
36450.00000	106.48641	-463.07000	106.48641
36500.00000	106.53179	-466.61014	106.53179
36550.00000	106.59367	-470.29913	106.59367
36600.00000	106.59992	-473.95231	106.59992
36650.00000	106.57554	-477.06042	106.57554
36700.00000	106.61512	-480.10021	106.61512
36750.00000	106.57660	-483.16471	106.57660
36800.00000	106.55970	-486.09105	106.55970
36850.00000	106.52297	-489.17427	106.52297
36900.00000	106.47588	-491.92098	106.47588
36950.00000	106.41006	-494.43355	106.41006
37000.00000	106.37912	-496.87144	106.37912
37050.00000	106.34196	-499.04212	106.34196
37100.00000	106.30617	-501.15812	106.30617
37150.00000	106.30560	-503.38725	106.30560
37200.00000	106.26389	-505.21017	106.26389
37250.00000	106.27281	-506.95327	106.27281
37300.00000	106.28168	-508.67608	106.28168
37350.00000	106.28802	-510.09095	106.28802
37400.00000	106.30980	-511.69338	106.30980
37450.00000	106.36966	-512.86203	106.36966
37500.00000	106.42680	-513.90802	106.42680
37550.00000	106.56724	-514.83863	106.56724
37600.00000	106.71465	-515.91757	106.71465
37650.00000	106.90310	-516.92574	106.90310
37700.00000	107.14164	-517.89875	107.14164
37750.00000	107.41899	-518.86717	107.41899
37800.00000	107.70046	-520.05017	107.70046
37850.00000	108.07309	-521.26513	108.07309
37900.00000	108.46559	-522.75308	108.46559
37950.00000	108.87415	-524.63356	108.87415
38000.00000	109.35241	-526.74918	109.35241
38050.00000	109.81060	-529.28773	109.81060
38100.00000	110.25851	-532.03296	110.25851
38150.00000	110.71251	-535.09862	110.71251
38200.00000	111.14988	-538.56132	111.14988
38250.00000	111.56275	-542.06913	111.56275
38300.00000	111.95558	-546.04884	111.95558
38350.00000	112.31336	-550.09164	112.31336
38400.00000	112.64915	-554.24095	112.64915
38450.00000	112.95673	-558.57884	112.95673
38500.00000	113.24141	-562.97409	113.24141
38550.00000	113.49957	-567.53091	113.49957
38600.00000	113.71706	-571.89825	113.71706
38650.00000	113.91830	-576.55272	113.91830
38700.00000	114.09490	-581.04958	114.09490
38750.00000	114.24537	-585.51247	114.24537
38800.00000	114.36947	-590.04620	114.36947
38850.00000	114.50302	-594.52415	114.50302
38900.00000	114.59302	-598.91050	114.59302
38950.00000	114.68054	-603.25865	114.68054
39000.00000	114.75134	-607.62275	114.75134
39050.00000	114.81557	-611.95965	114.81557
39100.00000	114.85678	-616.35404	114.85678
39150.00000	114.88735	-620.54564	114.88735
39200.00000	114.90602	-624.78405	114.90602
39250.00000	114.91820	-628.77484	114.91820
39300.00000	114.91666	-632.84898	114.91666
39350.00000	114.93596	-636.78581	114.93596
39400.00000	114.94687	-640.71572	114.94687
39450.00000	114.99205	-644.64415	114.99205
39500.00000	115.01108	-648.65360	115.01108
39550.00000	115.03789	-652.72170	115.03789
39600.00000	115.04994	-656.83447	115.04994
39650.00000	115.05339	-661.10040	115.05339
39700.00000	115.03643	-665.25838	115.03643
39750.00000	115.00971	-669.42794	115.00971
39800.00000	114.95313	-673.61604	114.95313
39850.00000	114.90605	-677.84856	114.90605
39900.00000	114.80758	-682.04172	114.80758
39950.00000	114.73909	-686.24040	114.73909
40000.00000	114.64339	-690.34958	114.64339
40050.00000	114.51871	-694.46918	114.51871
40100.00000	114.40201	-698.46750	114.40201
40150.00000	114.24911	-702.38901	114.24911
40200.00000	114.09745	-706.34133	114.09745
40250.00000	113.93061	-710.19984	113.93061
40300.00000	113.76002	-713.88438	113.76002
40350.00000	113.55879	-717.47412	113.55879
40400.00000	113.36860	-721.06909	113.36860
40450.00000	113.14915	-724.51158	113.14915
40500.00000	112.93710	-727.71406	112.93710
40550.00000	112.72037	-730.92737	112.72037
40600.00000	112.51197	-733.86914	112.51197
40650.00000	112.28707	-736.84539	112.28707
40700.00000	112.06166	-739.67833	112.06166
40750.00000	111.86761	-742.27049	111.86761
40800.00000	111.68284	-744.72443	111.68284
40850.00000	111.46313	-747.15598	111.46313
40900.00000	111.34200	-749.46453	111.34200
40950.00000	111.16526	-751.73490	111.16526
41000.00000	111.03423	-754.01481	111.03423
41050.00000	110.90931	-756.18846	110.90931
41100.00000	110.80510	-758.25776	110.80510
41150.00000	110.74555	-760.56054	110.74555
41200.00000	110.67852	-762.87409	110.67852
41250.00000	110.63126	-765.12273	110.63126
41300.00000	110.59457	-767.52162	110.59457
41350.00000	110.59076	-770.04973	110.59076
41400.00000	110.57507	-772.66400	110.57507
41450.00000	110.53960	-775.39655	110.53960
41500.00000	110.51894	-778.02890	110.51894
41550.00000	110.48661	-780.86543	110.48661
41600.00000	110.45847	-783.89643	110.45847
41650.00000	110.39576	-787.08250	110.39576
41700.00000	110.33187	-790.29693	110.33187
41750.00000	110.24793	-793.31715	110.24793
41800.00000	110.18007	-796.61048	110.18007
41850.00000	110.05011	-799.93837	110.05011
41900.00000	109.95000	-803.11847	109.95000
41950.00000	109.80657	-806.36035	109.80657
42000.00000	109.64370	-809.83463	109.64370
42050.00000	109.46450	-812.90342	109.46450
42100.00000	109.30186	-815.80976	109.30186
42150.00000	109.06762	-818.92194	109.06762
42200.00000	108.85020	-821.82717	108.85020
42250.00000	108.64005	-824.50677	108.64005
42300.00000	108.39106	-827.09824	108.39106
42350.00000	108.12117	-829.84648	108.12117
42400.00000	107.86863	-832.15193	107.86863
42450.00000	107.64947	-834.64481	107.64947
42500.00000	107.37108	-836.77811	107.37108
42550.00000	107.13850	-839.04727	107.13850
42600.00000	106.86529	-841.14948	106.86529
42650.00000	106.57550	-842.70230	106.57550
42700.00000	106.35331	-844.49433	106.35331
42750.00000	106.10788	-846.33028	106.10788
42800.00000	105.89169	-847.99968	105.89169
42850.00000	105.64070	-849.40188	105.64070
42900.00000	105.37916	-850.87300	105.37916
42950.00000	105.24065	-852.28664	105.24065
43000.00000	104.98734	-853.02557	104.98734
43050.00000	104.73700	-854.59267	104.73700
43100.00000	104.62281	-855.63343	104.62281
43150.00000	104.40868	-856.65956	104.40868
43200.00000	104.32006	-857.58238	104.32006
43250.00000	104.14632	-858.34712	104.14632
43300.00000	103.98914	-859.05084	103.98914
43350.00000	103.90970	-859.45846	103.90970
43400.00000	103.83411	-860.52845	103.83411
43450.00000	103.69805	-860.16598	103.69805
43500.00000	103.62097	-860.56287	103.62097
43550.00000	103.54160	-861.03849	103.54160
43600.00000	103.52025	-861.63708	103.52025
43650.00000	103.51239	-862.04437	103.51239
43700.00000	103.51506	-862.57005	103.51506
43750.00000	103.57440	-862.59496	103.57440
43800.00000	103.55812	-863.06497	103.55812
43850.00000	103.61311	-863.91136	103.61311
43900.00000	103.70149	-864.35323	103.70149
43950.00000	103.90298	-864.65732	103.90298
44000.00000	103.98108	-865.04383	103.98108
44050.00000	104.15642	-866.10708	104.15642
44100.00000	104.30509	-866.75563	104.30509
44150.00000	104.49263	-867.02292	104.49263
44200.00000	104.74503	-868.02605	104.74503
44250.00000	104.96170	-869.40895	104.96170
44300.00000	105.17977	-870.46774	105.17977
44350.00000	105.41084	-871.30789	105.41084
44400.00000	105.73551	-872.33267	105.73551
44450.00000	105.96152	-873.94785	105.96152
44500.00000	106.25799	-875.44977	106.25799
44550.00000	106.53930	-876.82744	106.53930
44600.00000	106.84777	-878.46572	106.84777
44650.00000	107.14129	-880.77054	107.14129
44700.00000	107.46505	-882.51218	107.46505
44750.00000	107.70601	-884.24976	107.70601
44800.00000	107.99301	-886.66625	107.99301
44850.00000	108.32326	-888.84640	108.32326
44900.00000	108.58648	-891.76044	108.58648
44950.00000	108.98323	-894.10491	108.98323
45000.00000	109.29389	-896.72004	109.29389
45050.00000	109.62259	-899.86488	109.62259
45100.00000	109.98351	-903.13919	109.98351
45150.00000	110.25081	-906.21038	110.25081
45200.00000	110.56119	-910.11967	110.56119
45250.00000	110.84599	-914.02510	110.84599
45300.00000	111.12795	-917.49575	111.12795
45350.00000	111.32907	-921.16230	111.32907
45400.00000	111.60875	-925.67814	111.60875
45450.00000	111.81949	-930.05289	111.81949
45500.00000	111.98067	-933.89143	111.98067
45550.00000	112.11402	-937.97907	112.11402
45600.00000	112.26084	-942.35017	112.26084
45650.00000	112.38224	-946.81730	112.38224
45700.00000	112.43600	-951.17291	112.43600
45750.00000	112.49822	-955.64835	112.49822
45800.00000	112.54919	-959.91296	112.54919
45850.00000	112.55663	-964.53315	112.55663
45900.00000	112.52080	-969.22596	112.52080
45950.00000	112.50621	-973.61285	112.50621
46000.00000	112.46580	-977.78967	112.46580
46050.00000	112.38240	-982.23190	112.38240
46100.00000	112.25525	-986.19780	112.25525
46150.00000	112.12349	-990.38706	112.12349
46200.00000	112.05650	-994.44072	112.05650
46250.00000	111.92959	-997.93264	111.92959
46300.00000	111.78104	-1001.65658	111.78104
46350.00000	111.69134	-1005.17001	111.69134
46400.00000	111.51777	-1009.11502	111.51777
46450.00000	111.38320	-1012.35261	111.38320
46500.00000	111.25250	-1015.52700	111.25250
46550.00000	111.06458	-1019.41392	111.06458
46600.00000	110.92053	-1022.10663	110.92053
46650.00000	110.75883	-1025.30600	110.75883
46700.00000	110.66000	-1028.58576	110.66000
46750.00000	110.51808	-1031.47464	110.51808
46800.00000	110.35053	-1034.66172	110.35053
46850.00000	110.19844	-1037.85063	110.19844
46900.00000	110.02227	-1040.92819	110.02227
46950.00000	109.94242	-1043.89570	109.94242
47000.00000	109.74904	-1047.05015	109.74904
47050.00000	109.62551	-1049.66661	109.62551
47100.00000	109.47621	-1052.47783	109.47621
47150.00000	109.33247	-1054.95163	109.33247
47200.00000	109.25665	-1058.10085	109.25665
47250.00000	109.05578	-1060.19269	109.05578
47300.00000	108.95222	-1063.30655	108.95222
47350.00000	108.91820	-1065.62741	108.91820
47400.00000	108.79052	-1068.35718	108.79052
47450.00000	108.68659	-1071.53776	108.68659
47500.00000	108.57565	-1073.19334	108.57565
47550.00000	108.56615	-1076.15282	108.56615
47600.00000	108.38158	-1079.17535	108.38158
47650.00000	108.33826	-1081.86826	108.33826
47700.00000	108.33939	-1085.01295	108.33939
47750.00000	108.16936	-1087.45310	108.16936
47800.00000	108.13973	-1091.07152	108.13973
47850.00000	108.07213	-1094.40407	108.07213
47900.00000	107.94105	-1096.56471	107.94105
47950.00000	107.90273	-1100.13863	107.90273
48000.00000	107.78871	-1103.92360	107.78871
48050.00000	107.70711	-1106.53918	107.70711
48100.00000	107.56614	-1109.76209	107.56614
48150.00000	107.39779	-1113.62229	107.39779
48200.00000	107.27451	-1116.75504	107.27451
48250.00000	107.05055	-1119.84093	107.05055
48300.00000	106.97821	-1122.84060	106.97821
48350.00000	106.83921	-1126.74540	106.83921
48400.00000	106.58696	-1130.37533	106.58696
48450.00000	106.40755	-1133.68720	106.40755
48500.00000	106.07147	-1136.80110	106.07147
48550.00000	105.87592	-1139.96084	105.87592
48600.00000	105.55763	-1144.30000	105.55763
48650.00000	105.20716	-1147.10438	105.20716
48700.00000	104.78410	-1150.21427	104.78410
48750.00000	104.50072	-1153.04671	104.50072
48800.00000	104.02538	-1155.05552	104.02538
48850.00000	103.55670	-1158.70007	103.55670
48900.00000	103.23743	-1161.36365	103.23743
48950.00000	102.74302	-1163.33018	102.74302
49000.00000	102.37036	-1165.50821	102.37036
49050.00000	102.05787	-1167.66741	102.05787
49100.00000	101.63601	-1167.48909	101.63601
49150.00000	101.23356	-1170.01531	101.23356
49200.00000	100.69485	-1169.71416	100.69485
49250.00000	100.57360	-1169.77113	100.57360
49300.00000	100.15878	-1170.66665	100.15878
49350.00000	99.82538	-1170.58935	99.82538
49400.00000	99.38236	-1172.96417	99.38236
49450.00000	99.27514	-1172.28922	99.27514
49500.00000	98.97647	-1170.08872	98.97647
49550.00000	98.83949	-1170.89532	98.83949
49600.00000	98.79183	-1171.05689	98.79183
49650.00000	98.67037	-1171.95578	98.67037
49700.00000	98.59071	-1170.36822	98.59071
49750.00000	98.47491	-810.30546	98.47491
49800.00000	98.43402	-1169.07400	98.43402
49850.00000	98.55734	-452.39890	98.55734
49900.00000	98.70888	-810.67686	98.70888
49950.00000	98.59410	-450.95040	98.59410
50000.00000	98.78252	-452.24554	98.78252
50050.00000	98.86320	-452.19567	98.86320
50100.00000	99.10385	-454.10563	99.10385
50150.00000	99.32969	-455.89853	99.32969
50200.00000	99.48169	-456.81496	99.48169
50250.00000	99.53976	-457.61095	99.53976
50300.00000	99.82532	-459.16103	99.82532
50350.00000	99.95617	-461.42170	99.95617
50400.00000	100.01893	-462.77305	100.01893
50450.00000	100.12689	-465.14733	100.12689
50500.00000	100.28626	-466.01448	100.28626
50550.00000	100.35979	-469.02860	100.35979
50600.00000	100.61341	-471.94503	100.61341
50650.00000	100.58494	-473.58750	100.58494
50700.00000	100.68545	-476.30420	100.68545
50750.00000	100.64842	-479.22792	100.64842
50800.00000	100.89244	-482.66034	100.89244
50850.00000	100.81388	-484.73062	100.81388
50900.00000	100.75065	-488.23376	100.75065
50950.00000	100.81124	-491.46311	100.81124
51000.00000	100.90175	-495.34172	100.90175
51050.00000	100.85613	-497.55475	100.85613
51100.00000	100.60643	-501.32796	100.60643
51150.00000	100.53799	-504.81379	100.53799
51200.00000	100.37067	-508.13603	100.37067
51250.00000	100.13254	-510.95159	100.13254
51300.00000	100.06684	-515.21297	100.06684
51350.00000	99.71384	-516.10471	99.71384
51400.00000	99.49720	-519.55506	99.49720
51450.00000	99.02462	-521.58776	99.02462
51500.00000	98.92810	-523.31689	98.92810
51550.00000	98.59657	-525.40648	98.59657
51600.00000	98.15984	-527.23996	98.15984
51650.00000	97.57906	-527.84957	97.57906
51700.00000	97.62778	-529.32096	97.62778
51750.00000	96.91965	-529.98756	96.91965
51800.00000	96.98908	-531.01343	96.98908
51850.00000	96.69565	-531.87283	96.69565
51900.00000	96.43019	-532.07145	96.43019
51950.00000	96.00735	-532.06418	96.00735
52000.00000	96.13098	-531.62337	96.13098
52050.00000	96.05670	-532.14730	96.05670
52100.00000	95.71580	-529.17355	95.71580
52150.00000	95.86172	-531.70162	95.86172
52200.00000	95.86391	-531.97601	95.86391
52250.00000	95.72075	-532.16139	95.72075
52300.00000	95.63884	-530.69965	95.63884
52350.00000	95.91252	-530.80225	95.91252
52400.00000	95.91264	-530.91654	95.91264
52450.00000	96.00379	-531.76160	96.00379
52500.00000	96.23985	-533.49254	96.23985
52550.00000	96.14452	-533.33946	96.14452
52600.00000	96.11262	-532.84760	96.11262
52650.00000	96.47724	-533.05470	96.47724
52700.00000	96.67844	-534.40185	96.67844
52750.00000	96.75316	-534.21630	96.75316
52800.00000	96.97343	-535.58484	96.97343
52850.00000	97.01562	-537.18637	97.01562
52900.00000	97.15061	-537.95020	97.15061
52950.00000	97.39070	-539.23379	97.39070
53000.00000	97.51442	-540.69279	97.51442
53050.00000	97.82137	-541.91761	97.82137
53100.00000	97.89390	-543.55920	97.89390
53150.00000	98.23101	-544.96028	98.23101
53200.00000	98.17533	-548.04341	98.17533
53250.00000	98.39126	-548.23819	98.39126
53300.00000	98.55079	-550.44509	98.55079
53350.00000	98.53963	-552.06960	98.53963
53400.00000	98.88478	-553.96663	98.88478
53450.00000	98.90701	-556.56689	98.90701
53500.00000	99.00443	-557.28907	99.00443
53550.00000	99.08136	-559.98357	99.08136
53600.00000	99.24506	-561.67037	99.24506
53650.00000	99.51919	-564.08671	99.51919
53700.00000	99.51313	-566.87299	99.51313
53750.00000	99.53514	-568.65497	99.53514
53800.00000	99.47180	-570.45535	99.47180
53850.00000	99.61720	-573.07586	99.61720
53900.00000	99.68256	-573.74713	99.68256
53950.00000	99.67834	-576.67812	99.67834
54000.00000	99.65656	-578.60341	99.65656
54050.00000	99.63399	-579.67481	99.63399
54100.00000	99.80520	-582.06264	99.80520
54150.00000	99.84355	-583.74303	99.84355
54200.00000	99.70677	-584.22052	99.70677
54250.00000	99.81164	-586.62974	99.81164
54300.00000	99.67334	-588.62566	99.67334
54350.00000	99.89163	-588.75481	99.89163
54400.00000	100.24539	-589.25208	100.24539
54450.00000	100.16585	-590.37539	100.16585
54500.00000	100.20576	-592.40607	100.20576
54550.00000	100.10273	-592.42401	100.10273
54600.00000	100.40660	-593.10021	100.40660
54650.00000	100.57061	-595.17713	100.57061
54700.00000	100.71074	-596.26357	100.71074
54750.00000	101.07925	-597.36906	101.07925
54800.00000	101.15527	-598.39550	101.15527
54850.00000	101.35966	-599.42430	101.35966
54900.00000	101.69042	-600.92854	101.69042
54950.00000	101.87739	-601.48752	101.87739
55000.00000	102.41771	-603.01047	102.41771
55050.00000	102.70284	-605.29095	102.70284
55100.00000	102.93267	-606.90155	102.93267
55150.00000	103.41082	-608.70130	103.41082
55200.00000	103.58690	-611.46510	103.58690
55250.00000	104.04963	-613.12787	104.04963
55300.00000	104.38732	-616.08507	104.38732
55350.00000	104.75262	-618.28686	104.75262
55400.00000	105.11468	-621.68262	105.11468
55450.00000	105.48688	-624.11859	105.48688
55500.00000	105.86603	-627.54186	105.86603
55550.00000	106.15241	-631.24034	106.15241
55600.00000	106.41080	-634.44638	106.41080
55650.00000	106.77812	-638.41907	106.77812
55700.00000	107.03099	-642.19879	107.03099
55750.00000	107.33637	-645.89630	107.33637
55800.00000	107.62155	-650.11270	107.62155
55850.00000	107.78827	-654.08578	107.78827
55900.00000	107.97565	-658.27034	107.97565
55950.00000	108.18348	-662.39104	108.18348
56000.00000	108.36021	-666.82493	108.36021
56050.00000	108.49244	-670.37846	108.49244
56100.00000	108.59682	-675.13332	108.59682
56150.00000	108.75094	-679.26673	108.75094
56200.00000	108.77836	-683.32605	108.77836
56250.00000	108.84629	-687.76393	108.84629
56300.00000	108.93495	-691.74737	108.93495
56350.00000	108.96607	-695.95408	108.96607
56400.00000	109.02648	-699.63291	109.02648
56450.00000	109.03492	-703.96561	109.03492
56500.00000	109.12215	-707.83582	109.12215
56550.00000	109.04228	-712.15474	109.04228
56600.00000	109.04121	-715.94083	109.04121
56650.00000	109.08508	-719.99087	109.08508
56700.00000	109.05989	-723.85800	109.05989
56750.00000	108.99836	-727.86255	108.99836
56800.00000	108.96790	-731.82773	108.96790
56850.00000	108.95779	-735.69107	108.95779
56900.00000	108.91288	-739.77980	108.91288
56950.00000	108.81510	-743.64390	108.81510
57000.00000	108.77167	-747.47753	108.77167
57050.00000	108.69146	-751.56011	108.69146
57100.00000	108.55317	-755.20470	108.55317
57150.00000	108.43419	-759.01953	108.43419
57200.00000	108.33893	-762.62432	108.33893
57250.00000	108.25172	-766.26532	108.25172
57300.00000	108.09526	-769.87085	108.09526
57350.00000	107.94097	-773.21028	107.94097
57400.00000	107.82241	-776.56074	107.82241
57450.00000	107.61273	-779.72513	107.61273
57500.00000	107.45783	-783.01893	107.45783
57550.00000	107.31679	-786.20011	107.31679
57600.00000	107.17623	-788.95724	107.17623
57650.00000	107.02349	-791.80913	107.02349
57700.00000	106.85657	-794.68130	106.85657
57750.00000	106.78824	-797.32628	106.78824
57800.00000	106.66440	-800.03186	106.66440
57850.00000	106.60422	-802.58201	106.60422
57900.00000	106.50353	-805.51635	106.50353
57950.00000	106.45039	-808.12081	106.45039
58000.00000	106.38876	-810.54726	106.38876
58050.00000	106.39771	-813.43820	106.39771
58100.00000	106.39826	-816.73742	106.39826
58150.00000	106.33324	-819.57255	106.33324
58200.00000	106.31717	-823.09822	106.31717
58250.00000	106.29184	-826.55695	106.29184
58300.00000	106.16263	-830.25824	106.16263
58350.00000	106.12877	-833.83226	106.12877
58400.00000	105.97471	-837.43560	105.97471
58450.00000	105.81967	-841.03931	105.81967
58500.00000	105.65930	-844.67420	105.65930
58550.00000	105.44989	-848.05318	105.44989
58600.00000	105.22702	-851.42792	105.22702
58650.00000	105.00571	-854.45283	105.00571
58700.00000	104.76575	-857.44399	104.76575
58750.00000	104.60669	-860.36084	104.60669
58800.00000	104.34634	-863.22932	104.34634
58850.00000	104.19714	-866.06964	104.19714
58900.00000	103.94262	-868.91762	103.94262
58950.00000	103.78049	-871.81080	103.78049
59000.00000	103.54851	-874.70149	103.54851
59050.00000	103.31655	-877.86682	103.31655
59100.00000	103.02944	-880.87427	103.02944
59150.00000	102.78120	-883.81552	102.78120
59200.00000	102.47199	-886.80869	102.47199
59250.00000	102.06093	-889.56754	102.06093
59300.00000	101.71819	-891.92304	101.71819
59350.00000	101.29792	-894.25666	101.29792
59400.00000	100.85603	-896.02900	100.85603
59450.00000	100.38870	-897.42509	100.38870
59500.00000	99.97413	-898.72035	99.97413
59550.00000	99.59014	-899.05714	99.59014
59600.00000	99.22139	-899.68410	99.22139
59650.00000	98.88851	-900.31390	98.88851
59700.00000	98.56575	-899.63485	98.56575
59750.00000	98.41252	-899.53538	98.41252
59800.00000	98.11382	-899.09926	98.11382
59850.00000	98.04745	-898.04434	98.04745
59900.00000	97.89654	-897.60054	97.89654
59950.00000	97.91245	-897.00195	97.91245
60000.00000	97.99714	-896.31130	97.99714
60050.00000	98.02768	-896.06518	98.02768
60100.00000	98.13083	-895.61323	98.13083
60150.00000	98.30537	-895.76070	98.30537
60200.00000	98.51858	-895.46409	98.51858
60250.00000	98.78545	-895.65344	98.78545
60300.00000	98.94505	-896.07299	98.94505
60350.00000	99.23053	-896.46078	99.23053
60400.00000	99.59568	-897.64147	99.59568
60450.00000	99.93460	-898.59457	99.93460
60500.00000	100.26995	-900.40925	100.26995
60550.00000	100.54801	-902.52116	100.54801
60600.00000	100.90065	-904.50303	100.90065
60650.00000	101.28051	-907.00586	101.28051
60700.00000	101.53285	-909.54873	101.53285
60750.00000	101.77978	-912.47914	101.77978
60800.00000	101.98966	-915.36362	101.98966
60850.00000	102.24860	-918.95888	102.24860
60900.00000	102.40700	-921.97904	102.40700
60950.00000	102.54583	-925.02140	102.54583
61000.00000	102.67197	-928.34213	102.67197
61050.00000	102.80217	-931.26511	102.80217
61100.00000	102.92073	-934.39592	102.92073
61150.00000	103.02125	-937.62793	103.02125
61200.00000	103.14216	-940.68338	103.14216
61250.00000	103.25611	-943.79793	103.25611
61300.00000	103.32171	-947.09507	103.32171
61350.00000	103.41355	-950.20367	103.41355
61400.00000	103.51878	-953.33690	103.51878
61450.00000	103.57774	-956.43518	103.57774
61500.00000	103.65698	-959.40087	103.65698
61550.00000	103.70613	-962.98365	103.70613
61600.00000	103.79615	-966.33207	103.79615
61650.00000	103.83892	-969.43465	103.83892
61700.00000	103.89282	-973.00235	103.89282
61750.00000	103.94811	-976.32862	103.94811
61800.00000	103.94940	-979.59182	103.94940
61850.00000	103.98836	-982.91204	103.98836
61900.00000	104.03611	-986.49924	104.03611
61950.00000	104.07302	-989.76707	104.07302
62000.00000	104.07095	-993.52257	104.07095
62050.00000	104.08881	-997.05355	104.08881
62100.00000	104.07388	-1000.89639	104.07388
62150.00000	104.05627	-1004.13391	104.05627
62200.00000	104.01272	-1007.90925	104.01272
62250.00000	103.97497	-1011.45993	103.97497
62300.00000	103.88043	-1015.30010	103.88043
62350.00000	103.83197	-1018.95372	103.83197
62400.00000	103.68392	-1022.39292	103.68392
62450.00000	103.59819	-1026.06322	103.59819
62500.00000	103.51765	-1029.35192	103.51765
62550.00000	103.31221	-1032.73418	103.31221
62600.00000	103.13989	-1036.09663	103.13989
62650.00000	103.01056	-1039.58507	103.01056
62700.00000	102.82861	-1042.39033	102.82861
62750.00000	102.68071	-1045.20539	102.68071
62800.00000	102.49909	-1047.93364	102.49909
62850.00000	102.31720	-1050.71357	102.31720
62900.00000	102.18751	-1053.31931	102.18751
62950.00000	102.01766	-1055.74109	102.01766
63000.00000	101.86975	-1057.97813	101.86975
63050.00000	101.78580	-1059.65077	101.78580
63100.00000	101.65136	-1062.32224	101.65136
63150.00000	101.58590	-1064.46852	101.58590
63200.00000	101.53970	-1066.71790	101.53970
63250.00000	101.48831	-1068.86616	101.48831
63300.00000	101.46706	-1070.99377	101.46706
63350.00000	101.41684	-1073.15768	101.41684
63400.00000	101.45702	-1075.61559	101.45702
63450.00000	101.39242	-1078.37035	101.39242
63500.00000	101.50088	-1080.61157	101.50088
63550.00000	101.50364	-1083.26804	101.50364
63600.00000	101.50545	-1086.43941	101.50545
63650.00000	101.63888	-1089.31244	101.63888
63700.00000	101.64505	-1092.12033	101.64505
63750.00000	101.66884	-1095.04071	101.66884
63800.00000	101.69807	-1098.59252	101.69807
63850.00000	101.69955	-1102.32426	101.69955
63900.00000	101.66515	-1105.90159	101.66515
63950.00000	101.59654	-1109.86304	101.59654
64000.00000	101.50469	-1113.21985	101.50469
64050.00000	101.40913	-1116.12232	101.40913
64100.00000	101.41967	-1119.38833	101.41967
64150.00000	101.41556	-1122.22073	101.41556
64200.00000	101.47885	-1125.55096	101.47885
64250.00000	101.55821	-1129.23508	101.55821
64300.00000	101.65343	-1134.12005	101.65343
64350.00000	101.67878	-1139.49186	101.67878
64400.00000	101.62858	-1145.05876	101.62858
64450.00000	101.44794	-1151.13754	101.44794
64500.00000	101.14761	-1157.48196	101.14761
64550.00000	100.68304	-1163.51128	100.68304
64600.00000	100.18265	-1169.24632	100.18265
64650.00000	99.29654	-1174.97340	99.29654
64700.00000	98.57441	-1179.33256	98.57441
64750.00000	97.76632	-1182.42409	97.76632
64800.00000	96.78769	-1184.67269	96.78769
64850.00000	95.96374	-1186.16816	95.96374
64900.00000	95.12017	-1185.37384	95.12017
64950.00000	94.34227	-1184.79448	94.34227
65000.00000	93.77645	-1185.09767	93.77645
65050.00000	93.22803	-1181.77021	93.22803
65100.00000	92.89038	-1180.68791	92.89038
65150.00000	92.48663	-1178.20219	92.48663
65200.00000	92.31459	-1175.61329	92.31459
65250.00000	92.30562	-1173.64944	92.30562
65300.00000	92.43786	-1173.03101	92.43786
65350.00000	92.41826	-1171.19624	92.41826
65400.00000	92.70072	-1169.61866	92.70072
65450.00000	92.75861	-1169.26532	92.75861
65500.00000	93.20861	-1169.56285	93.20861
65550.00000	93.52785	-1168.33823	93.52785
65600.00000	93.97916	-1168.10098	93.97916
65650.00000	94.48002	-1172.07792	94.48002
65700.00000	94.98806	-1173.77986	94.98806
65750.00000	95.20058	-1176.77957	95.20058
65800.00000	95.46927	-1180.08568	95.46927
65850.00000	95.61301	-1184.29571	95.61301
65900.00000	95.68700	-1187.16874	95.68700
65950.00000	95.77463	-1191.13903	95.77463
66000.00000	95.88558	-1193.79637	95.88558
66050.00000	95.92789	-1197.01580	95.92789
66100.00000	95.93042	-1200.48314	95.93042
66150.00000	95.89002	-1203.55108	95.89002
66200.00000	95.83932	-1206.08267	95.83932
66250.00000	95.83293	-1209.26009	95.83293
66300.00000	95.87560	-1212.07806	95.87560
66350.00000	95.90303	-1214.90098	95.90303
66400.00000	95.90138	-1218.17661	95.90138
66450.00000	95.89536	-1222.23132	95.89536
66500.00000	95.76299	-1225.48932	95.76299
66550.00000	95.63192	-1227.80441	95.63192
66600.00000	95.36834	-1231.05087	95.36834
66650.00000	95.29460	-1233.77554	95.29460
66700.00000	95.17169	-1236.21425	95.17169
66750.00000	95.01928	-1238.64877	95.01928
66800.00000	94.84209	-1240.97652	94.84209
66850.00000	94.73147	-1243.95439	94.73147
66900.00000	94.74653	-1246.04146	94.74653
66950.00000	94.75654	-1248.25625	94.75654
67000.00000	94.58556	-1251.62243	94.58556
67050.00000	94.57700	-1253.12272	94.57700
67100.00000	94.51364	-1256.60863	94.51364
67150.00000	94.37186	-1259.29481	94.37186
67200.00000	94.29520	-1262.38871	94.29520
67250.00000	94.17205	-1265.58945	94.17205
67300.00000	93.96382	-1267.77329	93.96382
67350.00000	93.83116	-1270.05986	93.83116
67400.00000	93.57116	-1272.27531	93.57116
67450.00000	93.34780	-1275.53300	93.34780
67500.00000	93.16710	-1277.15345	93.16710
67550.00000	92.96887	-1279.22414	92.96887
67600.00000	92.80797	-1281.03382	92.80797
67650.00000	92.56235	-1283.28428	92.56235
67700.00000	92.53281	-1284.50953	92.53281
67750.00000	92.27878	-1286.39713	92.27878
67800.00000	92.09634	-1287.63826	92.09634
67850.00000	92.13261	-1289.93038	92.13261
67900.00000	91.96885	-1290.94102	91.96885
67950.00000	91.83930	-1291.04625	91.83930
68000.00000	91.80208	-1293.00700	91.80208
68050.00000	91.83394	-1294.51638	91.83394
68100.00000	91.83366	-1295.13248	91.83366
68150.00000	91.84663	-1296.21150	91.84663
68200.00000	92.00254	-1297.95866	92.00254
68250.00000	92.11502	-1300.23876	92.11502
68300.00000	92.33742	-1301.60794	92.33742
68350.00000	92.38344	-1304.68984	92.38344
68400.00000	92.43970	-1305.97877	92.43970
68450.00000	92.57056	-1309.15156	92.57056
68500.00000	92.62402	-1312.26717	92.62402
68550.00000	92.65657	-1314.98650	92.65657
68600.00000	92.69802	-1317.98752	92.69802
68650.00000	92.74065	-1320.61398	92.74065
68700.00000	92.67094	-1323.58234	92.67094
68750.00000	92.76218	-1326.34967	92.76218
68800.00000	92.79945	-1329.68967	92.79945
68850.00000	92.79946	-1331.82768	92.79946
68900.00000	92.82042	-1334.37051	92.82042
68950.00000	92.95212	-1337.98546	92.95212
69000.00000	93.01546	-1340.64524	93.01546
69050.00000	93.00517	-1343.81762	93.00517
69100.00000	93.14520	-1347.68053	93.14520
69150.00000	93.20498	-1351.09830	93.20498
69200.00000	93.17749	-1355.59150	93.17749
69250.00000	93.19364	-1359.19042	93.19364
69300.00000	93.13192	-1363.68194	93.13192
69350.00000	92.99104	-1368.64635	92.99104
69400.00000	92.86131	-1373.08715	92.86131
69450.00000	92.65067	-1377.84542	92.65067
69500.00000	92.43554	-1382.02780	92.43554
69550.00000	92.00025	-1387.83093	92.00025
69600.00000	91.63946	-1391.44924	91.63946
69650.00000	91.13425	-1394.73059	91.13425
69700.00000	90.51925	-1398.80573	90.51925
69750.00000	89.94598	-1401.33819	89.94598
69800.00000	89.48782	-1403.74415	89.48782
69850.00000	88.96210	-1404.68834	88.96210
69900.00000	88.33918	-1405.65276	88.33918
69950.00000	88.01485	-1406.43730	88.01485
70000.00000	87.75588	-1406.67164	87.75588
70050.00000	87.45942	-1405.94156	87.45942
70100.00000	87.27810	-1407.26095	87.27810
70150.00000	87.12413	-1408.25140	87.12413
70200.00000	87.23250	-1408.33230	87.23250
70250.00000	86.92224	-1410.09240	86.92224
70300.00000	87.03349	-1411.35544	87.03349
70350.00000	86.94606	-1412.45819	86.94606
70400.00000	86.82402	-1413.18131	86.82402
70450.00000	86.68860	-1416.22834	86.68860
70500.00000	86.79673	-1416.95121	86.79673
70550.00000	86.63961	-1418.45895	86.63961
70600.00000	86.49941	-1419.73174	86.49941
70650.00000	86.27849	-1420.65223	86.27849
70700.00000	86.13401	-1423.63641	86.13401
70750.00000	86.41132	-1423.27617	86.41132
70800.00000	86.18074	-1424.74444	86.18074
70850.00000	86.27841	-1426.43590	86.27841
70900.00000	86.21656	-1427.55562	86.21656
70950.00000	86.30111	-1429.76739	86.30111
71000.00000	86.38409	-1430.29770	86.38409
71050.00000	86.57403	-1431.29929	86.57403
71100.00000	86.69299	-1434.08065	86.69299
71150.00000	86.91118	-1435.40451	86.91118
71200.00000	86.96264	-1438.23912	86.96264
71250.00000	87.25375	-1442.11645	87.25375
71300.00000	87.32934	-1445.87233	87.32934
71350.00000	87.47568	-1448.88308	87.47568
71400.00000	87.40264	-1453.43331	87.40264
71450.00000	87.55131	-1457.48332	87.55131
71500.00000	87.30556	-1460.55793	87.30556
71550.00000	87.28077	-1465.13344	87.28077
71600.00000	87.13114	-1468.33755	87.13114
71650.00000	86.66185	-1472.29919	86.66185
71700.00000	86.72209	-1476.75754	86.72209
71750.00000	86.70489	-1480.01693	86.70489
71800.00000	86.50935	-1485.28960	86.50935
71850.00000	85.70121	-1488.51858	85.70121
71900.00000	85.39507	-1492.48239	85.39507
71950.00000	84.83615	-1497.83884	84.83615
72000.00000	84.22901	-1499.23564	84.22901
72050.00000	83.45052	-1500.52426	83.45052
72100.00000	82.73345	-1499.86867	82.73345
72150.00000	82.64574	-1499.52104	82.64574
72200.00000	82.45403	-1498.60904	82.45403
72250.00000	82.22553	-1498.47532	82.22553
72300.00000	82.05461	-1494.87951	82.05461
72350.00000	81.84783	-1495.14968	81.84783
72400.00000	82.44702	-1497.27982	82.44702
72450.00000	82.42003	-1498.55015	82.42003
72500.00000	82.57281	-1501.98847	82.57281
72550.00000	82.83548	-1505.94148	82.83548
72600.00000	82.64606	-1507.39026	82.64606
72650.00000	82.66729	-1511.15889	82.66729
72700.00000	82.50299	-1514.52364	82.50299
72750.00000	82.10152	-1516.64373	82.10152
72800.00000	81.65444	-1518.63941	81.65444
72850.00000	82.17176	-1518.22974	82.17176
72900.00000	81.72493	-1518.18291	81.72493
72950.00000	81.59749	-1515.90889	81.59749
73000.00000	81.65523	-1519.84346	81.65523
73050.00000	82.05237	-1520.09568	82.05237
73100.00000	82.29336	-1522.17597	82.29336
73150.00000	82.73455	-1524.67896	82.73455
73200.00000	82.36750	-1527.67822	82.36750
73250.00000	82.72448	-1529.73123	82.72448
73300.00000	82.85998	-1534.11255	82.85998
73350.00000	83.54369	-1539.70931	83.54369
73400.00000	83.50811	-1544.62289	83.50811
73450.00000	83.19657	-1550.25391	83.19657
73500.00000	83.58610	-1556.32902	83.58610
73550.00000	83.61241	-1559.45188	83.61241
73600.00000	83.04858	-1566.39720	83.04858
73650.00000	83.21394	-1571.10754	83.21394
73700.00000	83.16260	-1575.65506	83.16260
73750.00000	82.46301	-1583.40945	82.46301
73800.00000	82.78188	-1588.18331	82.78188
73850.00000	82.41384	-1594.76192	82.41384
73900.00000	81.62495	-1602.10204	81.62495
73950.00000	81.69204	-1606.10309	81.69204
74000.00000	80.54908	-1615.19510	80.54908
74050.00000	80.55132	-1620.61727	80.55132
74100.00000	80.10269	-1626.53563	80.10269
74150.00000	79.56554	-1638.57226	79.56554
74200.00000	78.87517	-1646.48052	78.87517
74250.00000	77.05169	-1653.96055	77.05169
74300.00000	78.11771	-1679.38990	78.11771
74350.00000	77.03001	-1685.02159	77.03001
74400.00000	72.98508	-1742.58748	72.98508
74450.00000	69.91461	-1911.19905	69.91461
74500.00000	71.83579	-1990.19753	71.83579
74550.00000	71.13885	-2027.82054	71.13885
74600.00000	69.73351	-2047.60350	69.73351
74650.00000	68.65524	-2065.21701	68.65524
74700.00000	68.21263	-2082.44549	68.21263
74750.00000	67.11120	-2102.84001	67.11120
74800.00000	67.67666	-2115.55373	67.67666
74850.00000	67.64795	-2135.39339	67.64795
74900.00000	68.12274	-2132.46553	68.12274
74950.00000	68.93332	-2155.98710	68.93332
75000.00000	70.11253	-2167.08273	70.11253
75050.00000	71.66546	-2176.87279	71.66546
75100.00000	70.81033	-2176.73875	70.81033
75150.00000	70.33449	-2185.08163	70.33449
75200.00000	73.29894	-2193.63362	73.29894
75250.00000	74.06170	-2197.09423	74.06170
75300.00000	73.86325	-2197.87827	73.86325
75350.00000	74.40067	-2203.74891	74.40067
75400.00000	75.91712	-2213.69624	75.91712
75450.00000	75.48945	-2215.63338	75.48945
75500.00000	75.97913	-2220.15987	75.97913
75550.00000	76.86118	-2226.75580	76.86118
75600.00000	77.44759	-2231.23841	77.44759
75650.00000	77.62438	-2236.35262	77.62438
75700.00000	78.52167	-2241.67876	78.52167
75750.00000	78.40431	-2237.96105	78.40431
75800.00000	78.63948	-2243.11701	78.63948
75850.00000	78.84142	-2248.78517	78.84142
75900.00000	78.24535	-2254.45490	78.24535
75950.00000	78.99755	-2252.45804	78.99755
76000.00000	79.56094	-2258.47055	79.56094
76050.00000	78.74156	-2268.11894	78.74156
76100.00000	79.88526	-2259.92550	79.88526
76150.00000	79.63502	-2268.27181	79.63502
76200.00000	80.19216	-2274.95773	80.19216
76250.00000	80.55679	-2275.69534	80.55679
76300.00000	80.46769	-2279.67627	80.46769
76350.00000	80.73911	-2281.95733	80.73911
76400.00000	80.65362	-2285.27812	80.65362
76450.00000	80.68414	-2289.07160	80.68414
76500.00000	81.53841	-2288.58237	81.53841
76550.00000	81.38061	-2286.91243	81.38061
76600.00000	81.93914	-2300.07315	81.93914
76650.00000	81.27850	-2295.63626	81.27850
76700.00000	81.65758	-2299.82889	81.65758
76750.00000	81.90765	-2305.83011	81.90765
76800.00000	81.46483	-2309.47352	81.46483
76850.00000	81.47397	-2311.29099	81.47397
76900.00000	82.35633	-2310.04056	82.35633
76950.00000	82.02329	-2311.19080	82.02329
77000.00000	82.39154	-2314.90584	82.39154
77050.00000	82.60324	-2315.05367	82.60324
77100.00000	82.38130	-2318.86428	82.38130
77150.00000	82.83834	-2319.00530	82.83834
77200.00000	82.80848	-2321.52651	82.80848
77250.00000	83.15277	-2324.30595	83.15277
77300.00000	83.39324	-2326.84476	83.39324
77350.00000	83.16703	-2332.51643	83.16703
77400.00000	84.47624	-2336.06961	84.47624
77450.00000	84.47709	-2335.62209	84.47709
77500.00000	84.44526	-2340.50465	84.44526
77550.00000	84.74283	-2345.97710	84.74283
77600.00000	84.45517	-2349.16195	84.45517
77650.00000	85.31527	-2354.63802	85.31527
77700.00000	85.35519	-2355.11841	85.35519
77750.00000	85.52389	-2360.91389	85.52389
77800.00000	85.96286	-2365.47218	85.96286
77850.00000	85.76678	-2367.89397	85.76678
77900.00000	85.70942	-2372.70217	85.70942
77950.00000	86.19071	-2376.13567	86.19071
78000.00000	85.97384	-2383.91905	85.97384
78050.00000	86.25843	-2386.87420	86.25843
78100.00000	85.83218	-2389.41022	85.83218
78150.00000	86.00423	-2397.30911	86.00423
78200.00000	86.13325	-2398.22095	86.13325
78250.00000	85.68546	-2402.58604	85.68546
78300.00000	85.89440	-2410.42774	85.89440
78350.00000	85.71741	-2410.07329	85.71741
78400.00000	85.30191	-2416.71281	85.30191
78450.00000	85.54927	-2420.35704	85.54927
78500.00000	84.94407	-2419.89138	84.94407
78550.00000	84.87673	-2425.20087	84.87673
78600.00000	85.01880	-2427.97625	85.01880
78650.00000	84.19576	-2432.72816	84.19576
78700.00000	84.88623	-2434.67251	84.88623
78750.00000	84.35873	-2434.76953	84.35873
78800.00000	84.21880	-2439.63559	84.21880
78850.00000	84.44544	-2441.23830	84.44544
78900.00000	83.78643	-2443.73843	83.78643
78950.00000	84.05611	-2448.54252	84.05611
79000.00000	83.90252	-2448.40593	83.90252
79050.00000	83.73975	-2454.44628	83.73975
79100.00000	83.95347	-2455.39308	83.95347
79150.00000	83.74184	-2456.70007	83.74184
79200.00000	83.90450	-2461.62637	83.90450
79250.00000	83.76736	-2463.36028	83.76736
79300.00000	83.59475	-2469.42786	83.59475
79350.00000	83.98256	-2468.77925	83.98256
79400.00000	83.48415	-2469.43372	83.48415
79450.00000	83.52348	-2476.92856	83.52348
79500.00000	83.72612	-2477.23337	83.72612
79550.00000	83.35220	-2481.93910	83.35220
79600.00000	83.79177	-2486.11447	83.79177
79650.00000	83.36234	-2487.18307	83.36234
79700.00000	83.26944	-2494.58075	83.26944
79750.00000	83.18633	-2494.89329	83.18633
79800.00000	82.58157	-2499.77354	82.58157
79850.00000	82.85270	-2502.18208	82.85270
79900.00000	82.52678	-2504.84754	82.52678
79950.00000	81.98330	-2510.66802	81.98330
80000.00000	82.20099	-2511.11562	82.20099
80050.00000	81.69121	-2514.04971	81.69121
80100.00000	81.79596	-2517.35146	81.79596
80150.00000	81.11885	-2518.50966	81.11885
80200.00000	81.49886	-2523.43095	81.49886
80250.00000	81.35237	-2526.54805	81.35237
80300.00000	80.57349	-2530.39028	80.57349
80350.00000	80.66845	-2537.54068	80.66845
80400.00000	79.69729	-2538.99343	79.69729
80450.00000	78.79560	-2542.89922	78.79560
80500.00000	78.40431	-2542.80313	78.40431
80550.00000	77.47478	-2545.39715	77.47478
80600.00000	77.17008	-2545.43427	77.17008
80650.00000	76.40643	-2540.94412	76.40643
80700.00000	76.05245	-2543.46785	76.05245
80750.00000	76.51928	-2541.85433	76.51928
80800.00000	75.49218	-2541.88070	75.49218
80850.00000	75.91606	-2543.76322	75.91606
80900.00000	75.40722	-2536.13818	75.40722
80950.00000	74.94537	-2538.74112	74.94537
81000.00000	75.08765	-2534.55089	75.08765
81050.00000	75.34699	-2536.08106	75.34699
81100.00000	75.25551	-2536.90990	75.25551
81150.00000	75.58379	-2532.33423	75.58379
81200.00000	75.55327	-2534.64980	75.55327
81250.00000	76.00796	-2535.57674	76.00796
81300.00000	76.03722	-2535.63217	76.03722
81350.00000	76.58557	-2537.41142	76.58557
81400.00000	76.33008	-2537.64557	76.33008
81450.00000	76.67501	-2540.01436	76.67501
81500.00000	76.96188	-2541.42490	76.96188
81550.00000	76.85834	-2544.19484	76.85834
81600.00000	77.21079	-2547.58779	77.21079
81650.00000	77.24989	-2546.35844	77.24989
81700.00000	77.15129	-2549.56641	77.15129
81750.00000	77.51939	-2548.15629	77.51939
81800.00000	76.86362	-2551.73544	76.86362
81850.00000	76.81529	-2552.03822	76.81529
81900.00000	77.14680	-2554.09754	77.14680
81950.00000	76.79921	-2556.80657	76.79921
82000.00000	77.02652	-2556.13939	77.02652
82050.00000	77.21200	-2556.92485	77.21200
82100.00000	77.45214	-2559.83345	77.45214
82150.00000	77.45406	-2558.15969	77.45406
82200.00000	77.72069	-2563.18326	77.72069
82250.00000	77.73670	-2559.33974	77.73670
82300.00000	77.78418	-2564.52262	77.78418
82350.00000	78.23316	-2565.44114	78.23316
82400.00000	78.03247	-2564.70721	78.03247
82450.00000	78.95468	-2569.13530	78.95468
82500.00000	78.80723	-2573.00172	78.80723
82550.00000	78.92536	-2576.45994	78.92536
82600.00000	78.79301	-2580.01482	78.79301
82650.00000	79.07598	-2582.86723	79.07598
82700.00000	79.23933	-2588.43041	79.23933
82750.00000	78.63309	-2593.32175	78.63309
82800.00000	78.18345	-2599.47343	78.18345
82850.00000	77.21600	-2599.05266	77.21600
82900.00000	75.98230	-2598.84102	75.98230
82950.00000	75.72046	-2589.87235	75.72046
83000.00000	76.55939	-2580.89994	76.55939
83050.00000	78.29541	-2575.35438	78.29541
83100.00000	79.91115	-2577.45651	79.91115
83150.00000	80.92061	-2584.68460	80.92061
83200.00000	81.78442	-2592.42805	81.78442
83250.00000	82.09088	-2600.98123	82.09088
83300.00000	82.06269	-2607.60205	82.06269
83350.00000	81.53661	-2610.98897	81.53661
83400.00000	80.65123	-2615.21545	80.65123
83450.00000	79.83352	-2613.94061	79.83352
83500.00000	78.93889	-2609.16491	78.93889
83550.00000	79.07392	-2602.03453	79.07392
83600.00000	80.06658	-2593.76480	80.06658
83650.00000	81.40930	-2590.52007	81.40930
83700.00000	82.77026	-2593.90121	82.77026
83750.00000	84.01375	-2597.07541	84.01375
83800.00000	85.12522	-2601.73762	85.12522
83850.00000	85.89625	-2607.58644	85.89625
83900.00000	86.37503	-2614.31627	86.37503
83950.00000	86.82958	-2621.33377	86.82958
84000.00000	87.19784	-2627.22417	87.19784
84050.00000	87.31362	-2633.01578	87.31362
84100.00000	87.49663	-2638.88701	87.49663
84150.00000	87.71602	-2644.29718	87.71602
84200.00000	87.78037	-2649.16626	87.78037
84250.00000	87.80572	-2654.35112	87.80572
84300.00000	87.94508	-2658.96537	87.94508
84350.00000	87.94393	-2663.56806	87.94393
84400.00000	88.13672	-2668.00871	88.13672
84450.00000	88.03890	-2671.92379	88.03890
84500.00000	88.20670	-2677.49634	88.20670
84550.00000	88.30194	-2682.48787	88.30194
84600.00000	88.30332	-2686.66898	88.30332
84650.00000	88.42558	-2691.38115	88.42558
84700.00000	88.54920	-2696.44151	88.54920
84750.00000	88.45390	-2701.65522	88.45390
84800.00000	88.48551	-2707.32644	88.48551
84850.00000	88.53336	-2712.75231	88.53336
84900.00000	88.49736	-2717.29272	88.49736
84950.00000	88.37270	-2723.44834	88.37270
85000.00000	88.16942	-2729.57297	88.16942
85050.00000	88.17836	-2734.45774	88.17836
85100.00000	87.90568	-2740.07770	87.90568
85150.00000	87.65577	-2744.88623	87.65577
85200.00000	87.29460	-2750.36925	87.29460
85250.00000	87.47257	-2756.09261	87.47257
85300.00000	86.69968	-2759.78808	86.69968
85350.00000	86.28442	-2763.78217	86.28442
85400.00000	85.85769	-2768.15266	85.85769
85450.00000	85.25096	-2773.14215	85.25096
85500.00000	84.86191	-2776.56720	84.86191
85550.00000	84.39306	-2780.55828	84.39306
85600.00000	83.75025	-2784.21552	83.75025
85650.00000	83.51605	-2787.74891	83.51605
85700.00000	82.99480	-2791.32060	82.99480
85750.00000	82.47286	-2793.68206	82.47286
85800.00000	82.09287	-2793.98707	82.09287
85850.00000	81.53061	-2797.15916	81.53061
85900.00000	81.04614	-2798.99827	81.04614
85950.00000	80.55142	-2801.08740	80.55142
86000.00000	80.26940	-2800.66004	80.26940
86050.00000	79.94583	-2802.24225	79.94583
86100.00000	79.89392	-2801.71866	79.89392
86150.00000	79.13518	-2801.82712	79.13518
86200.00000	79.23865	-2802.66009	79.23865
86250.00000	79.05794	-2801.73491	79.05794
86300.00000	78.45193	-2807.18134	78.45193
86350.00000	78.64697	-2806.69979	78.64697
86400.00000	78.25900	-2808.66001	78.25900
86450.00000	78.08953	-2806.81810	78.08953
86500.00000	78.03557	-2802.62055	78.03557
86550.00000	78.42349	-2806.86205	78.42349
86600.00000	78.37004	-2809.73177	78.37004
86650.00000	78.59107	-2808.75931	78.59107
86700.00000	78.26684	-2810.17388	78.26684
86750.00000	78.34539	-2812.75758	78.34539
86800.00000	78.94529	-2817.16550	78.94529
86850.00000	78.94438	-2816.59325	78.94438
86900.00000	78.58361	-2818.24164	78.58361
86950.00000	78.83513	-2821.55260	78.83513
87000.00000	78.97614	-2823.45252	78.97614
87050.00000	78.92398	-2827.09801	78.92398
87100.00000	78.85204	-2829.00000	78.85204
87150.00000	79.19589	-2831.85523	79.19589
87200.00000	79.32539	-2833.11171	79.32539
87250.00000	79.02299	-2835.96096	79.02299
87300.00000	78.88012	-2838.37034	78.88012
87350.00000	79.23663	-2839.72539	79.23663
87400.00000	79.07673	-2844.90941	79.07673
87450.00000	78.74249	-2848.56041	78.74249
87500.00000	78.92590	-2848.82444	78.92590
87550.00000	78.87102	-2852.89556	78.87102
87600.00000	78.71154	-2856.20303	78.71154
87650.00000	79.00783	-2858.68358	79.00783
87700.00000	78.59589	-2862.32251	78.59589
87750.00000	79.19664	-2864.91234	79.19664
87800.00000	78.63205	-2870.13716	78.63205
87850.00000	79.24575	-2872.48612	79.24575
87900.00000	78.80343	-2875.65659	78.80343
87950.00000	78.53327	-2880.61529	78.53327
88000.00000	78.35671	-2882.91435	78.35671
88050.00000	78.58080	-2886.76245	78.58080
88100.00000	78.39692	-2893.23104	78.39692
88150.00000	78.36746	-2895.81055	78.36746
88200.00000	78.08566	-2901.90447	78.08566
88250.00000	77.92841	-2904.28506	77.92841
88300.00000	77.38404	-2906.53428	77.38404
88350.00000	77.24648	-2914.38054	77.24648
88400.00000	76.79986	-2916.80313	76.79986
88450.00000	76.38748	-2923.97437	76.38748
88500.00000	75.97605	-2927.77467	75.97605
88550.00000	75.42412	-2930.84611	75.42412
88600.00000	74.45854	-2934.97987	74.45854
88650.00000	74.06436	-2938.44051	74.06436
88700.00000	73.22318	-2941.61625	73.22318
88750.00000	72.64094	-2941.92581	72.64094
88800.00000	71.53750	-2948.24352	71.53750
88850.00000	71.54909	-2942.94471	71.54909
88900.00000	71.14343	-2952.68663	71.14343
88950.00000	69.93033	-2952.56445	69.93033
89000.00000	68.92837	-2956.19599	68.92837
89050.00000	67.99042	-2953.46610	67.99042
89100.00000	66.93034	-2959.28988	66.93034
89150.00000	65.66190	-2957.58799	65.66190
89200.00000	64.59809	-2942.60479	64.59809
89250.00000	62.18981	-2948.12423	62.18981
89300.00000	61.49605	-2937.66216	61.49605
89350.00000	59.33756	-2941.31170	59.33756
89400.00000	59.38877	-2930.94803	59.38877
89450.00000	60.67758	-2932.02831	60.67758
89500.00000	60.90082	-2911.97706	60.90082
89550.00000	61.14632	-2903.18079	61.14632
89600.00000	59.22752	-2890.42110	59.22752
89650.00000	63.01976	-2885.77851	63.01976
89700.00000	61.69917	-2876.58355	61.69917
89750.00000	63.85254	-2877.02820	63.85254
89800.00000	65.13460	-2865.51418	65.13460
89850.00000	65.95056	-2861.79216	65.95056
89900.00000	66.46732	-2855.82216	66.46732
89950.00000	67.41052	-2855.72236	67.41052
90000.00000	67.93825	-2853.81375	67.93825
90050.00000	70.41450	-2845.84568	70.41450
90100.00000	72.52354	-2849.16562	72.52354
90150.00000	73.93933	-2846.53889	73.93933
90200.00000	77.79600	-2853.69806	77.79600
90250.00000	79.90864	-2879.23448	79.90864
90300.00000	79.80859	-2897.86512	79.80859
90350.00000	78.67526	-2909.08791	78.67526
90400.00000	77.81287	-2913.71267	77.81287
90450.00000	78.10176	-2919.28306	78.10176
90500.00000	77.54378	-2924.39493	77.54378
90550.00000	77.45665	-2925.14445	77.45665
90600.00000	77.45935	-2926.66140	77.45935
90650.00000	77.65403	-2931.62796	77.65403
90700.00000	77.37838	-2937.02135	77.37838
90750.00000	77.82888	-2934.78248	77.82888
90800.00000	77.76106	-2941.14654	77.76106
90850.00000	78.41440	-2940.25495	78.41440
90900.00000	78.59783	-2945.60208	78.59783
90950.00000	78.82437	-2948.03012	78.82437
91000.00000	79.08028	-2950.51380	79.08028
91050.00000	79.23321	-2954.37863	79.23321
91100.00000	79.54960	-2956.16413	79.54960
91150.00000	79.67994	-2959.20182	79.67994
91200.00000	79.91629	-2964.84079	79.91629
91250.00000	79.87763	-2969.06441	79.87763
91300.00000	80.35929	-2971.51036	80.35929
91350.00000	80.37498	-2976.76106	80.37498
91400.00000	80.83882	-2977.90531	80.83882
91450.00000	80.77309	-2980.92106	80.77309
91500.00000	81.24071	-2987.43118	81.24071
91550.00000	81.11860	-2991.28531	81.11860
91600.00000	81.62513	-2994.89932	81.62513
91650.00000	81.49948	-3001.24250	81.49948
91700.00000	81.73205	-3003.27315	81.73205
91750.00000	81.92348	-3009.54366	81.92348
91800.00000	81.83757	-3012.25064	81.83757
91850.00000	81.95046	-3018.52616	81.95046
91900.00000	82.15737	-3022.97382	82.15737
91950.00000	81.90632	-3026.90694	81.90632
92000.00000	82.03506	-3029.91179	82.03506
92050.00000	82.05365	-3036.76728	82.05365
92100.00000	81.97700	-3040.57241	81.97700
92150.00000	81.97051	-3044.51383	81.97051
92200.00000	81.75602	-3049.76777	81.75602
92250.00000	81.71132	-3054.29649	81.71132
92300.00000	81.74745	-3058.05675	81.74745
92350.00000	81.61562	-3062.36475	81.61562
92400.00000	81.57864	-3068.04718	81.57864
92450.00000	81.36903	-3071.13252	81.36903
92500.00000	81.18410	-3077.03189	81.18410
92550.00000	80.96465	-3080.44826	80.96465
92600.00000	80.72286	-3082.23962	80.72286
92650.00000	80.56070	-3087.17551	80.56070
92700.00000	80.08568	-3090.69387	80.08568
92750.00000	79.91217	-3096.25888	79.91217
92800.00000	79.66677	-3094.65267	79.66677
92850.00000	79.52224	-3099.51327	79.52224
92900.00000	79.47106	-3101.62599	79.47106
92950.00000	78.84552	-3102.39480	78.84552
93000.00000	79.18861	-3105.52778	79.18861
93050.00000	78.73608	-3106.61925	78.73608
93100.00000	78.92930	-3106.75215	78.92930
93150.00000	79.29227	-3111.82488	79.29227
93200.00000	79.37031	-3113.76385	79.37031
93250.00000	79.42510	-3114.68424	79.42510
93300.00000	79.46248	-3119.35968	79.46248
93350.00000	79.88738	-3124.77227	79.88738
93400.00000	79.73495	-3126.91063	79.73495
93450.00000	80.12494	-3129.39440	80.12494
93500.00000	80.11886	-3134.05589	80.11886
93550.00000	79.76128	-3138.58566	79.76128
93600.00000	80.52604	-3144.86675	80.52604
93650.00000	80.65903	-3149.12003	80.65903
93700.00000	80.74303	-3153.50059	80.74303
93750.00000	80.53823	-3155.71071	80.53823
93800.00000	80.26427	-3161.79591	80.26427
93850.00000	80.41981	-3166.32761	80.41981
93900.00000	80.23725	-3173.22704	80.23725
93950.00000	80.51778	-3177.58153	80.51778
94000.00000	80.26107	-3183.29942	80.26107
94050.00000	79.98870	-3189.98925	79.98870
94100.00000	79.77896	-3194.20583	79.77896
94150.00000	79.60649	-3199.07283	79.60649
94200.00000	79.56802	-3200.75469	79.56802
94250.00000	79.55575	-3208.66746	79.55575
94300.00000	79.07711	-3212.05446	79.07711
94350.00000	78.66233	-3219.89988	78.66233
94400.00000	78.44222	-3221.73926	78.44222
94450.00000	78.51453	-3226.75554	78.51453
94500.00000	78.14458	-3231.66448	78.14458
94550.00000	77.92058	-3234.53809	77.92058
94600.00000	77.79605	-3238.13809	77.79605
94650.00000	77.66296	-3241.62215	77.66296
94700.00000	77.51312	-3247.88442	77.51312
94750.00000	77.18437	-3250.63344	77.18437
94800.00000	77.28250	-3262.36385	77.28250
94850.00000	77.01627	-3261.05417	77.01627
94900.00000	76.23130	-3266.64833	76.23130
94950.00000	76.41317	-3273.78829	76.41317
95000.00000	76.26524	-3275.06286	76.26524
95050.00000	75.67072	-3281.83312	75.67072
95100.00000	75.38644	-3286.69035	75.38644
95150.00000	74.82089	-3289.18764	74.82089
95200.00000	74.00870	-3292.77394	74.00870
95250.00000	73.77861	-3302.37058	73.77861
95300.00000	73.66697	-3302.20883	73.66697
95350.00000	73.10297	-3307.16239	73.10297
95400.00000	72.34339	-3311.28041	72.34339
95450.00000	72.01718	-3310.60614	72.01718
95500.00000	71.41598	-3317.07600	71.41598
95550.00000	70.81513	-3310.96373	70.81513
95600.00000	71.04717	-3315.68988	71.04717
95650.00000	72.04369	-3320.83376	72.04369
95700.00000	70.84634	-3321.44920	70.84634
95750.00000	68.91245	-3326.88438	68.91245
95800.00000	69.29370	-3327.86575	69.29370
95850.00000	70.26985	-3319.40018	70.26985
95900.00000	70.39960	-3329.37285	70.39960
95950.00000	68.70109	-3323.14856	68.70109
96000.00000	68.83153	-3328.80281	68.83153
96050.00000	66.60457	-3336.22465	66.60457
96100.00000	68.50771	-3345.94864	68.50771
96150.00000	66.46113	-3334.38260	66.46113
96200.00000	67.41552	-3348.78346	67.41552
96250.00000	68.26235	-3343.03229	68.26235
96300.00000	69.86866	-3340.51672	69.86866
96350.00000	70.03957	-3352.32429	70.03957
96400.00000	69.01563	-3340.39434	69.01563
96450.00000	68.73570	-3344.38209	68.73570
96500.00000	69.97947	-3323.77449	69.97947
96550.00000	69.13423	-3342.71929	69.13423
96600.00000	70.91628	-3343.19723	70.91628
96650.00000	69.32835	-3352.47564	69.32835
96700.00000	69.74751	-3348.61293	69.74751
96750.00000	69.67412	-3357.03399	69.67412
96800.00000	70.71752	-3348.59648	70.71752
96850.00000	73.27708	-3381.55075	73.27708
96900.00000	72.46271	-3377.22705	72.46271
96950.00000	74.73571	-3384.67487	74.73571
97000.00000	76.57403	-3393.76582	76.57403
97050.00000	72.96486	-3365.76137	72.96486
97100.00000	77.90222	-3400.26844	77.90222
97150.00000	77.13065	-3409.84134	77.13065
97200.00000	77.19412	-3407.55073	77.19412
97250.00000	76.78720	-3435.89285	76.78720
97300.00000	79.48853	-3450.38192	79.48853
97350.00000	77.13687	-3471.65189	77.13687
97400.00000	75.45543	-3481.63552	75.45543
97450.00000	73.05880	-3481.43226	73.05880
97500.00000	71.44749	-3477.61778	71.44749
97550.00000	69.03780	-3457.95860	69.03780
97600.00000	70.45430	-3475.89488	70.45430
97650.00000	70.02695	-3470.16732	70.02695
97700.00000	70.32273	-3480.69170	70.32273
97750.00000	69.15945	-3494.01478	69.15945
97800.00000	68.90334	-3482.55384	68.90334
97850.00000	69.41066	-3488.84790	69.41066
97900.00000	69.81953	-3496.43209	69.81953
97950.00000	69.90080	-3490.08446	69.90080
98000.00000	70.13738	-3498.10199	70.13738
98050.00000	68.98157	-3500.25327	68.98157
98100.00000	68.69265	-3497.97473	68.69265
98150.00000	67.26261	-3496.29976	67.26261
98200.00000	67.62996	-3506.72338	67.62996
98250.00000	68.92889	-3502.39328	68.92889
98300.00000	68.69820	-3504.97710	68.69820
98350.00000	68.69742	-3502.22418	68.69742
98400.00000	68.13190	-3502.72307	68.13190
98450.00000	67.70510	-3500.46188	67.70510
98500.00000	68.28189	-3518.89553	68.28189
98550.00000	67.95755	-3510.15558	67.95755
98600.00000	67.78072	-3526.05145	67.78072
98650.00000	68.19690	-3508.05023	68.19690
98700.00000	67.48400	-3523.20780	67.48400
98750.00000	67.03611	-3519.20310	67.03611
98800.00000	67.12872	-3520.27907	67.12872
98850.00000	66.36709	-3520.30098	66.36709
98900.00000	67.18430	-3524.57703	67.18430
98950.00000	65.58299	-3521.87218	65.58299
99000.00000	66.03633	-3543.18143	66.03633
99050.00000	66.93713	-3543.20531	66.93713
99100.00000	66.24209	-3537.90636	66.24209
99150.00000	68.04021	-3533.09247	68.04021
99200.00000	67.13219	-3539.03695	67.13219
99250.00000	68.71958	-3544.91883	68.71958
99300.00000	67.00770	-3546.28305	67.00770
99350.00000	64.99798	-3543.66318	64.99798
99400.00000	67.19664	-3550.71208	67.19664
99450.00000	67.82913	-3555.43621	67.82913
99500.00000	64.69376	-3554.75115	64.69376
99550.00000	66.83655	-3562.23669	66.83655
99600.00000	66.52043	-3559.30142	66.52043
99650.00000	66.14280	-3558.09948	66.14280
99700.00000	65.50679	-3572.85145	65.50679
99750.00000	67.15735	-3572.85071	67.15735
99800.00000	65.98539	-3589.12789	65.98539
99850.00000	66.00349	-3600.09873	66.00349
99900.00000	64.64923	-3584.44405	64.64923
99950.00000	65.35885	-3588.11767	65.35885
