---ACOUSTIC CALIBRATION---
Filename: C:\Data\CL0809 DATA\CL0809100\RightPrimary.calib
Date: 8/9/2019 9:01:54 AM
Format: 4
Probe Tube Correction File: C:\Data\Probe Tube Calibrations\74_ProbeTube.calib
Experiment VIs: 2128
EPL_CFTS.exe V15.0.1f5 (2015)
DAQmx V15.1

Attenuation (dB): 40.000000
Min Freq (Hz): 50.000000
Max Freq (Hz): 99950.000000
Freq Step (Hz): 50.000000
Sample Rate (Hz): 200000.000000
[Smoothing]
Method=None
MA.Iterations=0
MA.Length=0
Loess.Length=0
Loess.Type=Linear
Loess.Robust=FALSE


Freq(Hz)	Mag(dB)	Phase(deg)	Unsmoothed(dB)

50.00000	97.94009	41.35140	97.94009
100.00000	61.59750	-94.94570	61.59750
150.00000	68.84993	75.90990	68.84993
200.00000	60.32996	158.34378	60.32996
250.00000	51.40522	391.44108	51.40522
300.00000	65.41076	464.54257	65.41076
350.00000	57.28686	664.60021	57.28686
400.00000	57.42625	721.50655	57.42625
450.00000	61.57798	740.72331	61.57798
500.00000	64.79273	851.96115	64.79273
550.00000	69.09716	794.05153	69.09716
600.00000	66.40631	756.89283	66.40631
650.00000	74.88850	768.40737	74.88850
700.00000	74.04417	762.56170	74.04417
750.00000	77.30353	730.15921	77.30353
800.00000	78.73660	727.98244	78.73660
850.00000	77.63910	721.69018	77.63910
900.00000	78.27343	727.68810	78.27343
950.00000	80.73708	726.17096	80.73708
1000.00000	82.98444	731.80138	82.98444
1050.00000	86.10758	725.63103	86.10758
1100.00000	89.19052	713.68179	89.19052
1150.00000	91.12361	698.74473	91.12361
1200.00000	92.40624	685.61354	92.40624
1250.00000	93.10537	671.06047	93.10537
1300.00000	93.47744	662.33163	93.47744
1350.00000	94.24075	655.93870	94.24075
1400.00000	95.25821	648.11217	95.25821
1450.00000	96.24530	636.69064	96.24530
1500.00000	96.64869	625.34220	96.64869
1550.00000	96.59653	615.24144	96.59653
1600.00000	96.99344	611.77082	96.99344
1650.00000	97.69471	608.71823	97.69471
1700.00000	101.52469	592.61787	101.52469
1750.00000	98.53016	572.59767	98.53016
1800.00000	98.30243	567.13180	98.30243
1850.00000	98.08317	558.90461	98.08317
1900.00000	97.88795	551.44857	97.88795
1950.00000	97.21337	545.94550	97.21337
2000.00000	96.63919	542.20870	96.63919
2050.00000	96.32398	542.10344	96.32398
2100.00000	97.13456	540.96634	97.13456
2150.00000	97.98369	532.53832	97.98369
2200.00000	97.92603	520.45190	97.92603
2250.00000	97.10817	512.89856	97.10817
2300.00000	96.49601	510.38498	96.49601
2350.00000	96.66690	505.77048	96.66690
2400.00000	96.61711	499.24067	96.61711
2450.00000	96.08124	491.41810	96.08124
2500.00000	95.27913	488.66614	95.27913
2550.00000	95.00383	484.73570	95.00383
2600.00000	94.58228	481.18321	94.58228
2650.00000	94.25545	478.96112	94.25545
2700.00000	93.99560	474.50530	93.99560
2750.00000	93.44537	470.43234	93.44537
2800.00000	92.86589	466.97170	92.86589
2850.00000	92.43581	465.33545	92.43581
2900.00000	92.07282	462.68296	92.07282
2950.00000	91.61177	460.22681	91.61177
3000.00000	90.96517	459.13869	90.96517
3050.00000	90.51255	459.51607	90.51255
3100.00000	90.46878	458.66042	90.46878
3150.00000	90.13141	457.28006	90.13141
3200.00000	89.78401	455.11295	89.78401
3250.00000	89.61465	454.97328	89.61465
3300.00000	89.44200	453.05401	89.44200
3350.00000	89.17601	450.91495	89.17601
3400.00000	88.58587	448.35208	88.58587
3450.00000	88.09074	449.73191	88.09074
3500.00000	87.89557	450.42438	87.89557
3550.00000	88.07171	447.45596	88.07171
3600.00000	87.25162	442.65007	87.25162
3650.00000	86.46550	443.47452	86.46550
3700.00000	85.82972	442.28049	85.82972
3750.00000	85.02331	439.56583	85.02331
3800.00000	83.71430	439.70653	83.71430
3850.00000	81.92118	437.87127	81.92118
3900.00000	80.19625	446.02512	80.19625
3950.00000	78.20479	461.70106	78.20479
4000.00000	76.32710	479.53796	76.32710
4050.00000	77.46234	513.66746	77.46234
4100.00000	80.74636	531.64521	80.74636
4150.00000	84.38744	535.72226	84.38744
4200.00000	86.80894	536.98698	86.80894
4250.00000	88.17335	530.20061	88.17335
4300.00000	89.49560	531.71593	89.49560
4350.00000	91.04012	530.64660	91.04012
4400.00000	92.45498	527.61228	92.45498
4450.00000	93.55609	523.43635	93.55609
4500.00000	94.62459	519.83498	94.62459
4550.00000	95.47177	516.57845	95.47177
4600.00000	96.40462	512.76580	96.40462
4650.00000	97.26116	509.43692	97.26116
4700.00000	98.00180	506.11228	98.00180
4750.00000	98.75458	503.53917	98.75458
4800.00000	99.64418	501.32564	99.64418
4850.00000	100.61620	498.49880	100.61620
4900.00000	101.63963	494.59413	101.63963
4950.00000	102.69994	490.75897	102.69994
5000.00000	103.80411	485.91752	103.80411
5050.00000	104.96252	480.65030	104.96252
5100.00000	106.24313	474.83935	106.24313
5150.00000	107.75795	467.97158	107.75795
5200.00000	109.69119	458.33560	109.69119
5250.00000	112.24139	441.94924	112.24139
5300.00000	114.57508	405.40360	114.57508
5350.00000	111.32843	356.50116	111.32843
5400.00000	104.68084	339.03278	104.68084
5450.00000	98.71687	350.24662	98.71687
5500.00000	96.91807	378.90359	96.91807
5550.00000	97.97869	387.70724	97.97869
5600.00000	96.75808	387.32761	96.75808
5650.00000	95.60915	405.34726	95.60915
5700.00000	97.12926	419.96804	97.12926
5750.00000	99.00681	424.32957	99.00681
5800.00000	100.46748	424.45854	100.46748
5850.00000	101.67290	422.53378	101.67290
5900.00000	102.66739	419.40790	102.66739
5950.00000	103.54890	415.70262	103.54890
6000.00000	104.28974	411.29706	104.28974
6050.00000	104.82245	406.33332	104.82245
6100.00000	105.16201	401.61278	105.16201
6150.00000	105.30510	397.87621	105.30510
6200.00000	105.44381	395.78850	105.44381
6250.00000	105.69561	394.76309	105.69561
6300.00000	106.12838	394.10654	106.12838
6350.00000	106.75755	393.43826	106.75755
6400.00000	107.54033	392.21598	107.54033
6450.00000	108.43091	390.10577	108.43091
6500.00000	109.38375	386.94079	109.38375
6550.00000	110.36984	382.79861	110.36984
6600.00000	111.33584	377.75739	111.33584
6650.00000	112.27938	371.93117	112.27938
6700.00000	113.22977	365.11855	113.22977
6750.00000	114.11667	357.14068	114.11667
6800.00000	114.88961	348.06183	114.88961
6850.00000	115.50459	338.00888	115.50459
6900.00000	115.91263	327.24984	115.91263
6950.00000	116.07780	316.25230	116.07780
7000.00000	115.99936	305.55819	115.99936
7050.00000	115.73567	295.77507	115.73567
7100.00000	115.36332	286.90160	115.36332
7150.00000	114.92482	278.92804	114.92482
7200.00000	114.44945	271.73677	114.44945
7250.00000	113.95607	265.30446	113.95607
7300.00000	113.48059	259.54653	113.48059
7350.00000	113.03139	254.26035	113.03139
7400.00000	112.63413	249.46465	112.63413
7450.00000	112.28639	244.58817	112.28639
7500.00000	111.92715	239.59988	111.92715
7550.00000	111.53384	234.56446	111.53384
7600.00000	111.09748	229.95397	111.09748
7650.00000	110.66710	225.55265	110.66710
7700.00000	110.21926	221.60778	110.21926
7750.00000	109.77411	217.90821	109.77411
7800.00000	109.35297	214.57204	109.35297
7850.00000	108.95939	211.51971	108.95939
7900.00000	108.57572	208.52516	108.57572
7950.00000	108.22522	205.96326	108.22522
8000.00000	107.90851	203.45742	107.90851
8050.00000	107.60547	201.03908	107.60547
8100.00000	107.34963	198.69320	107.34963
8150.00000	107.13537	196.47634	107.13537
8200.00000	106.93575	194.04065	106.93575
8250.00000	106.75582	191.68908	106.75582
8300.00000	106.58386	189.16221	106.58386
8350.00000	106.42559	186.77315	106.42559
8400.00000	106.31527	184.48102	106.31527
8450.00000	106.18559	181.93612	106.18559
8500.00000	106.10199	179.33980	106.10199
8550.00000	105.99890	176.67527	105.99890
8600.00000	105.93435	173.99483	105.93435
8650.00000	105.88480	171.21968	105.88480
8700.00000	105.79512	168.08476	105.79512
8750.00000	105.70770	164.94561	105.70770
8800.00000	105.63091	161.81335	105.63091
8850.00000	105.57677	158.57329	105.57677
8900.00000	105.47386	155.13347	105.47386
8950.00000	105.36614	151.61473	105.36614
9000.00000	105.18112	148.24536	105.18112
9050.00000	105.07973	144.92174	105.07973
9100.00000	104.96039	141.47731	104.96039
9150.00000	104.79212	137.64316	104.79212
9200.00000	104.57338	134.37798	104.57338
9250.00000	104.39684	131.04494	104.39684
9300.00000	104.20492	127.27126	104.20492
9350.00000	103.94939	123.70913	103.94939
9400.00000	103.67193	120.36081	103.67193
9450.00000	103.37630	117.23566	103.37630
9500.00000	103.10678	114.31116	103.10678
9550.00000	102.83563	111.54003	102.83563
9600.00000	102.59121	108.80734	102.59121
9650.00000	102.33844	106.14828	102.33844
9700.00000	102.03812	103.46151	102.03812
9750.00000	101.74644	100.77697	101.74644
9800.00000	101.45237	98.60891	101.45237
9850.00000	101.12436	96.08780	101.12436
9900.00000	100.77803	94.38158	100.77803
9950.00000	100.32991	92.70522	100.32991
10000.00000	99.91889	93.17739	99.91889
10050.00000	99.74684	95.80574	99.74684
10100.00000	100.44970	96.69088	100.44970
10150.00000	100.90136	92.01670	100.90136
10200.00000	100.91106	87.19876	100.91106
10250.00000	100.76521	83.65945	100.76521
10300.00000	100.62462	80.58054	100.62462
10350.00000	100.47551	77.84322	100.47551
10400.00000	100.28635	75.09817	100.28635
10450.00000	100.21125	72.80530	100.21125
10500.00000	100.15409	70.19205	100.15409
10550.00000	100.09012	67.71641	100.09012
10600.00000	100.11369	64.72092	100.11369
10650.00000	100.05866	61.82475	100.05866
10700.00000	100.06200	58.84690	100.06200
10750.00000	100.06472	55.83006	100.06472
10800.00000	100.07176	52.08437	100.07176
10850.00000	100.08278	48.57576	100.08278
10900.00000	100.09823	44.89644	100.09823
10950.00000	100.07597	41.02501	100.07597
11000.00000	100.05725	36.76117	100.05725
11050.00000	99.92658	32.61976	99.92658
11100.00000	99.88285	28.28388	99.88285
11150.00000	99.77553	23.71157	99.77553
11200.00000	99.63165	18.99726	99.63165
11250.00000	99.38213	14.06998	99.38213
11300.00000	99.13945	 9.27679	99.13945
11350.00000	98.87815	 4.38320	98.87815
11400.00000	98.52550	-0.68208	98.52550
11450.00000	98.17277	-5.63001	98.17277
11500.00000	97.77073	-10.57556	97.77073
11550.00000	97.33607	-15.52394	97.33607
11600.00000	96.82889	-20.20506	96.82889
11650.00000	96.31749	-24.59051	96.31749
11700.00000	95.84163	-29.36216	95.84163
11750.00000	95.23537	-33.53617	95.23537
11800.00000	94.73203	-37.49063	94.73203
11850.00000	94.19170	-41.34020	94.19170
11900.00000	93.62704	-44.87405	93.62704
11950.00000	93.06588	-48.24353	93.06588
12000.00000	92.55893	-51.21798	92.55893
12050.00000	91.94900	-53.85141	91.94900
12100.00000	91.33087	-57.10519	91.33087
12150.00000	90.69926	-59.53805	90.69926
12200.00000	90.07862	-62.24890	90.07862
12250.00000	89.44253	-64.78454	89.44253
12300.00000	88.61614	-66.93109	88.61614
12350.00000	88.00108	-68.93576	88.00108
12400.00000	87.21890	-71.17201	87.21890
12450.00000	86.71415	-73.47490	86.71415
12500.00000	86.07474	-75.46032	86.07474
12550.00000	85.28388	-77.99986	85.28388
12600.00000	84.65273	-79.94233	84.65273
12650.00000	84.11033	-82.52367	84.11033
12700.00000	83.35895	-84.15924	83.35895
12750.00000	82.81156	-86.16014	82.81156
12800.00000	82.23117	-88.18392	82.23117
12850.00000	81.67374	-90.24060	81.67374
12900.00000	80.99020	-94.13393	80.99020
12950.00000	80.57335	-97.23531	80.57335
13000.00000	79.88931	-100.27629	79.88931
13050.00000	79.44575	-103.99703	79.44575
13100.00000	79.10089	-108.47032	79.10089
13150.00000	78.93837	-112.36463	78.93837
13200.00000	78.95483	-120.33732	78.95483
13250.00000	79.07415	-125.31807	79.07415
13300.00000	79.52014	-131.73751	79.52014
13350.00000	80.27742	-135.91870	80.27742
13400.00000	81.11469	-135.90495	81.11469
13450.00000	81.79418	-132.65748	81.79418
13500.00000	81.72120	-120.27010	81.72120
13550.00000	80.80818	-119.24046	80.80818
13600.00000	79.11101	-123.39217	79.11101
13650.00000	77.77672	-128.46179	77.77672
13700.00000	77.32860	-138.61851	77.32860
13750.00000	76.95213	-149.48026	76.95213
13800.00000	76.85898	-160.47835	76.85898
13850.00000	77.36456	-173.03414	77.36456
13900.00000	77.71702	-186.27197	77.71702
13950.00000	79.15705	-197.06041	79.15705
14000.00000	80.79776	-207.64048	80.79776
14050.00000	83.39869	-210.03749	83.39869
14100.00000	85.96301	-212.64468	85.96301
14150.00000	87.91639	-206.35613	87.91639
14200.00000	88.58466	-195.12213	88.58466
14250.00000	87.75400	-188.82112	87.75400
14300.00000	86.76742	-186.20549	86.76742
14350.00000	86.20132	-192.54108	86.20132
14400.00000	85.74704	-197.32677	85.74704
14450.00000	85.58578	-204.28076	85.58578
14500.00000	85.73292	-211.04568	85.73292
14550.00000	86.04124	-219.68009	86.04124
14600.00000	86.64877	-225.35766	86.64877
14650.00000	87.44662	-232.00998	87.44662
14700.00000	88.45745	-239.13708	88.45745
14750.00000	89.45020	-244.87562	89.45020
14800.00000	90.68549	-249.37616	90.68549
14850.00000	92.05917	-252.16640	92.05917
14900.00000	93.47150	-252.58008	93.47150
14950.00000	94.38348	-250.64592	94.38348
15000.00000	94.88648	-249.63634	94.88648
15050.00000	95.20982	-247.71152	95.20982
15100.00000	95.22068	-249.04408	95.22068
15150.00000	95.24357	-252.21245	95.24357
15200.00000	95.33266	-256.44714	95.33266
15250.00000	95.24140	-261.02051	95.24140
15300.00000	95.51112	-266.23421	95.51112
15350.00000	95.98543	-271.46020	95.98543
15400.00000	96.41306	-277.64107	96.41306
15450.00000	97.05028	-284.14789	97.05028
15500.00000	97.72465	-288.97358	97.72465
15550.00000	98.41962	-293.20462	98.41962
15600.00000	99.22407	-296.52118	99.22407
15650.00000	99.97982	-299.46845	99.97982
15700.00000	100.46679	-301.50575	100.46679
15750.00000	101.02014	-302.88436	101.02014
15800.00000	101.35901	-304.72941	101.35901
15850.00000	101.68822	-306.94724	101.68822
15900.00000	101.85122	-310.69332	101.85122
15950.00000	102.01481	-314.99078	102.01481
16000.00000	102.23041	-319.94382	102.23041
16050.00000	102.54285	-325.10343	102.54285
16100.00000	102.82019	-330.51470	102.82019
16150.00000	103.25989	-335.97947	103.25989
16200.00000	103.66323	-341.07219	103.66323
16250.00000	104.04552	-346.53541	104.04552
16300.00000	104.48418	-351.43876	104.48418
16350.00000	104.91614	-355.69222	104.91614
16400.00000	105.20475	-359.65952	105.20475
16450.00000	105.48315	-363.35979	105.48315
16500.00000	105.61888	-367.36206	105.61888
16550.00000	105.74965	-371.36409	105.74965
16600.00000	105.82675	-375.62962	105.82675
16650.00000	105.83181	-380.22843	105.83181
16700.00000	105.86935	-384.87857	105.86935
16750.00000	105.93067	-389.85450	105.93067
16800.00000	105.98158	-394.34160	105.98158
16850.00000	106.09241	-399.17640	106.09241
16900.00000	106.19391	-403.18959	106.19391
16950.00000	106.27344	-407.35774	106.27344
17000.00000	106.38168	-411.25502	106.38168
17050.00000	106.45462	-414.53606	106.45462
17100.00000	106.50936	-417.95295	106.50936
17150.00000	106.56399	-421.26218	106.56399
17200.00000	106.51261	-424.75773	106.51261
17250.00000	106.52726	-428.30492	106.52726
17300.00000	106.52943	-432.04522	106.52943
17350.00000	106.51330	-435.55938	106.51330
17400.00000	106.52818	-439.44587	106.52818
17450.00000	106.56807	-443.17537	106.56807
17500.00000	106.57261	-446.79815	106.57261
17550.00000	106.62477	-450.46168	106.62477
17600.00000	106.67890	-453.61538	106.67890
17650.00000	106.73514	-456.73212	106.73514
17700.00000	106.82794	-459.99055	106.82794
17750.00000	106.85553	-463.08851	106.85553
17800.00000	106.89416	-466.09610	106.89416
17850.00000	106.91546	-469.18765	106.91546
17900.00000	106.93628	-472.52383	106.93628
17950.00000	106.93308	-475.66933	106.93308
18000.00000	106.96489	-478.98582	106.96489
18050.00000	106.98415	-482.52170	106.98415
18100.00000	107.00971	-485.86940	107.00971
18150.00000	107.03415	-489.22201	107.03415
18200.00000	107.05286	-492.70606	107.05286
18250.00000	107.07213	-496.14316	107.07213
18300.00000	107.08114	-499.51247	107.08114
18350.00000	107.07284	-502.91089	107.07284
18400.00000	107.07778	-506.25025	107.07778
18450.00000	107.05625	-509.50990	107.05625
18500.00000	107.05641	-512.77135	107.05641
18550.00000	107.04693	-516.19649	107.04693
18600.00000	106.97755	-519.46314	106.97755
18650.00000	106.98259	-522.81789	106.98259
18700.00000	106.95545	-525.86558	106.95545
18750.00000	106.89460	-529.09580	106.89460
18800.00000	106.84794	-532.27903	106.84794
18850.00000	106.80086	-535.13499	106.80086
18900.00000	106.70003	-538.12249	106.70003
18950.00000	106.64746	-541.23252	106.64746
19000.00000	106.57592	-544.22719	106.57592
19050.00000	106.50788	-547.29046	106.50788
19100.00000	106.45651	-550.40841	106.45651
19150.00000	106.38885	-553.00499	106.38885
19200.00000	106.34527	-555.94443	106.34527
19250.00000	106.28081	-558.58639	106.28081
19300.00000	106.24822	-561.11901	106.24822
19350.00000	106.22551	-564.11395	106.22551
19400.00000	106.13786	-566.67707	106.13786
19450.00000	106.06219	-569.54738	106.06219
19500.00000	106.05864	-572.04735	106.05864
19550.00000	106.01806	-574.70137	106.01806
19600.00000	105.96557	-577.49343	105.96557
19650.00000	105.92072	-580.19276	105.92072
19700.00000	105.88828	-582.99437	105.88828
19750.00000	105.84893	-585.57241	105.84893
19800.00000	105.82105	-588.03728	105.82105
19850.00000	105.77776	-590.80658	105.77776
19900.00000	105.75439	-593.60358	105.75439
19950.00000	105.69933	-596.06545	105.69933
20000.00000	105.64016	-599.01834	105.64016
20050.00000	105.60091	-601.55641	105.60091
20100.00000	105.56328	-604.08925	105.56328
20150.00000	105.50845	-606.92275	105.50845
20200.00000	105.46474	-609.43835	105.46474
20250.00000	105.43299	-611.80034	105.43299
20300.00000	105.42055	-614.36673	105.42055
20350.00000	105.37058	-616.72872	105.37058
20400.00000	105.33067	-619.23559	105.33067
20450.00000	105.34192	-621.86094	105.34192
20500.00000	105.29649	-624.33570	105.29649
20550.00000	105.25349	-627.12450	105.25349
20600.00000	105.26277	-629.63657	105.26277
20650.00000	105.25985	-632.33070	105.25985
20700.00000	105.26084	-634.64983	105.26084
20750.00000	105.20732	-637.32999	105.20732
20800.00000	105.21359	-639.95132	105.21359
20850.00000	105.19457	-642.82523	105.19457
20900.00000	105.15026	-645.52109	105.15026
20950.00000	105.13053	-648.10128	105.13053
21000.00000	105.14535	-650.94257	105.14535
21050.00000	105.12613	-653.85074	105.12613
21100.00000	105.09430	-656.53021	105.09430
21150.00000	105.07622	-659.16895	105.07622
21200.00000	105.04229	-661.78853	105.04229
21250.00000	104.98669	-664.64408	104.98669
21300.00000	104.95023	-667.59046	104.95023
21350.00000	104.91803	-670.34536	104.91803
21400.00000	104.85390	-673.44776	104.85390
21450.00000	104.85759	-676.12698	104.85759
21500.00000	104.83595	-678.79488	104.83595
21550.00000	104.80288	-681.48671	104.80288
21600.00000	104.72715	-684.63871	104.72715
21650.00000	104.72084	-687.22735	104.72084
21700.00000	104.64244	-690.52373	104.64244
21750.00000	104.59233	-693.49899	104.59233
21800.00000	104.50825	-696.55642	104.50825
21850.00000	104.48087	-699.49664	104.48087
21900.00000	104.38541	-702.23361	104.38541
21950.00000	104.32173	-705.20655	104.32173
22000.00000	104.16060	-708.04013	104.16060
22050.00000	104.04525	-710.65058	104.04525
22100.00000	103.96170	-713.19553	103.96170
22150.00000	103.88982	-715.96061	103.88982
22200.00000	103.81390	-718.88698	103.81390
22250.00000	103.75088	-721.65085	103.75088
22300.00000	103.63890	-724.57934	103.63890
22350.00000	103.52107	-727.66916	103.52107
22400.00000	103.42516	-730.75171	103.42516
22450.00000	103.30090	-733.57621	103.30090
22500.00000	103.13536	-736.44977	103.13536
22550.00000	103.02218	-739.39317	103.02218
22600.00000	102.82358	-741.98848	102.82358
22650.00000	102.67023	-744.50907	102.67023
22700.00000	102.51961	-747.12001	102.51961
22750.00000	102.35982	-749.98959	102.35982
22800.00000	102.23281	-752.48122	102.23281
22850.00000	102.03032	-754.92412	102.03032
22900.00000	101.87893	-757.08347	101.87893
22950.00000	101.78855	-759.29308	101.78855
23000.00000	101.54783	-761.70797	101.54783
23050.00000	101.39468	-763.90233	101.39468
23100.00000	101.20790	-765.89802	101.20790
23150.00000	101.09019	-768.20032	101.09019
23200.00000	100.91345	-770.63227	100.91345
23250.00000	100.78837	-772.77453	100.78837
23300.00000	100.70628	-775.10890	100.70628
23350.00000	100.49757	-776.78287	100.49757
23400.00000	100.38549	-778.57886	100.38549
23450.00000	100.27329	-780.61026	100.27329
23500.00000	100.18188	-782.41943	100.18188
23550.00000	100.10738	-784.39609	100.10738
23600.00000	100.05825	-786.86845	100.05825
23650.00000	99.78927	-788.65792	99.78927
23700.00000	99.79530	-790.43031	99.79530
23750.00000	99.73258	-792.87311	99.73258
23800.00000	99.66627	-795.07202	99.66627
23850.00000	99.57685	-797.25073	99.57685
23900.00000	99.46691	-799.34515	99.46691
23950.00000	99.43728	-801.06635	99.43728
24000.00000	99.40460	-803.76686	99.40460
24050.00000	99.28086	-805.91889	99.28086
24100.00000	99.18764	-808.45087	99.18764
24150.00000	99.09716	-810.22372	99.09716
24200.00000	99.04140	-813.28598	99.04140
24250.00000	98.95692	-815.26505	98.95692
24300.00000	98.89978	-818.32598	98.89978
24350.00000	98.81578	-820.58119	98.81578
24400.00000	98.74898	-823.15933	98.74898
24450.00000	98.59902	-825.10315	98.59902
24500.00000	98.43374	-828.49513	98.43374
24550.00000	98.28835	-831.22549	98.28835
24600.00000	98.20997	-834.45731	98.20997
24650.00000	98.06868	-836.77655	98.06868
24700.00000	97.91492	-839.46375	97.91492
24750.00000	97.78706	-842.18793	97.78706
24800.00000	97.57236	-844.67006	97.57236
24850.00000	97.45357	-847.38467	97.45357
24900.00000	97.15854	-849.92628	97.15854
24950.00000	97.04424	-852.41465	97.04424
25000.00000	96.78236	-855.00723	96.78236
25050.00000	96.55242	-856.88901	96.55242
25100.00000	96.32464	-858.97014	96.32464
25150.00000	96.01912	-861.07385	96.01912
25200.00000	95.77562	-862.90304	95.77562
25250.00000	95.53293	-865.50275	95.53293
25300.00000	95.20889	-867.47763	95.20889
25350.00000	95.06838	-869.66689	95.06838
25400.00000	94.78420	-871.57724	94.78420
25450.00000	94.57668	-873.43428	94.57668
25500.00000	94.25950	-875.05172	94.25950
25550.00000	94.04049	-876.73851	94.04049
25600.00000	93.82796	-878.05091	93.82796
25650.00000	93.54372	-879.99358	93.54372
25700.00000	93.42853	-881.18302	93.42853
25750.00000	93.24403	-883.26108	93.24403
25800.00000	93.00000	-884.08144	93.00000
25850.00000	92.80784	-885.51426	92.80784
25900.00000	92.60325	-887.24405	92.60325
25950.00000	92.39586	-888.33912	92.39586
26000.00000	92.26537	-889.71982	92.26537
26050.00000	92.09769	-890.97562	92.09769
26100.00000	91.96438	-892.79118	91.96438
26150.00000	91.66231	-894.94844	91.66231
26200.00000	91.54960	-895.97859	91.54960
26250.00000	91.33422	-897.23073	91.33422
26300.00000	91.05408	-899.25472	91.05408
26350.00000	90.94936	-900.78390	90.94936
26400.00000	90.73858	-902.25570	90.73858
26450.00000	90.47119	-904.75260	90.47119
26500.00000	90.21218	-905.93583	90.21218
26550.00000	90.04765	-906.81552	90.04765
26600.00000	89.79977	-908.28800	89.79977
26650.00000	89.62894	-910.37141	89.62894
26700.00000	89.33355	-911.66976	89.33355
26750.00000	89.04306	-912.53287	89.04306
26800.00000	88.77897	-914.38587	88.77897
26850.00000	88.45844	-914.66798	88.45844
26900.00000	88.09489	-915.77015	88.09489
26950.00000	87.84880	-916.95490	87.84880
27000.00000	87.47903	-917.89749	87.47903
27050.00000	87.25934	-917.31888	87.25934
27100.00000	86.96399	-917.97047	86.96399
27150.00000	86.71047	-917.98366	86.71047
27200.00000	86.50458	-918.40921	86.50458
27250.00000	86.32116	-919.40624	86.32116
27300.00000	85.98489	-918.85337	85.98489
27350.00000	85.71978	-918.21003	85.71978
27400.00000	85.43027	-918.34078	85.43027
27450.00000	85.48472	-919.00137	85.48472
27500.00000	85.16307	-918.38074	85.16307
27550.00000	85.00758	-918.15845	85.00758
27600.00000	84.88347	-917.98559	84.88347
27650.00000	84.73016	-917.33955	84.73016
27700.00000	84.53371	-917.47751	84.53371
27750.00000	84.42068	-916.47151	84.42068
27800.00000	84.31039	-916.76899	84.31039
27850.00000	84.34349	-916.00343	84.34349
27900.00000	84.23681	-915.17729	84.23681
27950.00000	84.24861	-914.06647	84.24861
28000.00000	84.11811	-913.84129	84.11811
28050.00000	84.20394	-913.65791	84.20394
28100.00000	84.06442	-913.10672	84.06442
28150.00000	83.99880	-912.61783	83.99880
28200.00000	84.08251	-912.78426	84.08251
28250.00000	84.12970	-911.35419	84.12970
28300.00000	84.06015	-911.08104	84.06015
28350.00000	84.28431	-910.69405	84.28431
28400.00000	84.26849	-910.29873	84.26849
28450.00000	84.18780	-909.95667	84.18780
28500.00000	84.37273	-909.46954	84.37273
28550.00000	84.44365	-910.42682	84.44365
28600.00000	84.57979	-909.45270	84.57979
28650.00000	84.64067	-908.90939	84.64067
28700.00000	84.76811	-908.46328	84.76811
28750.00000	84.82170	-907.99766	84.82170
28800.00000	84.96716	-909.48568	84.96716
28850.00000	85.18036	-908.73901	85.18036
28900.00000	85.34414	-908.69948	85.34414
28950.00000	85.44369	-908.13891	85.44369
29000.00000	85.63209	-908.31070	85.63209
29050.00000	85.85890	-908.98374	85.85890
29100.00000	85.88220	-908.50391	85.88220
29150.00000	86.16160	-908.71375	86.16160
29200.00000	86.46021	-908.95143	86.46021
29250.00000	86.58298	-908.93871	86.58298
29300.00000	86.77973	-909.57706	86.77973
29350.00000	86.86082	-909.42799	86.86082
29400.00000	87.12889	-910.83367	87.12889
29450.00000	87.38334	-911.42608	87.38334
29500.00000	87.67612	-911.58207	87.67612
29550.00000	87.82776	-911.63955	87.82776
29600.00000	88.06986	-913.07138	88.06986
29650.00000	88.31961	-913.67243	88.31961
29700.00000	88.50596	-914.42471	88.50596
29750.00000	88.71626	-915.33804	88.71626
29800.00000	88.92331	-916.12179	88.92331
29850.00000	89.19378	-917.13326	89.19378
29900.00000	89.42935	-917.65717	89.42935
29950.00000	89.67238	-919.00767	89.67238
30000.00000	89.86549	-920.26153	89.86549
30050.00000	90.07110	-920.98249	90.07110
30100.00000	90.36763	-922.43191	90.36763
30150.00000	90.55607	-923.14731	90.55607
30200.00000	90.79986	-924.41887	90.79986
30250.00000	91.07115	-925.57801	91.07115
30300.00000	91.34032	-927.22828	91.34032
30350.00000	91.59369	-928.20751	91.59369
30400.00000	91.80746	-930.29387	91.80746
30450.00000	92.04527	-931.48644	92.04527
30500.00000	92.25945	-932.96530	92.25945
30550.00000	92.47481	-934.41709	92.47481
30600.00000	92.71628	-935.94131	92.71628
30650.00000	92.93520	-937.34834	92.93520
30700.00000	93.21984	-939.05031	93.21984
30750.00000	93.37278	-941.12919	93.37278
30800.00000	93.57205	-942.37482	93.57205
30850.00000	93.84918	-944.08391	93.84918
30900.00000	94.05892	-946.11176	94.05892
30950.00000	94.26009	-947.74427	94.26009
31000.00000	94.50390	-949.67922	94.50390
31050.00000	94.69329	-951.50403	94.69329
31100.00000	94.88482	-953.10904	94.88482
31150.00000	95.11502	-955.19579	95.11502
31200.00000	95.29638	-957.19741	95.29638
31250.00000	95.49106	-958.94171	95.49106
31300.00000	95.67543	-961.23697	95.67543
31350.00000	95.89199	-963.24104	95.89199
31400.00000	96.09606	-965.25580	96.09606
31450.00000	96.26163	-967.34003	96.26163
31500.00000	96.40674	-969.70618	96.40674
31550.00000	96.56943	-971.60064	96.56943
31600.00000	96.79436	-973.98779	96.79436
31650.00000	96.93625	-976.14191	96.93625
31700.00000	97.06726	-978.29774	97.06726
31750.00000	97.20621	-980.62510	97.20621
31800.00000	97.33832	-983.09689	97.33832
31850.00000	97.50580	-984.99878	97.50580
31900.00000	97.60054	-987.23667	97.60054
31950.00000	97.71605	-989.58543	97.71605
32000.00000	97.82776	-991.74914	97.82776
32050.00000	97.88054	-994.16036	97.88054
32100.00000	98.01510	-996.14295	98.01510
32150.00000	98.04682	-998.22854	98.04682
32200.00000	98.18232	-1000.42889	98.18232
32250.00000	98.25640	-1002.38272	98.25640
32300.00000	98.30725	-1004.39388	98.30725
32350.00000	98.42404	-1006.66413	98.42404
32400.00000	98.41661	-1008.36776	98.41661
32450.00000	98.51499	-1010.51040	98.51499
32500.00000	98.58933	-1012.38532	98.58933
32550.00000	98.61810	-1013.99934	98.61810
32600.00000	98.70602	-1015.72935	98.70602
32650.00000	98.79294	-1017.63106	98.79294
32700.00000	98.84289	-1019.07419	98.84289
32750.00000	98.86507	-1021.07806	98.86507
32800.00000	98.97091	-1022.50219	98.97091
32850.00000	99.04087	-1024.13991	99.04087
32900.00000	99.13936	-1025.64285	99.13936
32950.00000	99.21310	-1027.35402	99.21310
33000.00000	99.31924	-1028.69413	99.31924
33050.00000	99.38136	-1030.40439	99.38136
33100.00000	99.48763	-1031.74201	99.48763
33150.00000	99.57765	-1032.82775	99.57765
33200.00000	99.70703	-1034.44125	99.70703
33250.00000	99.80603	-1035.74834	99.80603
33300.00000	99.91950	-1037.17256	99.91950
33350.00000	100.08549	-1038.67142	100.08549
33400.00000	100.19642	-1040.36013	100.19642
33450.00000	100.32183	-1041.50099	100.32183
33500.00000	100.44286	-1042.88155	100.44286
33550.00000	100.60452	-1044.18323	100.60452
33600.00000	100.77915	-1045.51487	100.77915
33650.00000	100.93754	-1047.16894	100.93754
33700.00000	101.08970	-1048.80580	101.08970
33750.00000	101.25124	-1050.14192	101.25124
33800.00000	101.42603	-1051.76530	101.42603
33850.00000	101.58023	-1053.18210	101.58023
33900.00000	101.75752	-1054.85218	101.75752
33950.00000	101.94191	-1056.34330	101.94191
34000.00000	102.09343	-1057.67945	102.09343
34050.00000	102.26525	-1058.99308	102.26525
34100.00000	102.45536	-1060.47133	102.45536
34150.00000	102.68534	-1061.98494	102.68534
34200.00000	102.87332	-1063.31359	102.87332
34250.00000	103.06813	-1064.90448	103.06813
34300.00000	103.27982	-1066.45537	103.27982
34350.00000	103.52215	-1068.23042	103.52215
34400.00000	103.78819	-1069.46531	103.78819
34450.00000	104.01096	-1071.16217	104.01096
34500.00000	104.25949	-1072.84809	104.25949
34550.00000	104.52159	-1074.80655	104.52159
34600.00000	104.78018	-1077.06543	104.78018
34650.00000	104.95383	-1079.03389	104.95383
34700.00000	105.09518	-1080.76484	105.09518
34750.00000	105.28281	-1082.03660	105.28281
34800.00000	105.51053	-1083.21279	105.51053
34850.00000	105.80983	-1084.49061	105.80983
34900.00000	106.14253	-1086.06862	106.14253
34950.00000	106.50071	-1087.77678	106.50071
35000.00000	106.84990	-1089.30483	106.84990
35050.00000	107.18467	-1091.32900	107.18467
35100.00000	107.56130	-1093.48836	107.56130
35150.00000	107.91628	-1095.53360	107.91628
35200.00000	108.31194	-1097.91793	108.31194
35250.00000	108.69966	-1100.38073	108.69966
35300.00000	109.03683	-1103.04698	109.03683
35350.00000	109.39236	-1105.78756	109.39236
35400.00000	109.76990	-1108.62010	109.76990
35450.00000	110.12652	-1111.59230	110.12652
35500.00000	110.50061	-1114.72719	110.50061
35550.00000	110.84265	-1117.94626	110.84265
35600.00000	111.17019	-1121.35338	111.17019
35650.00000	111.50182	-1124.70137	111.50182
35700.00000	111.80587	-1128.30010	111.80587
35750.00000	112.09787	-1132.01462	112.09787
35800.00000	112.39278	-1135.77360	112.39278
35850.00000	112.65800	-1139.67444	112.65800
35900.00000	112.91873	-1143.46599	112.91873
35950.00000	113.14664	-1147.47120	113.14664
36000.00000	113.36129	-1151.51282	113.36129
36050.00000	113.55075	-1155.68178	113.55075
36100.00000	113.71531	-1159.78898	113.71531
36150.00000	113.85419	-1163.93434	113.85419
36200.00000	113.97871	-1168.05007	113.97871
36250.00000	114.07513	-1172.25201	114.07513
36300.00000	114.15447	-1176.23904	114.15447
36350.00000	114.21608	-1180.25142	114.21608
36400.00000	114.26389	-1184.21490	114.26389
36450.00000	114.27338	-1188.16882	114.27338
36500.00000	114.28716	-1191.94842	114.28716
36550.00000	114.26493	-1195.72602	114.26493
36600.00000	114.25020	-1199.26369	114.25020
36650.00000	114.21005	-1202.76794	114.21005
36700.00000	114.16676	-1206.15991	114.16676
36750.00000	114.11679	-1209.44411	114.11679
36800.00000	114.06030	-1212.54238	114.06030
36850.00000	114.00199	-1215.59393	114.00199
36900.00000	113.93430	-1218.58311	113.93430
36950.00000	113.85557	-1221.32476	113.85557
37000.00000	113.79863	-1223.83784	113.79863
37050.00000	113.73410	-1226.32054	113.73410
37100.00000	113.67757	-1228.77184	113.67757
37150.00000	113.62943	-1231.02914	113.62943
37200.00000	113.58852	-1233.09896	113.58852
37250.00000	113.56760	-1235.04307	113.56760
37300.00000	113.55182	-1237.01406	113.55182
37350.00000	113.56459	-1238.81675	113.56459
37400.00000	113.58683	-1240.59237	113.58683
37450.00000	113.63502	-1242.17921	113.63502
37500.00000	113.69479	-1243.61333	113.69479
37550.00000	113.78674	-1245.14735	113.78674
37600.00000	113.92273	-1246.62042	113.92273
37650.00000	114.06497	-1248.02723	114.06497
37700.00000	114.24836	-1249.46716	114.24836
37750.00000	114.50287	-1250.88398	114.50287
37800.00000	114.74563	-1252.43463	114.74563
37850.00000	115.06826	-1254.00849	115.06826
37900.00000	115.40803	-1256.04172	115.40803
37950.00000	115.76310	-1258.17001	115.76310
38000.00000	116.14964	-1260.67816	116.14964
38050.00000	116.54461	-1263.56577	116.54461
38100.00000	116.93790	-1266.57438	116.93790
38150.00000	117.31451	-1270.07021	117.31451
38200.00000	117.67989	-1273.81232	117.67989
38250.00000	118.01961	-1277.67568	118.01961
38300.00000	118.34377	-1281.80464	118.34377
38350.00000	118.63590	-1286.15873	118.63590
38400.00000	118.89528	-1290.60231	118.89528
38450.00000	119.12203	-1295.19528	119.12203
38500.00000	119.31258	-1299.75493	119.31258
38550.00000	119.48024	-1304.38142	119.48024
38600.00000	119.61987	-1308.98085	119.61987
38650.00000	119.73033	-1313.63672	119.73033
38700.00000	119.82195	-1318.20397	119.82195
38750.00000	119.89404	-1322.73705	119.89404
38800.00000	119.93946	-1327.19554	119.93946
38850.00000	119.98774	-1331.67700	119.98774
38900.00000	120.00183	-1336.02909	120.00183
38950.00000	120.01493	-1340.35827	120.01493
39000.00000	120.02052	-1344.65216	120.02052
39050.00000	120.00966	-1348.92440	120.00966
39100.00000	119.98571	-1353.12405	119.98571
39150.00000	119.94753	-1357.26582	119.94753
39200.00000	119.90188	-1361.39075	119.90188
39250.00000	119.85882	-1365.38820	119.85882
39300.00000	119.80338	-1369.23281	119.80338
39350.00000	119.75755	-1373.09330	119.75755
39400.00000	119.72586	-1376.94645	119.72586
39450.00000	119.68700	-1380.79129	119.68700
39500.00000	119.65498	-1384.68089	119.65498
39550.00000	119.62378	-1388.54663	119.62378
39600.00000	119.57652	-1392.57260	119.57652
39650.00000	119.52702	-1396.60939	119.52702
39700.00000	119.45650	-1400.67410	119.45650
39750.00000	119.37877	-1404.70865	119.37877
39800.00000	119.27759	-1408.72447	119.27759
39850.00000	119.16460	-1412.68192	119.16460
39900.00000	119.03628	-1416.64427	119.03628
39950.00000	118.90698	-1420.60023	118.90698
40000.00000	118.76698	-1424.45963	118.76698
40050.00000	118.60361	-1428.29785	118.60361
40100.00000	118.43351	-1432.12416	118.43351
40150.00000	118.25184	-1435.83117	118.25184
40200.00000	118.06019	-1439.54385	118.06019
40250.00000	117.86889	-1443.19593	117.86889
40300.00000	117.64246	-1446.67752	117.64246
40350.00000	117.42404	-1449.96787	117.42404
40400.00000	117.18718	-1453.29171	117.18718
40450.00000	116.95314	-1456.47423	116.95314
40500.00000	116.71697	-1459.50495	116.71697
40550.00000	116.45928	-1462.53916	116.45928
40600.00000	116.21915	-1465.14513	116.21915
40650.00000	115.97504	-1467.88699	115.97504
40700.00000	115.72115	-1470.39638	115.72115
40750.00000	115.48571	-1472.74994	115.48571
40800.00000	115.27952	-1475.00582	115.27952
40850.00000	115.05993	-1477.16408	115.05993
40900.00000	114.88975	-1479.19026	114.88975
40950.00000	114.69948	-1481.28249	114.69948
41000.00000	114.55800	-1483.18804	114.55800
41050.00000	114.39882	-1485.09615	114.39882
41100.00000	114.29436	-1486.94127	114.29436
41150.00000	114.20918	-1488.82976	114.20918
41200.00000	114.13518	-1490.89372	114.13518
41250.00000	114.08040	-1492.82553	114.08040
41300.00000	114.03558	-1495.02191	114.03558
41350.00000	113.98988	-1497.06472	113.98988
41400.00000	113.96185	-1499.33950	113.96185
41450.00000	113.95204	-1501.67310	113.95204
41500.00000	113.92079	-1504.15974	113.92079
41550.00000	113.89335	-1506.51270	113.89335
41600.00000	113.85138	-1509.34318	113.85138
41650.00000	113.81065	-1512.07541	113.81065
41700.00000	113.77519	-1514.82538	113.77519
41750.00000	113.71150	-1517.74820	113.71150
41800.00000	113.61764	-1520.53880	113.61764
41850.00000	113.53273	-1523.46725	113.53273
41900.00000	113.44013	-1526.41650	113.44013
41950.00000	113.30849	-1529.28486	113.30849
42000.00000	113.19582	-1532.20266	113.19582
42050.00000	113.05244	-1535.10151	113.05244
42100.00000	112.89288	-1537.73084	112.89288
42150.00000	112.70753	-1540.49510	112.70753
42200.00000	112.54723	-1543.14172	112.54723
42250.00000	112.36933	-1545.68867	112.36933
42300.00000	112.18249	-1548.06225	112.18249
42350.00000	111.98252	-1550.45847	111.98252
42400.00000	111.80585	-1552.69249	111.80585
42450.00000	111.59032	-1554.93402	111.59032
42500.00000	111.39999	-1557.19903	111.39999
42550.00000	111.21858	-1558.84950	111.21858
42600.00000	110.99616	-1560.95325	110.99616
42650.00000	110.82402	-1562.70773	110.82402
42700.00000	110.63425	-1564.35596	110.63425
42750.00000	110.47369	-1566.30827	110.47369
42800.00000	110.28577	-1567.78399	110.28577
42850.00000	110.14994	-1569.49086	110.14994
42900.00000	109.99167	-1570.95461	109.99167
42950.00000	109.82900	-1572.43442	109.82900
43000.00000	109.70811	-1573.67086	109.70811
43050.00000	109.55020	-1575.14240	109.55020
43100.00000	109.47674	-1576.86999	109.47674
43150.00000	109.37152	-1577.76741	109.37152
43200.00000	109.23400	-1579.40493	109.23400
43250.00000	109.14385	-1580.31135	109.14385
43300.00000	109.03903	-1581.43445	109.03903
43350.00000	108.91303	-1582.38547	108.91303
43400.00000	108.84871	-1583.44825	108.84871
43450.00000	108.79410	-1584.49322	108.79410
43500.00000	108.66757	-1585.41894	108.66757
43550.00000	108.67009	-1586.34562	108.67009
43600.00000	108.55296	-1587.06324	108.55296
43650.00000	108.53369	-1588.13906	108.53369
43700.00000	108.54660	-1588.34102	108.54660
43750.00000	108.51779	-1589.36024	108.51779
43800.00000	108.52380	-1590.28987	108.52380
43850.00000	108.57581	-1590.67301	108.57581
43900.00000	108.66195	-1591.81307	108.66195
43950.00000	108.71885	-1592.25925	108.71885
44000.00000	108.75284	-1592.62844	108.75284
44050.00000	108.90285	-1593.70551	108.90285
44100.00000	109.04661	-1594.10138	109.04661
44150.00000	109.18834	-1594.74440	109.18834
44200.00000	109.38864	-1595.89853	109.38864
44250.00000	109.55965	-1596.65831	109.55965
44300.00000	109.80362	-1597.90713	109.80362
44350.00000	110.02920	-1599.00862	110.02920
44400.00000	110.32453	-1600.18879	110.32453
44450.00000	110.56929	-1601.52899	110.56929
44500.00000	110.83391	-1602.61165	110.83391
44550.00000	111.08011	-1604.26471	111.08011
44600.00000	111.39838	-1605.80274	111.39838
44650.00000	111.67477	-1607.85417	111.67477
44700.00000	112.00894	-1609.44777	112.00894
44750.00000	112.35458	-1611.50955	112.35458
44800.00000	112.63475	-1613.67719	112.63475
44850.00000	113.00068	-1616.21883	113.00068
44900.00000	113.26747	-1618.70100	113.26747
44950.00000	113.63353	-1621.24365	113.63353
45000.00000	113.98221	-1624.01478	113.98221
45050.00000	114.34266	-1627.28071	114.34266
45100.00000	114.65829	-1630.55348	114.65829
45150.00000	115.00327	-1633.99055	115.00327
45200.00000	115.33362	-1637.77594	115.33362
45250.00000	115.63281	-1641.67205	115.63281
45300.00000	115.96205	-1646.11636	115.96205
45350.00000	116.16996	-1649.92494	116.16996
45400.00000	116.39984	-1654.43764	116.39984
45450.00000	116.61471	-1658.77582	116.61471
45500.00000	116.75562	-1663.20563	116.75562
45550.00000	116.91609	-1667.62429	116.91609
45600.00000	117.03492	-1672.23365	117.03492
45650.00000	117.12848	-1676.84290	117.12848
45700.00000	117.17714	-1681.29245	117.17714
45750.00000	117.22502	-1685.75073	117.22502
45800.00000	117.23099	-1690.53390	117.23099
45850.00000	117.21827	-1695.06455	117.21827
45900.00000	117.17157	-1699.88063	117.17157
45950.00000	117.09236	-1704.54608	117.09236
46000.00000	117.03150	-1708.78051	117.03150
46050.00000	116.90690	-1713.19369	116.90690
46100.00000	116.77075	-1717.24256	116.77075
46150.00000	116.64303	-1721.26929	116.64303
46200.00000	116.50500	-1725.34107	116.50500
46250.00000	116.36543	-1728.94594	116.36543
46300.00000	116.22168	-1732.66215	116.22168
46350.00000	116.10686	-1736.24075	116.10686
46400.00000	115.94188	-1739.61138	115.94188
46450.00000	115.79925	-1742.91680	115.79925
46500.00000	115.62670	-1746.27364	115.62670
46550.00000	115.49175	-1749.74948	115.49175
46600.00000	115.37952	-1752.73257	115.37952
46650.00000	115.23345	-1755.77840	115.23345
46700.00000	115.10649	-1759.22669	115.10649
46750.00000	114.99282	-1762.40314	114.99282
46800.00000	114.84897	-1765.20917	114.84897
46850.00000	114.65979	-1768.61694	114.65979
46900.00000	114.54594	-1771.68029	114.54594
46950.00000	114.44230	-1774.54329	114.44230
47000.00000	114.31213	-1777.86034	114.31213
47050.00000	114.19792	-1781.02654	114.19792
47100.00000	114.07535	-1783.56002	114.07535
47150.00000	113.92964	-1786.48878	113.92964
47200.00000	113.81918	-1789.56950	113.81918
47250.00000	113.66970	-1792.30176	113.66970
47300.00000	113.62552	-1795.19673	113.62552
47350.00000	113.53101	-1798.17555	113.53101
47400.00000	113.41352	-1800.92161	113.41352
47450.00000	113.36017	-1803.56639	113.36017
47500.00000	113.29850	-1806.47133	113.29850
47550.00000	113.18884	-1809.47750	113.18884
47600.00000	113.10139	-1812.98307	113.10139
47650.00000	112.99864	-1815.75650	112.99864
47700.00000	112.97470	-1819.44532	112.97470
47750.00000	112.86189	-1822.55058	112.86189
47800.00000	112.76908	-1826.15992	112.76908
47850.00000	112.68127	-1829.29018	112.68127
47900.00000	112.56012	-1832.48415	112.56012
47950.00000	112.50238	-1836.36094	112.50238
48000.00000	112.28851	-1840.24756	112.28851
48050.00000	112.18750	-1843.36912	112.18750
48100.00000	111.96829	-1847.41776	111.96829
48150.00000	111.86477	-1850.80178	111.86477
48200.00000	111.61907	-1854.44604	111.61907
48250.00000	111.45192	-1857.93556	111.45192
48300.00000	111.25893	-1861.85181	111.25893
48350.00000	111.11556	-1864.99107	111.11556
48400.00000	110.71729	-1869.38858	110.71729
48450.00000	110.47176	-1872.80780	110.47176
48500.00000	110.13184	-1876.30288	110.13184
48550.00000	109.78662	-1879.82185	109.78662
48600.00000	109.43612	-1883.99878	109.43612
48650.00000	109.05925	-1887.04439	109.05925
48700.00000	108.59718	-1889.80438	108.59718
48750.00000	108.26081	-1893.16555	108.26081
48800.00000	107.70261	-1894.95648	107.70261
48850.00000	107.25160	-1898.71487	107.25160
48900.00000	106.91776	-1900.70571	106.91776
48950.00000	106.21662	-1902.93426	106.21662
49000.00000	105.88476	-1904.33356	105.88476
49050.00000	105.42721	-1906.92117	105.42721
49100.00000	105.01988	-1907.11848	105.01988
49150.00000	104.60742	-1909.49430	104.60742
49200.00000	103.96505	-1909.44617	103.96505
49250.00000	103.80421	-1909.88496	103.80421
49300.00000	103.38305	-1910.36286	103.38305
49350.00000	102.99468	-1910.86883	102.99468
49400.00000	102.58039	-1911.35992	102.58039
49450.00000	102.25380	-1910.84240	102.25380
49500.00000	102.10809	-1910.25099	102.10809
49550.00000	101.82902	-1910.28125	101.82902
49600.00000	101.66582	-1909.25056	101.66582
49650.00000	101.51249	-1909.74700	101.51249
49700.00000	101.35515	-1550.14627	101.35515
49750.00000	101.25561	-1549.07359	101.25561
49800.00000	101.21608	-1908.17370	101.21608
49850.00000	101.29985	-1189.96731	101.29985
49900.00000	101.31585	-1189.89531	101.31585
49950.00000	101.27789	-828.84242	101.27789
50000.00000	101.54303	-829.64654	101.54303
50050.00000	101.50822	-830.54815	101.50822
50100.00000	101.61980	-831.20977	101.61980
50150.00000	101.87849	-832.91389	101.87849
50200.00000	101.94854	-833.52466	101.94854
50250.00000	101.88831	-833.90066	101.88831
50300.00000	102.17523	-836.42369	102.17523
50350.00000	102.27607	-836.93179	102.27607
50400.00000	102.45380	-839.65191	102.45380
50450.00000	102.52433	-840.60307	102.52433
50500.00000	102.54800	-841.88521	102.54800
50550.00000	102.55263	-844.21402	102.55263
50600.00000	102.77477	-846.84714	102.77477
50650.00000	102.92441	-848.24441	102.92441
50700.00000	102.93007	-851.36453	102.93007
50750.00000	102.90675	-853.39564	102.90675
50800.00000	103.00143	-856.71116	103.00143
50850.00000	103.02344	-859.11489	103.02344
50900.00000	102.95492	-862.44739	102.95492
50950.00000	102.95738	-865.87694	102.95738
51000.00000	103.01715	-868.43517	103.01715
51050.00000	103.01069	-870.99103	103.01069
51100.00000	102.82647	-874.57630	102.82647
51150.00000	102.59895	-877.43192	102.59895
51200.00000	102.40899	-880.78174	102.40899
51250.00000	102.32745	-883.75636	102.32745
51300.00000	102.18941	-887.03053	102.18941
51350.00000	101.82108	-887.52543	101.82108
51400.00000	101.56083	-891.47049	101.56083
51450.00000	101.22477	-891.93748	101.22477
51500.00000	100.86371	-893.92109	100.86371
51550.00000	100.70413	-896.22760	100.70413
51600.00000	100.46616	-896.73000	100.46616
51650.00000	99.91280	-897.90515	99.91280
51700.00000	99.64513	-899.33725	99.64513
51750.00000	99.52044	-899.28375	99.52044
51800.00000	99.22348	-899.68036	99.22348
51850.00000	99.10890	-901.05736	99.10890
51900.00000	98.89564	-900.40698	98.89564
51950.00000	98.63679	-899.41595	98.63679
52000.00000	98.54366	-899.70374	98.54366
52050.00000	98.64872	-900.00368	98.64872
52100.00000	98.40431	-899.49411	98.40431
52150.00000	98.30564	-899.02452	98.30564
52200.00000	98.49527	-899.77987	98.49527
52250.00000	98.54351	-899.73208	98.54351
52300.00000	98.29235	-899.12460	98.29235
52350.00000	98.58752	-899.12017	98.58752
52400.00000	98.88261	-900.25070	98.88261
52450.00000	98.77968	-901.60378	98.77968
52500.00000	98.80734	-901.63891	98.80734
52550.00000	99.01525	-901.71741	99.01525
52600.00000	99.11553	-902.35414	99.11553
52650.00000	99.29339	-902.72022	99.29339
52700.00000	99.66704	-903.00548	99.66704
52750.00000	99.64526	-903.97581	99.64526
52800.00000	100.09029	-906.20435	100.09029
52850.00000	100.03572	-906.92118	100.03572
52900.00000	100.43186	-908.52025	100.43186
52950.00000	100.51864	-909.35166	100.51864
53000.00000	100.69159	-911.83685	100.69159
53050.00000	100.70690	-912.48310	100.70690
53100.00000	100.98319	-915.83081	100.98319
53150.00000	101.24740	-916.25662	101.24740
53200.00000	101.16753	-918.91667	101.16753
53250.00000	101.38469	-920.15134	101.38469
53300.00000	101.55597	-923.46442	101.55597
53350.00000	101.55114	-925.03837	101.55114
53400.00000	101.73190	-926.30100	101.73190
53450.00000	101.93504	-929.19577	101.93504
53500.00000	101.96066	-930.57461	101.96066
53550.00000	102.22283	-932.79629	102.22283
53600.00000	102.16951	-936.29318	102.16951
53650.00000	102.33631	-937.32488	102.33631
53700.00000	102.30258	-940.17596	102.30258
53750.00000	102.33999	-942.76302	102.33999
53800.00000	102.41222	-944.14867	102.41222
53850.00000	102.39686	-946.38546	102.39686
53900.00000	102.38112	-947.48230	102.38112
53950.00000	102.42624	-950.47144	102.42624
54000.00000	102.27857	-951.82434	102.27857
54050.00000	102.43885	-954.03984	102.43885
54100.00000	102.48743	-955.38220	102.48743
54150.00000	102.42090	-957.81242	102.42090
54200.00000	102.29061	-958.09172	102.29061
54250.00000	102.42324	-961.35633	102.42324
54300.00000	102.46419	-962.09605	102.46419
54350.00000	102.59213	-962.98287	102.59213
54400.00000	102.75161	-963.08277	102.75161
54450.00000	102.74905	-966.25525	102.74905
54500.00000	102.78514	-966.32884	102.78514
54550.00000	102.85084	-967.65566	102.85084
54600.00000	102.97634	-967.98911	102.97634
54650.00000	103.17908	-970.33694	103.17908
54700.00000	103.29358	-971.12846	103.29358
54750.00000	103.72345	-973.02852	103.72345
54800.00000	103.81261	-973.98214	103.81261
54850.00000	103.94873	-975.10725	103.94873
54900.00000	104.27427	-977.54157	104.27427
54950.00000	104.56924	-978.26831	104.56924
55000.00000	104.84554	-980.93179	104.84554
55050.00000	105.05879	-982.79753	105.05879
55100.00000	105.30054	-984.49941	105.30054
55150.00000	105.62811	-987.13291	105.62811
55200.00000	105.86961	-989.70801	105.86961
55250.00000	106.16833	-991.82794	106.16833
55300.00000	106.54963	-994.85772	106.54963
55350.00000	106.80077	-997.31902	106.80077
55400.00000	107.06317	-1000.52358	107.06317
55450.00000	107.31801	-1003.25676	107.31801
55500.00000	107.60658	-1006.86347	107.60658
55550.00000	107.84547	-1010.07205	107.84547
55600.00000	108.03610	-1013.49302	108.03610
55650.00000	108.27003	-1017.32295	108.27003
55700.00000	108.44311	-1020.97335	108.44311
55750.00000	108.62264	-1024.59012	108.62264
55800.00000	108.81442	-1028.45887	108.81442
55850.00000	108.98128	-1032.42680	108.98128
55900.00000	109.09388	-1035.91063	109.09388
55950.00000	109.20943	-1040.26646	109.20943
56000.00000	109.30838	-1044.11853	109.30838
56050.00000	109.40939	-1047.64055	109.40939
56100.00000	109.44036	-1051.86742	109.44036
56150.00000	109.50149	-1055.91630	109.50149
56200.00000	109.52383	-1059.75575	109.52383
56250.00000	109.55373	-1063.97429	109.55373
56300.00000	109.53922	-1067.66650	109.53922
56350.00000	109.55518	-1071.47299	109.55518
56400.00000	109.52590	-1075.03783	109.52590
56450.00000	109.47779	-1079.09774	109.47779
56500.00000	109.44362	-1082.92547	109.44362
56550.00000	109.38645	-1086.79969	109.38645
56600.00000	109.29916	-1090.41388	109.29916
56650.00000	109.28063	-1094.10043	109.28063
56700.00000	109.16126	-1097.71307	109.16126
56750.00000	109.07383	-1101.22886	109.07383
56800.00000	108.95239	-1104.74898	108.95239
56850.00000	108.87113	-1108.39589	108.87113
56900.00000	108.70666	-1111.87293	108.70666
56950.00000	108.56250	-1115.06235	108.56250
57000.00000	108.40808	-1118.47009	108.40808
57050.00000	108.22925	-1121.68159	108.22925
57100.00000	108.05957	-1124.64626	108.05957
57150.00000	107.88900	-1127.69699	107.88900
57200.00000	107.67585	-1130.54751	107.67585
57250.00000	107.54498	-1133.33386	107.54498
57300.00000	107.38593	-1136.10519	107.38593
57350.00000	107.18824	-1138.28559	107.18824
57400.00000	106.98721	-1140.84386	106.98721
57450.00000	106.81147	-1143.24545	106.81147
57500.00000	106.64078	-1145.27174	106.64078
57550.00000	106.54830	-1147.61432	106.54830
57600.00000	106.35173	-1149.25138	106.35173
57650.00000	106.24058	-1151.07326	106.24058
57700.00000	106.13802	-1152.92461	106.13802
57750.00000	106.10634	-1154.59093	106.10634
57800.00000	106.02188	-1156.20964	106.02188
57850.00000	106.02377	-1157.88997	106.02377
57900.00000	105.98101	-1159.74994	105.98101
57950.00000	106.04219	-1161.43581	106.04219
58000.00000	106.08764	-1163.19881	106.08764
58050.00000	106.12076	-1165.24241	106.12076
58100.00000	106.23316	-1167.59689	106.23316
58150.00000	106.28254	-1169.95939	106.28254
58200.00000	106.37298	-1172.73699	106.37298
58250.00000	106.40741	-1175.55353	106.40741
58300.00000	106.47535	-1178.67490	106.47535
58350.00000	106.50034	-1181.78395	106.50034
58400.00000	106.50783	-1184.79591	106.50783
58450.00000	106.46262	-1187.99238	106.46262
58500.00000	106.40011	-1191.19657	106.40011
58550.00000	106.31223	-1194.25278	106.31223
58600.00000	106.23674	-1197.07646	106.23674
58650.00000	106.13915	-1199.92082	106.13915
58700.00000	106.01530	-1202.59263	106.01530
58750.00000	105.93239	-1205.24367	105.93239
58800.00000	105.85088	-1207.83729	105.85088
58850.00000	105.79617	-1210.46930	105.79617
58900.00000	105.66372	-1213.09691	105.66372
58950.00000	105.59560	-1215.94535	105.59560
59000.00000	105.50817	-1218.47303	105.50817
59050.00000	105.40764	-1221.38786	105.40764
59100.00000	105.24750	-1224.28757	105.24750
59150.00000	105.11140	-1227.05993	105.11140
59200.00000	104.94327	-1229.64823	104.94327
59250.00000	104.73679	-1232.26771	104.73679
59300.00000	104.50512	-1234.57736	104.50512
59350.00000	104.25687	-1236.95760	104.25687
59400.00000	104.02625	-1238.61730	104.02625
59450.00000	103.79275	-1240.17543	103.79275
59500.00000	103.59798	-1241.56886	103.59798
59550.00000	103.41467	-1242.36832	103.41467
59600.00000	103.25381	-1243.48514	103.25381
59650.00000	103.17599	-1244.36479	103.17599
59700.00000	103.09665	-1244.89819	103.09665
59750.00000	103.02773	-1245.85450	103.02773
59800.00000	103.00713	-1246.55343	103.00713
59850.00000	103.03655	-1247.23684	103.03655
59900.00000	103.06598	-1248.16770	103.06598
59950.00000	103.16682	-1248.97973	103.16682
60000.00000	103.23680	-1249.99754	103.23680
60050.00000	103.37632	-1251.22289	103.37632
60100.00000	103.47633	-1252.18220	103.47633
60150.00000	103.58832	-1253.40106	103.58832
60200.00000	103.79996	-1254.91795	103.79996
60250.00000	104.01242	-1256.45004	104.01242
60300.00000	104.22389	-1258.19691	104.22389
60350.00000	104.42949	-1259.92009	104.42949
60400.00000	104.69201	-1262.17178	104.69201
60450.00000	104.95188	-1264.48247	104.95188
60500.00000	105.19207	-1267.27247	105.19207
60550.00000	105.40521	-1270.40785	105.40521
60600.00000	105.59955	-1273.45138	105.59955
60650.00000	105.73580	-1276.89026	105.73580
60700.00000	105.86219	-1280.30100	105.86219
60750.00000	105.95027	-1283.75103	105.95027
60800.00000	106.00117	-1286.93723	106.00117
60850.00000	106.04743	-1290.69292	106.04743
60900.00000	106.06893	-1293.85709	106.06893
60950.00000	106.08449	-1296.80876	106.08449
61000.00000	106.06480	-1300.00256	106.06480
61050.00000	106.06437	-1302.89563	106.06437
61100.00000	106.04638	-1305.79009	106.04638
61150.00000	106.02104	-1308.86363	106.02104
61200.00000	106.03567	-1311.57292	106.03567
61250.00000	106.01952	-1314.36661	106.01952
61300.00000	106.04233	-1317.09153	106.04233
61350.00000	106.03595	-1319.84981	106.03595
61400.00000	106.03701	-1322.80146	106.03701
61450.00000	106.06042	-1325.52680	106.06042
61500.00000	106.05759	-1328.09566	106.05759
61550.00000	106.06008	-1331.20482	106.06008
61600.00000	106.11471	-1334.02601	106.11471
61650.00000	106.12467	-1336.80348	106.12467
61700.00000	106.11060	-1340.04797	106.11060
61750.00000	106.13134	-1342.96346	106.13134
61800.00000	106.17284	-1345.81371	106.17284
61850.00000	106.15086	-1348.79405	106.15086
61900.00000	106.16268	-1351.93426	106.16268
61950.00000	106.13931	-1354.89687	106.13931
62000.00000	106.12950	-1358.36129	106.12950
62050.00000	106.10971	-1361.40433	106.10971
62100.00000	106.10682	-1364.68785	106.10682
62150.00000	106.09820	-1367.72736	106.09820
62200.00000	106.02021	-1371.01884	106.02021
62250.00000	105.94367	-1374.18739	105.94367
62300.00000	105.88451	-1377.48859	105.88451
62350.00000	105.76548	-1380.64869	105.76548
62400.00000	105.68167	-1383.88086	105.68167
62450.00000	105.54645	-1386.85036	105.54645
62500.00000	105.41764	-1390.10609	105.41764
62550.00000	105.27539	-1392.91762	105.27539
62600.00000	105.10388	-1395.73471	105.10388
62650.00000	104.99027	-1398.28767	104.99027
62700.00000	104.79481	-1400.89093	104.79481
62750.00000	104.66229	-1403.13694	104.66229
62800.00000	104.51465	-1405.25232	104.51465
62850.00000	104.41551	-1407.49746	104.41551
62900.00000	104.24669	-1409.35231	104.24669
62950.00000	104.14422	-1411.20411	104.14422
63000.00000	104.06762	-1413.02336	104.06762
63050.00000	104.03650	-1414.86971	104.03650
63100.00000	103.98242	-1416.52925	103.98242
63150.00000	103.95713	-1418.48212	103.95713
63200.00000	103.97003	-1420.10744	103.97003
63250.00000	103.99740	-1422.09212	103.99740
63300.00000	104.09926	-1423.93266	104.09926
63350.00000	104.16243	-1425.94763	104.16243
63400.00000	104.21273	-1427.92688	104.21273
63450.00000	104.30539	-1430.03945	104.30539
63500.00000	104.46658	-1432.72939	104.46658
63550.00000	104.51409	-1435.12553	104.51409
63600.00000	104.65883	-1437.74185	104.65883
63650.00000	104.81928	-1440.56183	104.81928
63700.00000	104.94064	-1443.70546	104.94064
63750.00000	105.08240	-1446.94101	105.08240
63800.00000	105.13898	-1450.20222	105.13898
63850.00000	105.22617	-1453.86346	105.22617
63900.00000	105.26728	-1457.94454	105.26728
63950.00000	105.23960	-1461.74923	105.23960
64000.00000	105.13861	-1465.14959	105.13861
64050.00000	105.06398	-1467.95191	105.06398
64100.00000	105.11345	-1470.78771	105.11345
64150.00000	105.17625	-1473.46245	105.17625
64200.00000	105.29693	-1476.17736	105.29693
64250.00000	105.51636	-1479.68863	105.51636
64300.00000	105.71145	-1483.94602	105.71145
64350.00000	105.85137	-1489.24377	105.85137
64400.00000	105.94981	-1494.67280	105.94981
64450.00000	105.90368	-1500.43310	105.90368
64500.00000	105.71666	-1506.82745	105.71666
64550.00000	105.33317	-1513.26648	105.33317
64600.00000	104.98090	-1518.70851	104.98090
64650.00000	104.36951	-1523.96195	104.36951
64700.00000	103.70010	-1528.14795	103.70010
64750.00000	103.04109	-1531.27743	103.04109
64800.00000	102.24188	-1533.61470	102.24188
64850.00000	101.69271	-1535.26061	101.69271
64900.00000	101.11891	-1535.61469	101.11891
64950.00000	100.62085	-1535.79108	100.62085
65000.00000	100.34687	-1535.86816	100.34687
65050.00000	100.09347	-1535.27635	100.09347
65100.00000	99.88705	-1535.34671	99.88705
65150.00000	99.75542	-1535.20428	99.75542
65200.00000	99.75873	-1534.76168	99.75873
65250.00000	99.82603	-1535.51125	99.82603
65300.00000	99.80945	-1536.84565	99.80945
65350.00000	99.91176	-1538.27545	99.91176
65400.00000	99.98752	-1539.34674	99.98752
65450.00000	100.12681	-1540.65998	100.12681
65500.00000	100.24991	-1542.50198	100.24991
65550.00000	100.42561	-1544.44364	100.42561
65600.00000	100.52416	-1546.80999	100.52416
65650.00000	100.71088	-1549.76110	100.71088
65700.00000	100.75033	-1553.41552	100.75033
65750.00000	100.75929	-1556.19458	100.75929
65800.00000	100.76221	-1559.17182	100.76221
65850.00000	100.75683	-1562.81493	100.75683
65900.00000	100.64508	-1565.29950	100.64508
65950.00000	100.64725	-1568.57106	100.64725
66000.00000	100.54852	-1571.54878	100.54852
66050.00000	100.44895	-1573.94574	100.44895
66100.00000	100.37931	-1576.84730	100.37931
66150.00000	100.30560	-1579.64448	100.30560
66200.00000	100.16637	-1582.61081	100.16637
66250.00000	100.12041	-1585.31673	100.12041
66300.00000	99.97475	-1588.37563	99.97475
66350.00000	99.82702	-1591.21242	99.82702
66400.00000	99.73784	-1594.25729	99.73784
66450.00000	99.61563	-1596.56056	99.61563
66500.00000	99.42843	-1599.25310	99.42843
66550.00000	99.27080	-1601.61419	99.27080
66600.00000	99.10105	-1603.84325	99.10105
66650.00000	98.89118	-1606.25505	98.89118
66700.00000	98.74195	-1608.06132	98.74195
66750.00000	98.57569	-1610.35554	98.57569
66800.00000	98.45528	-1612.57570	98.45528
66850.00000	98.35449	-1614.34400	98.35449
66900.00000	98.31729	-1616.15409	98.31729
66950.00000	98.19279	-1618.60881	98.19279
67000.00000	98.16827	-1621.20938	98.16827
67050.00000	97.98612	-1622.95001	97.98612
67100.00000	97.86737	-1625.62747	97.86737
67150.00000	97.80499	-1627.83786	97.80499
67200.00000	97.61567	-1629.46750	97.61567
67250.00000	97.38098	-1632.50776	97.38098
67300.00000	97.25825	-1633.87289	97.25825
67350.00000	97.02820	-1635.10533	97.02820
67400.00000	96.97419	-1636.45870	96.97419
67450.00000	96.73363	-1637.45078	96.73363
67500.00000	96.61541	-1638.16463	96.61541
67550.00000	96.61091	-1638.60023	96.61091
67600.00000	96.67883	-1639.27073	96.67883
67650.00000	96.70175	-1639.64954	96.70175
67700.00000	96.86488	-1640.78158	96.86488
67750.00000	97.02210	-1641.70936	97.02210
67800.00000	97.17328	-1643.01995	97.17328
67850.00000	97.46492	-1644.32279	97.46492
67900.00000	97.67135	-1646.09024	97.67135
67950.00000	97.96590	-1647.65560	97.96590
68000.00000	98.25586	-1650.25508	98.25586
68050.00000	98.52838	-1653.00832	98.52838
68100.00000	98.79140	-1655.47215	98.79140
68150.00000	99.07819	-1658.95354	99.07819
68200.00000	99.35769	-1662.32979	99.35769
68250.00000	99.57362	-1665.90654	99.57362
68300.00000	99.84842	-1669.77962	99.84842
68350.00000	99.97601	-1674.18625	99.97601
68400.00000	100.14223	-1678.47751	100.14223
68450.00000	100.23519	-1682.71836	100.23519
68500.00000	100.36177	-1687.10595	100.36177
68550.00000	100.38806	-1691.31626	100.38806
68600.00000	100.40703	-1696.03445	100.40703
68650.00000	100.41437	-1700.11506	100.41437
68700.00000	100.39049	-1704.72245	100.39049
68750.00000	100.35866	-1709.30062	100.35866
68800.00000	100.29472	-1713.74223	100.29472
68850.00000	100.21133	-1717.53300	100.21133
68900.00000	100.17505	-1722.04369	100.17505
68950.00000	100.11281	-1726.21693	100.11281
69000.00000	100.01530	-1730.56298	100.01530
69050.00000	99.94128	-1735.00427	99.94128
69100.00000	99.83612	-1739.59289	99.83612
69150.00000	99.74290	-1744.27183	99.74290
69200.00000	99.59232	-1748.76638	99.59232
69250.00000	99.44492	-1753.26217	99.44492
69300.00000	99.24176	-1758.11377	99.24176
69350.00000	99.00286	-1763.02460	99.00286
69400.00000	98.72297	-1768.01618	98.72297
69450.00000	98.41646	-1773.06067	98.41646
69500.00000	98.05738	-1777.70932	98.05738
69550.00000	97.65773	-1782.52848	97.65773
69600.00000	97.14696	-1786.98678	97.14696
69650.00000	96.71139	-1790.94449	96.71139
69700.00000	96.18242	-1794.84052	96.18242
69750.00000	95.62672	-1798.39531	95.62672
69800.00000	95.13483	-1801.40480	95.13483
69850.00000	94.52164	-1804.32220	94.52164
69900.00000	93.96523	-1806.13767	93.96523
69950.00000	93.46220	-1808.21512	93.46220
70000.00000	92.97186	-1809.84247	92.97186
70050.00000	92.61611	-1811.56793	92.61611
70100.00000	92.04843	-1813.02741	92.04843
70150.00000	91.84078	-1814.41712	91.84078
70200.00000	91.42852	-1815.75561	91.42852
70250.00000	91.09564	-1816.96647	91.09564
70300.00000	90.88133	-1819.05255	90.88133
70350.00000	90.60429	-1819.83398	90.60429
70400.00000	90.23191	-1821.35532	90.23191
70450.00000	89.89287	-1823.29221	89.89287
70500.00000	89.64022	-1824.74785	89.64022
70550.00000	89.39322	-1826.06858	89.39322
70600.00000	89.12667	-1827.17141	89.12667
70650.00000	88.80208	-1827.59548	88.80208
70700.00000	88.51874	-1829.18278	88.51874
70750.00000	88.43792	-1829.95501	88.43792
70800.00000	88.28625	-1831.35015	88.28625
70850.00000	88.03173	-1831.66809	88.03173
70900.00000	87.84060	-1833.02114	87.84060
70950.00000	87.97834	-1832.92501	87.97834
71000.00000	87.93745	-1834.35815	87.93745
71050.00000	88.02511	-1836.32696	88.02511
71100.00000	87.99254	-1838.55843	87.99254
71150.00000	87.99156	-1840.14881	87.99156
71200.00000	87.90061	-1842.12216	87.90061
71250.00000	88.12707	-1846.45795	88.12707
71300.00000	88.19631	-1848.69166	88.19631
71350.00000	87.88769	-1851.41377	87.88769
71400.00000	87.97794	-1856.29359	87.97794
71450.00000	87.60161	-1861.20597	87.60161
71500.00000	87.34833	-1863.34969	87.34833
71550.00000	87.12891	-1868.31523	87.12891
71600.00000	86.69819	-1871.83953	86.69819
71650.00000	86.01652	-1875.94143	86.01652
71700.00000	85.57849	-1879.52790	85.57849
71750.00000	85.16850	-1882.12599	85.16850
71800.00000	84.44353	-1884.22143	84.44353
71850.00000	83.92128	-1887.99215	83.92128
71900.00000	82.89436	-1888.55936	82.89436
71950.00000	82.51378	-1892.13146	82.51378
72000.00000	81.47238	-1890.00915	81.47238
72050.00000	80.37686	-1885.04722	80.37686
72100.00000	79.38710	-1882.42618	79.38710
72150.00000	79.35370	-1878.69502	79.35370
72200.00000	79.00347	-1873.84362	79.00347
72250.00000	79.48976	-1871.77314	79.48976
72300.00000	79.57163	-1865.15580	79.57163
72350.00000	79.71942	-1862.72672	79.71942
72400.00000	80.49086	-1866.42181	80.49086
72450.00000	81.02304	-1864.81887	81.02304
72500.00000	80.98633	-1866.44242	80.98633
72550.00000	82.09576	-1867.96509	82.09576
72600.00000	81.44362	-1870.04977	81.44362
72650.00000	82.20791	-1874.81852	82.20791
72700.00000	81.87286	-1875.90411	81.87286
72750.00000	81.76598	-1875.70824	81.76598
72800.00000	81.68804	-1878.29017	81.68804
72850.00000	82.17364	-1877.57065	82.17364
72900.00000	81.93748	-1878.40597	81.93748
72950.00000	82.43247	-1879.52226	82.43247
73000.00000	82.48671	-1880.57266	82.48671
73050.00000	83.08734	-1882.01096	83.08734
73100.00000	83.51419	-1884.04124	83.51419
73150.00000	84.11765	-1887.11446	84.11765
73200.00000	84.08098	-1891.65937	84.08098
73250.00000	84.98461	-1895.11447	84.98461
73300.00000	84.99693	-1898.43145	84.99693
73350.00000	85.54175	-1904.90904	85.54175
73400.00000	85.81310	-1908.00870	85.81310
73450.00000	85.61925	-1912.92081	85.61925
73500.00000	86.14255	-1921.52649	86.14255
73550.00000	86.06753	-1924.45262	86.06753
73600.00000	85.61232	-1932.62561	85.61232
73650.00000	86.11908	-1938.08868	86.11908
73700.00000	85.65905	-1942.17858	85.65905
73750.00000	85.71227	-1950.20868	85.71227
73800.00000	85.76732	-1952.71138	85.76732
73850.00000	85.20575	-1960.89232	85.20575
73900.00000	84.96642	-1971.64416	84.96642
73950.00000	85.08934	-1975.09009	85.08934
74000.00000	84.37317	-1983.04094	84.37317
74050.00000	84.39136	-1990.75448	84.39136
74100.00000	83.50397	-1993.26702	83.50397
74150.00000	83.27682	-2008.15616	83.27682
74200.00000	83.26012	-2013.50307	83.26012
74250.00000	81.76500	-2024.76927	81.76500
74300.00000	82.73948	-2045.75553	82.73948
74350.00000	81.25733	-2057.00497	81.25733
74400.00000	78.28037	-2116.26141	78.28037
74450.00000	74.78725	-2289.86780	74.78725
74500.00000	77.94790	-2352.79699	77.94790
74550.00000	77.07943	-2391.05587	77.07943
74600.00000	75.39996	-2410.25051	75.39996
74650.00000	74.94979	-2425.47011	74.94979
74700.00000	74.55229	-2437.96484	74.55229
74750.00000	73.00202	-2446.70712	73.00202
74800.00000	72.40119	-2452.56241	72.40119
74850.00000	73.67091	-2471.28456	73.67091
74900.00000	71.14931	-2485.50995	71.14931
74950.00000	73.11528	-2506.30369	73.11528
75000.00000	72.89069	-2509.01043	72.89069
75050.00000	73.52655	-2526.53806	73.52655
75100.00000	73.93520	-2531.22614	73.93520
75150.00000	74.61496	-2542.12634	74.61496
75200.00000	75.00701	-2556.99561	75.00701
75250.00000	76.23774	-2554.29797	76.23774
75300.00000	76.59024	-2567.87326	76.59024
75350.00000	77.49411	-2568.35664	77.49411
75400.00000	77.35230	-2574.38238	77.35230
75450.00000	77.56153	-2585.48202	77.56153
75500.00000	78.41156	-2590.32915	78.41156
75550.00000	78.23822	-2594.67967	78.23822
75600.00000	80.11509	-2597.80376	80.11509
75650.00000	79.45995	-2602.12194	79.45995
75700.00000	79.95226	-2611.51816	79.95226
75750.00000	80.99155	-2607.77568	80.99155
75800.00000	80.67223	-2614.13351	80.67223
75850.00000	81.56689	-2622.20143	81.56689
75900.00000	81.00440	-2621.02310	81.00440
75950.00000	81.27903	-2626.79384	81.27903
76000.00000	82.13252	-2630.79053	82.13252
76050.00000	81.72450	-2638.75939	81.72450
76100.00000	82.63084	-2639.19743	82.63084
76150.00000	82.25382	-2642.29514	82.25382
76200.00000	82.37365	-2648.16724	82.37365
76250.00000	83.25775	-2650.67371	83.25775
76300.00000	82.67831	-2650.69008	82.67831
76350.00000	83.03279	-2659.14408	83.03279
76400.00000	83.58864	-2657.31622	83.58864
76450.00000	83.11918	-2662.51700	83.11918
76500.00000	84.16447	-2668.69726	84.16447
76550.00000	83.24761	-2666.21616	83.24761
76600.00000	83.83518	-2677.25486	83.83518
76650.00000	84.36584	-2673.98142	84.36584
76700.00000	83.16918	-2680.28412	83.16918
76750.00000	84.37015	-2683.78740	84.37015
76800.00000	84.01496	-2680.87812	84.01496
76850.00000	83.34052	-2689.09379	83.34052
76900.00000	84.88743	-2690.04551	84.88743
76950.00000	84.13700	-2689.15245	84.13700
77000.00000	84.52519	-2693.95753	84.52519
77050.00000	84.97959	-2693.23661	84.97959
77100.00000	84.18022	-2700.31989	84.18022
77150.00000	85.61960	-2705.11225	85.61960
77200.00000	85.38325	-2702.03257	85.38325
77250.00000	85.18553	-2710.87973	85.18553
77300.00000	86.57813	-2707.93708	86.57813
77350.00000	85.81469	-2713.11471	85.81469
77400.00000	86.53024	-2719.77691	86.53024
77450.00000	87.03934	-2716.99272	87.03934
77500.00000	86.18109	-2724.67126	86.18109
77550.00000	87.55523	-2729.73434	87.55523
77600.00000	86.93105	-2730.29532	86.93105
77650.00000	87.26028	-2738.80772	87.26028
77700.00000	88.10714	-2738.62788	88.10714
77750.00000	86.96212	-2743.36259	86.96212
77800.00000	88.37350	-2751.66186	88.37350
77850.00000	87.80607	-2750.53686	87.80607
77900.00000	87.47070	-2760.54186	87.47070
77950.00000	88.40607	-2763.09263	88.40607
78000.00000	87.41661	-2765.59501	87.41661
78050.00000	88.01478	-2775.42014	88.01478
78100.00000	88.05003	-2772.14162	88.05003
78150.00000	87.38936	-2780.68782	87.38936
78200.00000	88.54330	-2785.59309	88.54330
78250.00000	87.40096	-2786.79915	87.40096
78300.00000	87.33680	-2796.99833	87.33680
78350.00000	87.54613	-2794.65449	87.54613
78400.00000	86.61848	-2801.19787	86.61848
78450.00000	87.61114	-2805.98564	87.61114
78500.00000	86.47085	-2804.34145	86.47085
78550.00000	86.41573	-2812.34164	86.41573
78600.00000	86.76763	-2813.98164	86.76763
78650.00000	85.68031	-2816.33702	85.68031
78700.00000	86.13115	-2823.67083	86.13115
78750.00000	85.66822	-2819.20057	85.66822
78800.00000	85.07777	-2828.43003	85.07777
78850.00000	85.89930	-2828.36436	85.89930
78900.00000	84.78687	-2829.13304	84.78687
78950.00000	85.08035	-2836.94807	85.08035
79000.00000	85.15936	-2833.08943	85.15936
79050.00000	84.26412	-2839.11032	84.26412
79100.00000	85.05613	-2841.46416	85.05613
79150.00000	84.42382	-2840.54906	84.42382
79200.00000	84.58528	-2849.65334	84.58528
79250.00000	84.72782	-2847.16127	84.72782
79300.00000	84.15062	-2852.10130	84.15062
79350.00000	84.61640	-2855.69270	84.61640
79400.00000	84.12876	-2853.02091	84.12876
79450.00000	84.03401	-2862.73058	84.03401
79500.00000	84.49346	-2861.50334	84.49346
79550.00000	83.68006	-2865.01469	83.68006
79600.00000	84.49751	-2871.12731	84.49751
79650.00000	83.85978	-2870.54455	83.85978
79700.00000	83.64380	-2879.38408	83.64380
79750.00000	84.09457	-2878.52242	84.09457
79800.00000	83.16606	-2883.83460	83.16606
79850.00000	83.34585	-2889.25583	83.34585
79900.00000	83.03813	-2886.98714	83.03813
79950.00000	82.34317	-2896.11851	82.34317
80000.00000	82.85340	-2893.68470	82.85340
80050.00000	81.77159	-2896.68304	81.77159
80100.00000	82.17375	-2904.62341	82.17375
80150.00000	81.48205	-2902.77525	81.48205
80200.00000	81.57112	-2907.32690	81.57112
80250.00000	81.77719	-2910.39784	81.77719
80300.00000	80.65308	-2914.10017	80.65308
80350.00000	80.85197	-2921.42465	80.85197
80400.00000	79.86677	-2920.55653	79.86677
80450.00000	79.08208	-2927.36480	79.08208
80500.00000	78.95939	-2925.42877	78.95939
80550.00000	77.51707	-2924.56131	77.51707
80600.00000	78.00969	-2928.92244	78.00969
80650.00000	77.34045	-2923.15406	77.34045
80700.00000	76.65649	-2928.07947	76.65649
80750.00000	77.33015	-2926.59589	77.33015
80800.00000	75.99584	-2927.45705	75.99584
80850.00000	76.59802	-2927.39728	76.59802
80900.00000	76.18616	-2921.65190	76.18616
80950.00000	76.13091	-2927.64523	76.13091
81000.00000	76.23697	-2924.85212	76.23697
81050.00000	75.86675	-2926.42683	75.86675
81100.00000	76.18056	-2925.84060	76.18056
81150.00000	76.32278	-2926.22158	76.32278
81200.00000	75.99401	-2930.23600	75.99401
81250.00000	76.47509	-2930.01614	76.47509
81300.00000	75.99272	-2931.79483	75.99272
81350.00000	76.10652	-2934.19512	76.10652
81400.00000	75.78479	-2934.23361	75.78479
81450.00000	75.66933	-2940.58972	75.66933
81500.00000	76.07584	-2939.55036	76.07584
81550.00000	75.72977	-2942.66658	75.72977
81600.00000	75.46065	-2945.34754	75.46065
81650.00000	74.81301	-2943.67565	74.81301
81700.00000	74.66966	-2947.56040	74.66966
81750.00000	74.14130	-2947.70061	74.14130
81800.00000	73.45466	-2949.27639	73.45466
81850.00000	73.52939	-2948.31672	73.52939
81900.00000	73.43554	-2945.61593	73.43554
81950.00000	73.21221	-2947.55006	73.21221
82000.00000	73.38982	-2940.33044	73.38982
82050.00000	72.51104	-2945.66256	72.51104
82100.00000	73.36751	-2943.18247	73.36751
82150.00000	73.37552	-2942.48117	73.37552
82200.00000	73.24418	-2942.94365	73.24418
82250.00000	74.05025	-2941.53870	74.05025
82300.00000	74.21058	-2943.61750	74.21058
82350.00000	74.44947	-2947.24899	74.44947
82400.00000	74.22852	-2944.00450	74.22852
82450.00000	74.64518	-2948.03653	74.64518
82500.00000	75.10117	-2949.89095	75.10117
82550.00000	74.61389	-2956.39088	74.61389
82600.00000	75.21628	-2958.24799	75.21628
82650.00000	74.46203	-2966.51408	74.46203
82700.00000	73.58623	-2972.69681	73.58623
82750.00000	72.62071	-2975.86580	72.62071
82800.00000	69.97503	-2985.24028	69.97503
82850.00000	68.05904	-2984.04406	68.05904
82900.00000	63.25239	-2939.54972	63.25239
82950.00000	67.23220	-2906.41609	67.23220
83000.00000	72.96519	-2895.17603	72.96519
83050.00000	75.85511	-2909.08368	75.85511
83100.00000	77.87992	-2918.43089	77.87992
83150.00000	79.09669	-2928.75335	79.09669
83200.00000	79.54608	-2940.52983	79.54608
83250.00000	79.23637	-2948.69088	79.23637
83300.00000	78.82056	-2955.42411	78.82056
83350.00000	78.26223	-2956.98851	78.26223
83400.00000	76.49222	-2955.58316	76.49222
83450.00000	76.84191	-2947.22147	76.84191
83500.00000	77.63056	-2931.62197	77.63056
83550.00000	79.39373	-2929.31371	79.39373
83600.00000	80.96882	-2928.71535	80.96882
83650.00000	82.49730	-2931.21396	82.49730
83700.00000	84.04008	-2936.15448	84.04008
83750.00000	85.03179	-2942.00542	85.03179
83800.00000	85.88669	-2949.95547	85.88669
83850.00000	86.61970	-2956.64207	86.61970
83900.00000	87.17512	-2962.72101	87.17512
83950.00000	87.63614	-2969.70031	87.63614
84000.00000	88.12319	-2976.60125	88.12319
84050.00000	88.31986	-2981.37877	88.31986
84100.00000	88.57187	-2987.49768	88.57187
84150.00000	88.95345	-2993.53577	88.95345
84200.00000	89.24038	-2997.90404	89.24038
84250.00000	89.39670	-3004.49215	89.39670
84300.00000	89.57321	-3009.82899	89.57321
84350.00000	89.74392	-3015.05897	89.74392
84400.00000	90.06631	-3020.14571	90.06631
84450.00000	90.07943	-3025.98937	90.07943
84500.00000	90.34463	-3031.49040	90.34463
84550.00000	90.44656	-3037.17163	90.44656
84600.00000	90.58670	-3043.01158	90.58670
84650.00000	90.87145	-3048.07277	90.87145
84700.00000	90.78954	-3054.50335	90.78954
84750.00000	90.93648	-3060.61677	90.93648
84800.00000	90.96165	-3067.03622	90.96165
84850.00000	90.93296	-3072.99521	90.93296
84900.00000	90.96481	-3079.22414	90.96481
84950.00000	90.86653	-3085.22011	90.86653
85000.00000	90.76085	-3091.71349	90.76085
85050.00000	90.56477	-3097.50997	90.56477
85100.00000	90.41036	-3103.99260	90.41036
85150.00000	90.13971	-3110.62972	90.13971
85200.00000	89.87167	-3116.31693	89.87167
85250.00000	90.03772	-3122.78874	90.03772
85300.00000	89.18659	-3127.34789	89.18659
85350.00000	88.76816	-3132.92358	88.76816
85400.00000	88.26446	-3138.25336	88.26446
85450.00000	87.93883	-3143.58086	87.93883
85500.00000	87.35993	-3148.91616	87.35993
85550.00000	86.85055	-3153.52570	86.85055
85600.00000	86.09209	-3156.60608	86.09209
85650.00000	85.75986	-3162.37769	85.75986
85700.00000	84.84927	-3166.65017	84.84927
85750.00000	84.48290	-3169.37623	84.48290
85800.00000	83.94638	-3170.42752	83.94638
85850.00000	83.13772	-3173.72044	83.13772
85900.00000	82.67841	-3178.28504	82.67841
85950.00000	81.83613	-3177.43492	81.83613
86000.00000	81.56943	-3180.06839	81.56943
86050.00000	80.85663	-3180.86747	80.85663
86100.00000	80.62434	-3180.25649	80.62434
86150.00000	80.02617	-3183.46528	80.02617
86200.00000	80.12372	-3185.04640	80.12372
86250.00000	79.58365	-3185.31889	79.58365
86300.00000	78.68712	-3183.20519	78.68712
86350.00000	78.62075	-3186.47593	78.62075
86400.00000	78.45163	-3187.36687	78.45163
86450.00000	78.24936	-3188.84683	78.24936
86500.00000	77.70444	-3183.49710	77.70444
86550.00000	78.00489	-3189.64675	78.00489
86600.00000	77.59236	-3189.67151	77.59236
86650.00000	77.61264	-3188.76635	77.61264
86700.00000	77.80601	-3190.21475	77.80601
86750.00000	77.79238	-3189.35387	77.79238
86800.00000	77.48842	-3192.55528	77.48842
86850.00000	77.62981	-3191.06041	77.62981
86900.00000	77.30879	-3193.53023	77.30879
86950.00000	77.41595	-3195.88610	77.41595
87000.00000	77.22769	-3195.36687	77.22769
87050.00000	77.38875	-3198.77662	77.38875
87100.00000	77.46320	-3201.13191	77.46320
87150.00000	77.40142	-3203.68687	77.40142
87200.00000	77.40438	-3203.59160	77.40438
87250.00000	77.38575	-3206.23111	77.38575
87300.00000	77.33324	-3208.70777	77.33324
87350.00000	77.60741	-3211.92012	77.60741
87400.00000	76.92762	-3213.19969	76.92762
87450.00000	76.94309	-3215.43240	76.94309
87500.00000	77.03606	-3215.63161	77.03606
87550.00000	77.02265	-3218.29044	77.02265
87600.00000	77.25571	-3220.85376	77.25571
87650.00000	76.97969	-3225.33849	76.97969
87700.00000	76.59940	-3226.50174	76.59940
87750.00000	76.79494	-3229.14415	76.79494
87800.00000	76.31565	-3230.21300	76.31565
87850.00000	76.16773	-3233.77346	76.16773
87900.00000	76.18211	-3234.14636	76.18211
87950.00000	76.10755	-3238.31458	76.10755
88000.00000	76.02925	-3241.15985	76.02925
88050.00000	75.72845	-3241.63090	75.72845
88100.00000	75.71429	-3247.32117	75.71429
88150.00000	75.16668	-3247.68994	75.16668
88200.00000	75.34484	-3250.00329	75.34484
88250.00000	74.55771	-3251.46278	74.55771
88300.00000	74.31703	-3256.40903	74.31703
88350.00000	74.56441	-3257.28785	74.56441
88400.00000	73.60771	-3260.63430	73.60771
88450.00000	73.29702	-3260.84227	73.29702
88500.00000	72.96267	-3261.47770	72.96267
88550.00000	73.37785	-3263.69675	73.37785
88600.00000	72.09069	-3264.49040	72.09069
88650.00000	72.43521	-3263.98342	72.43521
88700.00000	71.87724	-3263.02535	71.87724
88750.00000	71.43195	-3264.34029	71.43195
88800.00000	71.74763	-3262.78041	71.74763
88850.00000	71.54357	-3267.65853	71.54357
88900.00000	71.72928	-3264.12428	71.72928
88950.00000	70.99278	-3262.26425	70.99278
89000.00000	70.98270	-3262.57668	70.98270
89050.00000	70.20886	-3264.95430	70.20886
89100.00000	70.90829	-3265.45629	70.90829
89150.00000	70.83735	-3260.23175	70.83735
89200.00000	70.45910	-3260.73366	70.45910
89250.00000	70.54137	-3261.57694	70.54137
89300.00000	70.60532	-3264.62067	70.60532
89350.00000	70.83571	-3262.58190	70.83571
89400.00000	70.51549	-3261.12852	70.51549
89450.00000	70.58167	-3258.15937	70.58167
89500.00000	70.18352	-3261.92695	70.18352
89550.00000	70.28146	-3260.05721	70.28146
89600.00000	70.36787	-3263.92286	70.36787
89650.00000	70.00214	-3256.17028	70.00214
89700.00000	70.86805	-3254.33617	70.86805
89750.00000	70.59911	-3254.94788	70.59911
89800.00000	70.09173	-3251.22242	70.09173
89850.00000	70.19778	-3252.24615	70.19778
89900.00000	71.01605	-3250.16127	71.01605
89950.00000	71.05661	-3244.16669	71.05661
90000.00000	72.04169	-3235.32505	72.04169
90050.00000	72.64049	-3227.62971	72.64049
90100.00000	75.67654	-3227.78320	75.67654
90150.00000	76.90997	-3226.09042	76.90997
90200.00000	80.20208	-3229.64748	80.20208
90250.00000	81.56570	-3253.28804	81.56570
90300.00000	82.15899	-3273.41843	82.15899
90350.00000	80.93553	-3284.47076	80.93553
90400.00000	80.58096	-3285.03236	80.58096
90450.00000	79.95382	-3289.80324	79.95382
90500.00000	79.36240	-3294.83887	79.36240
90550.00000	79.42520	-3294.78114	79.42520
90600.00000	79.21894	-3297.52675	79.21894
90650.00000	79.93666	-3299.22307	79.93666
90700.00000	79.52869	-3303.29603	79.52869
90750.00000	79.68640	-3303.31836	79.68640
90800.00000	79.94034	-3306.24285	79.94034
90850.00000	80.43503	-3307.58364	80.43503
90900.00000	80.52797	-3313.58033	80.52797
90950.00000	80.34929	-3314.89844	80.34929
91000.00000	80.77119	-3315.82991	80.77119
91050.00000	80.72886	-3321.22696	80.72886
91100.00000	81.38787	-3323.87705	81.38787
91150.00000	81.27112	-3326.80537	81.27112
91200.00000	81.59330	-3330.21977	81.59330
91250.00000	81.99996	-3333.94658	81.99996
91300.00000	82.01039	-3336.39543	82.01039
91350.00000	82.15758	-3340.15583	82.15758
91400.00000	82.29758	-3345.34298	82.29758
91450.00000	82.53701	-3346.21227	82.53701
91500.00000	82.82500	-3352.24299	82.82500
91550.00000	82.73543	-3353.58901	82.73543
91600.00000	83.04079	-3358.15889	83.04079
91650.00000	83.21104	-3361.57033	83.21104
91700.00000	83.23689	-3365.71546	83.23689
91750.00000	83.43302	-3368.82868	83.43302
91800.00000	83.47445	-3374.10455	83.47445
91850.00000	83.62775	-3378.22099	83.62775
91900.00000	83.94119	-3381.15545	83.94119
91950.00000	83.67682	-3383.80453	83.67682
92000.00000	83.97250	-3388.37112	83.97250
92050.00000	84.06621	-3394.14500	84.06621
92100.00000	84.30146	-3396.32406	84.30146
92150.00000	84.28377	-3401.31884	84.28377
92200.00000	84.17744	-3405.63858	84.17744
92250.00000	84.25459	-3409.34868	84.25459
92300.00000	84.55730	-3412.01036	84.55730
92350.00000	84.71102	-3416.77473	84.71102
92400.00000	84.47287	-3420.99792	84.47287
92450.00000	84.35591	-3424.91237	84.35591
92500.00000	84.72399	-3430.15228	84.72399
92550.00000	84.47135	-3433.75068	84.47135
92600.00000	84.64653	-3437.19652	84.64653
92650.00000	84.32489	-3441.46416	84.32489
92700.00000	84.53062	-3444.93135	84.53062
92750.00000	84.15461	-3449.28008	84.15461
92800.00000	84.30095	-3453.13629	84.30095
92850.00000	84.29107	-3456.61207	84.29107
92900.00000	84.36861	-3461.32222	84.36861
92950.00000	84.14112	-3463.25800	84.14112
93000.00000	84.43672	-3467.99218	84.43672
93050.00000	84.20222	-3471.51595	84.20222
93100.00000	84.13194	-3475.44951	84.13194
93150.00000	84.14432	-3478.17224	84.14432
93200.00000	84.09539	-3481.34345	84.09539
93250.00000	84.27831	-3484.76313	84.27831
93300.00000	84.40147	-3490.41113	84.40147
93350.00000	84.02577	-3495.25324	84.02577
93400.00000	84.15326	-3497.99973	84.15326
93450.00000	84.20836	-3503.36769	84.20836
93500.00000	84.16814	-3507.07258	84.16814
93550.00000	83.94458	-3512.50726	83.94458
93600.00000	84.13720	-3517.66841	84.13720
93650.00000	84.00092	-3521.44960	84.00092
93700.00000	83.91036	-3524.78909	83.91036
93750.00000	83.54044	-3530.28795	83.54044
93800.00000	83.75305	-3535.90214	83.75305
93850.00000	83.63607	-3541.15950	83.63607
93900.00000	83.27778	-3546.44120	83.27778
93950.00000	83.22030	-3548.42195	83.22030
94000.00000	82.74354	-3555.25715	82.74354
94050.00000	82.45149	-3560.59629	82.45149
94100.00000	82.65609	-3564.01218	82.65609
94150.00000	82.23499	-3570.53862	82.23499
94200.00000	82.11844	-3572.89622	82.11844
94250.00000	81.52810	-3579.69681	81.52810
94300.00000	81.35356	-3585.36129	81.35356
94350.00000	80.98454	-3588.65325	80.98454
94400.00000	80.77691	-3592.28548	80.77691
94450.00000	80.46305	-3595.93319	80.46305
94500.00000	79.94279	-3601.38726	79.94279
94550.00000	79.77712	-3603.58461	79.77712
94600.00000	79.46331	-3611.09467	79.46331
94650.00000	79.26908	-3613.16233	79.26908
94700.00000	78.76188	-3620.51713	78.76188
94750.00000	78.70100	-3622.32888	78.70100
94800.00000	78.16119	-3626.92015	78.16119
94850.00000	77.72592	-3630.58212	77.72592
94900.00000	77.08252	-3634.24421	77.08252
94950.00000	77.04762	-3638.83439	77.04762
95000.00000	76.09315	-3645.38643	76.09315
95050.00000	75.26928	-3647.37252	75.26928
95100.00000	75.60623	-3651.96540	75.60623
95150.00000	74.59350	-3653.93571	74.59350
95200.00000	73.65421	-3655.62891	73.65421
95250.00000	73.28803	-3664.39275	73.28803
95300.00000	72.84215	-3666.40814	72.84215
95350.00000	72.61310	-3668.45775	72.61310
95400.00000	71.54007	-3665.99975	71.54007
95450.00000	71.43462	-3668.97058	71.43462
95500.00000	71.18216	-3671.57537	71.18216
95550.00000	70.71488	-3680.22077	70.71488
95600.00000	69.36142	-3678.00465	69.36142
95650.00000	69.02608	-3678.81280	69.02608
95700.00000	69.25014	-3677.70747	69.25014
95750.00000	67.63391	-3665.20242	67.63391
95800.00000	68.30453	-3676.01027	68.30453
95850.00000	67.82946	-3672.05110	67.82946
95900.00000	68.65754	-3667.72647	68.65754
95950.00000	67.98706	-3674.30777	67.98706
96000.00000	66.97026	-3673.08026	66.97026
96050.00000	67.39989	-3685.92280	67.39989
96100.00000	69.01491	-3667.99888	69.01491
96150.00000	66.35501	-3682.79448	66.35501
96200.00000	70.29921	-3678.29041	70.29921
96250.00000	66.39348	-3690.08463	66.39348
96300.00000	66.81013	-3686.07661	66.81013
96350.00000	66.25471	-3677.72458	66.25471
96400.00000	67.68371	-3699.76918	67.68371
96450.00000	68.66634	-3696.82145	68.66634
96500.00000	67.11466	-3713.56704	67.11466
96550.00000	68.72589	-3708.61329	68.72589
96600.00000	67.11845	-3697.42613	67.11845
96650.00000	67.53334	-3718.78679	67.53334
96700.00000	64.82445	-3724.29802	64.82445
96750.00000	63.01586	-3725.20050	63.01586
96800.00000	67.94993	-3707.22200	67.94993
96850.00000	62.31039	-3729.74655	62.31039
96900.00000	68.43488	-3733.09508	68.43488
96950.00000	68.95858	-3745.07531	68.95858
97000.00000	56.70700	-3696.37006	56.70700
97050.00000	62.30311	-3700.26805	62.30311
97100.00000	60.95768	-3720.44601	60.95768
97150.00000	66.60344	-3720.46564	66.60344
97200.00000	66.65432	-3771.74805	66.65432
97250.00000	64.84372	-3741.39515	64.84372
97300.00000	62.24275	-3931.69648	62.24275
97350.00000	67.54702	-3795.93604	67.54702
97400.00000	58.58265	-3968.89395	58.58265
97450.00000	49.96403	-3845.44998	49.96403
97500.00000	56.64851	-3908.96228	56.64851
97550.00000	56.54368	-4033.85159	56.54368
97600.00000	51.85612	-4082.24891	51.85612
97650.00000	58.67178	-4045.07534	58.67178
97700.00000	49.85906	-3990.26837	49.85906
97750.00000	59.16835	-4000.95132	59.16835
97800.00000	58.50915	-4037.19868	58.50915
97850.00000	59.41379	-4036.81687	59.41379
97900.00000	59.42182	-4014.47744	59.42182
97950.00000	61.07714	-4054.78253	61.07714
98000.00000	59.35377	-4073.33581	59.35377
98050.00000	60.55259	-4033.72038	60.55259
98100.00000	59.99635	-4041.34582	59.99635
98150.00000	59.57160	-4039.31080	59.57160
98200.00000	62.21435	-4076.65521	62.21435
98250.00000	56.38324	-4073.51638	56.38324
98300.00000	61.64084	-4055.15806	61.64084
98350.00000	62.36200	-4076.38604	62.36200
98400.00000	63.36253	-4075.71121	63.36253
98450.00000	63.75690	-4106.63549	63.75690
98500.00000	63.75855	-4088.57879	63.75855
98550.00000	64.18544	-4095.15631	64.18544
98600.00000	58.60098	-4094.30066	58.60098
98650.00000	58.34192	-4107.80554	58.34192
98700.00000	58.93458	-4098.73704	58.93458
98750.00000	62.99568	-4124.12530	62.99568
98800.00000	63.48319	-4129.77730	63.48319
98850.00000	61.40906	-4137.73528	61.40906
98900.00000	58.30141	-4139.47170	58.30141
98950.00000	60.72875	-4148.32217	60.72875
99000.00000	59.67431	-4131.60925	59.67431
99050.00000	58.88620	-4159.72427	58.88620
99100.00000	59.57504	-4158.00414	59.57504
99150.00000	57.57922	-4179.85799	57.57922
99200.00000	54.27301	-4155.50117	54.27301
99250.00000	60.49165	-4191.72605	60.49165
99300.00000	59.70746	-4192.62687	59.70746
99350.00000	60.83240	-4194.86325	60.83240
99400.00000	56.85799	-4203.65430	56.85799
99450.00000	55.72631	-4239.70741	55.72631
99500.00000	58.70491	-4247.06804	58.70491
99550.00000	60.14172	-4237.02088	60.14172
99600.00000	60.42125	-4247.42669	60.42125
99650.00000	59.03404	-4274.60289	59.03404
99700.00000	55.83127	-4259.29858	55.83127
99750.00000	59.82017	-4286.21629	59.82017
99800.00000	59.22084	-4287.40561	59.22084
99850.00000	57.86508	-4287.34987	57.86508
99900.00000	58.50853	-4324.12205	58.50853
99950.00000	59.37119	-4345.23968	59.37119
