---ACOUSTIC CALIBRATION---
Filename: C:\Data\CL0809 DATA\CL0809100\RightSecondary.calib
Date: 8/9/2019 9:02:05 AM
Format: 4
Probe Tube Correction File: C:\Data\Probe Tube Calibrations\74_ProbeTube.calib
Experiment VIs: 2128
EPL_CFTS.exe V15.0.1f5 (2015)
DAQmx V15.1

Attenuation (dB): 40.000000
Min Freq (Hz): 50.000000
Max Freq (Hz): 99950.000000
Freq Step (Hz): 50.000000
Sample Rate (Hz): 200000.000000
[Smoothing]
Method=None
MA.Iterations=0
MA.Length=0
Loess.Length=0
Loess.Type=Linear
Loess.Robust=FALSE


Freq(Hz)	Mag(dB)	Phase(deg)	Unsmoothed(dB)

50.00000	86.18828	311.14461	86.18828
100.00000	66.86691	349.67315	66.86691
150.00000	69.84034	431.46206	69.84034
200.00000	61.14016	525.90794	61.14016
250.00000	48.86906	737.48348	48.86906
300.00000	67.46592	879.81344	67.46592
350.00000	65.60387	1008.84356	65.60387
400.00000	63.62245	1092.17799	63.62245
450.00000	71.87645	1117.51661	71.87645
500.00000	74.57859	1215.94242	74.57859
550.00000	80.44676	1156.05583	80.44676
600.00000	79.72337	1106.96410	79.72337
650.00000	86.23225	1096.03391	86.23225
700.00000	85.90906	1102.52105	85.90906
750.00000	90.06828	1065.09120	90.06828
800.00000	91.13091	1047.92707	91.13091
850.00000	90.52375	1038.07157	90.52375
900.00000	90.78946	1030.78992	90.78946
950.00000	92.27979	1017.63521	92.27979
1000.00000	92.65561	1011.03480	92.65561
1050.00000	92.93494	995.70301	92.93494
1100.00000	92.56446	985.67408	92.56446
1150.00000	91.83760	979.64227	91.83760
1200.00000	90.69059	979.98315	90.69059
1250.00000	90.85347	985.14410	90.85347
1300.00000	91.70378	987.52175	91.70378
1350.00000	92.65456	986.54881	92.65456
1400.00000	93.43151	985.42755	93.43151
1450.00000	94.06481	984.78545	94.06481
1500.00000	95.33079	985.11170	95.33079
1550.00000	96.59368	980.64121	96.59368
1600.00000	98.02122	978.32092	98.02122
1650.00000	99.32821	974.84066	99.32821
1700.00000	103.69793	958.87538	103.69793
1750.00000	101.03218	938.04545	101.03218
1800.00000	100.98213	932.11103	100.98213
1850.00000	100.79657	924.13663	100.79657
1900.00000	100.84149	917.22702	100.84149
1950.00000	100.41134	910.72403	100.41134
2000.00000	99.79653	904.41284	99.79653
2050.00000	98.92967	901.51475	98.92967
2100.00000	98.39716	904.92913	98.39716
2150.00000	99.41505	907.03390	99.41505
2200.00000	100.09445	898.43997	100.09445
2250.00000	99.69668	892.30287	99.69668
2300.00000	99.42172	890.23877	99.42172
2350.00000	99.39870	886.45228	99.39870
2400.00000	99.39419	884.51364	99.39419
2450.00000	99.19629	880.32406	99.19629
2500.00000	98.69101	880.67291	98.69101
2550.00000	98.90414	880.56981	98.90414
2600.00000	99.06740	879.28021	99.06740
2650.00000	99.21878	878.82909	99.21878
2700.00000	99.47069	876.96387	99.47069
2750.00000	99.69958	875.72839	99.69958
2800.00000	99.97049	873.41234	99.97049
2850.00000	100.28360	871.26637	100.28360
2900.00000	100.59973	868.79447	100.59973
2950.00000	100.87920	866.41675	100.87920
3000.00000	101.10940	863.83625	101.10940
3050.00000	101.35407	860.99134	101.35407
3100.00000	101.55108	857.93122	101.55108
3150.00000	101.55483	855.40493	101.55483
3200.00000	101.72661	852.57841	101.72661
3250.00000	101.95993	850.38364	101.95993
3300.00000	102.01346	847.98720	102.01346
3350.00000	102.24538	846.27006	102.24538
3400.00000	102.33971	844.23056	102.33971
3450.00000	102.45587	843.15796	102.45587
3500.00000	102.60800	842.49551	102.60800
3550.00000	103.25692	840.73728	103.25692
3600.00000	103.32172	837.63100	103.32172
3650.00000	103.65170	837.81907	103.65170
3700.00000	103.97606	836.96582	103.97606
3750.00000	104.62985	834.63596	104.62985
3800.00000	105.60685	832.98439	105.60685
3850.00000	106.32818	823.52116	106.32818
3900.00000	106.82489	815.25019	106.82489
3950.00000	106.09226	811.09426	106.09226
4000.00000	105.72211	811.86118	105.72211
4050.00000	106.07298	812.28547	106.07298
4100.00000	106.66340	811.99232	106.66340
4150.00000	108.17754	809.00290	108.17754
4200.00000	109.08104	804.53808	109.08104
4250.00000	109.16657	792.04052	109.16657
4300.00000	109.27261	788.99771	109.27261
4350.00000	109.68219	784.10993	109.68219
4400.00000	110.01254	777.82440	110.01254
4450.00000	110.08596	770.61182	110.08596
4500.00000	110.17644	764.37768	110.17644
4550.00000	110.06347	758.93271	110.06347
4600.00000	110.07242	753.37442	110.07242
4650.00000	110.05552	748.44880	110.05552
4700.00000	109.99205	743.51911	109.99205
4750.00000	109.93217	738.88658	109.93217
4800.00000	109.92376	734.56945	109.92376
4850.00000	109.92164	729.85515	109.92164
4900.00000	109.91577	724.52681	109.91577
4950.00000	109.87819	719.51524	109.87819
5000.00000	109.78734	714.06163	109.78734
5050.00000	109.65316	708.68416	109.65316
5100.00000	109.46616	703.33462	109.46616
5150.00000	109.22220	698.14033	109.22220
5200.00000	108.90281	692.83236	108.90281
5250.00000	108.37652	687.72141	108.37652
5300.00000	107.57584	686.05037	107.57584
5350.00000	107.90841	686.35079	107.90841
5400.00000	108.00944	680.44699	108.00944
5450.00000	107.72401	675.36149	107.72401
5500.00000	107.40044	670.86802	107.40044
5550.00000	107.07197	667.32337	107.07197
5600.00000	106.76504	663.47157	106.76504
5650.00000	106.38442	660.18905	106.38442
5700.00000	106.03272	656.89672	106.03272
5750.00000	105.72918	653.83115	105.72918
5800.00000	105.38186	651.13248	105.38186
5850.00000	105.02079	648.37377	105.02079
5900.00000	104.67380	645.77990	104.67380
5950.00000	104.36239	643.52144	104.36239
6000.00000	104.06487	641.35422	104.06487
6050.00000	103.78226	639.06944	103.78226
6100.00000	103.49017	636.78351	103.49017
6150.00000	103.17179	634.66000	103.17179
6200.00000	102.86675	632.78332	102.86675
6250.00000	102.57280	630.95120	102.57280
6300.00000	102.27354	629.20454	102.27354
6350.00000	101.98179	627.66465	101.98179
6400.00000	101.69184	626.19745	101.69184
6450.00000	101.43104	624.92763	101.43104
6500.00000	101.17922	623.89971	101.17922
6550.00000	100.97731	622.96472	100.97731
6600.00000	100.76955	621.89947	100.76955
6650.00000	100.57259	620.95275	100.57259
6700.00000	100.37043	620.25309	100.37043
6750.00000	100.18983	620.10321	100.18983
6800.00000	100.12725	619.83526	100.12725
6850.00000	100.13932	619.51953	100.13932
6900.00000	100.23189	618.84334	100.23189
6950.00000	100.33980	617.52657	100.33980
7000.00000	100.41527	615.47401	100.41527
7050.00000	100.41772	613.00722	100.41772
7100.00000	100.36306	610.50544	100.36306
7150.00000	100.18365	608.26945	100.18365
7200.00000	99.98872	606.36775	99.98872
7250.00000	99.77080	604.94822	99.77080
7300.00000	99.54418	604.03559	99.54418
7350.00000	99.34988	603.54311	99.34988
7400.00000	99.19041	603.48978	99.19041
7450.00000	99.11581	603.66713	99.11581
7500.00000	99.12014	603.96769	99.12014
7550.00000	99.18762	603.99424	99.18762
7600.00000	99.33474	604.05449	99.33474
7650.00000	99.53987	603.71209	99.53987
7700.00000	99.74043	603.06846	99.74043
7750.00000	99.97807	602.12512	99.97807
7800.00000	100.23730	600.71538	100.23730
7850.00000	100.48541	599.04767	100.48541
7900.00000	100.71698	597.04114	100.71698
7950.00000	100.90662	595.05492	100.90662
8000.00000	101.12345	592.96305	101.12345
8050.00000	101.28858	590.73235	101.28858
8100.00000	101.47876	588.50478	101.47876
8150.00000	101.66425	586.09786	101.66425
8200.00000	101.83590	583.63465	101.83590
8250.00000	101.99324	581.08957	101.99324
8300.00000	102.17865	578.32390	102.17865
8350.00000	102.32002	575.61223	102.32002
8400.00000	102.48588	572.95504	102.48588
8450.00000	102.62723	569.99913	102.62723
8500.00000	102.74579	567.01264	102.74579
8550.00000	102.90894	563.97345	102.90894
8600.00000	103.02201	561.07444	103.02201
8650.00000	103.15519	557.89213	103.15519
8700.00000	103.26024	554.38400	103.26024
8750.00000	103.31044	550.99759	103.31044
8800.00000	103.36612	547.53277	103.36612
8850.00000	103.45317	544.09689	103.45317
8900.00000	103.44988	540.49301	103.44988
8950.00000	103.46660	536.80508	103.46660
9000.00000	103.39411	533.03464	103.39411
9050.00000	103.33945	529.56919	103.33945
9100.00000	103.27896	526.12654	103.27896
9150.00000	103.22822	522.26155	103.22822
9200.00000	103.05200	518.60633	103.05200
9250.00000	102.88182	515.28618	102.88182
9300.00000	102.74473	511.60847	102.74473
9350.00000	102.53593	508.18585	102.53593
9400.00000	102.32727	504.78099	102.32727
9450.00000	102.12407	501.56268	102.12407
9500.00000	101.87798	498.40065	101.87798
9550.00000	101.64599	495.86048	101.64599
9600.00000	101.43479	493.09634	101.43479
9650.00000	101.27565	490.66181	101.27565
9700.00000	101.01683	487.99243	101.01683
9750.00000	100.81110	485.79457	100.81110
9800.00000	100.55253	483.70469	100.55253
9850.00000	100.33210	482.07143	100.33210
9900.00000	100.16319	480.80719	100.16319
9950.00000	100.01653	479.27883	100.01653
10000.00000	99.88936	478.03823	99.88936
10050.00000	99.74577	476.67904	99.74577
10100.00000	99.72728	475.31985	99.72728
10150.00000	99.62513	473.35340	99.62513
10200.00000	99.47996	471.77509	99.47996
10250.00000	99.31899	470.56274	99.31899
10300.00000	99.24299	469.26005	99.24299
10350.00000	99.19777	467.88656	99.19777
10400.00000	99.08453	466.19184	99.08453
10450.00000	99.06771	464.58889	99.06771
10500.00000	99.05921	462.72561	99.05921
10550.00000	99.04229	461.21617	99.04229
10600.00000	99.13201	458.84755	99.13201
10650.00000	99.13423	456.82546	99.13423
10700.00000	99.16676	454.32846	99.16676
10750.00000	99.20401	452.14171	99.20401
10800.00000	99.30867	449.42251	99.30867
10850.00000	99.37696	446.71550	99.37696
10900.00000	99.44581	443.87781	99.44581
10950.00000	99.49070	441.08324	99.49070
11000.00000	99.59245	437.99884	99.59245
11050.00000	99.57088	434.77775	99.57088
11100.00000	99.60406	431.69814	99.60406
11150.00000	99.56293	428.22746	99.56293
11200.00000	99.52477	424.82512	99.52477
11250.00000	99.39507	420.86348	99.39507
11300.00000	99.24921	417.39125	99.24921
11350.00000	99.05866	413.42068	99.05866
11400.00000	98.82244	409.46996	98.82244
11450.00000	98.58043	405.48985	98.58043
11500.00000	98.28814	401.55168	98.28814
11550.00000	97.94709	397.67773	97.94709
11600.00000	97.60193	394.09931	97.60193
11650.00000	97.22046	390.40642	97.22046
11700.00000	96.86374	387.11499	96.86374
11750.00000	96.48885	384.11085	96.48885
11800.00000	96.10552	381.40956	96.10552
11850.00000	95.75841	379.02586	95.75841
11900.00000	95.33209	376.92698	95.33209
11950.00000	94.95981	375.18967	94.95981
12000.00000	94.61998	373.75010	94.61998
12050.00000	94.18217	372.33011	94.18217
12100.00000	93.70106	371.15722	93.70106
12150.00000	93.17392	369.86358	93.17392
12200.00000	92.72145	368.77233	92.72145
12250.00000	92.23166	368.16692	92.23166
12300.00000	91.64542	367.40686	91.64542
12350.00000	91.19189	366.96137	91.19189
12400.00000	90.68586	365.83935	90.68586
12450.00000	90.28110	364.91575	90.28110
12500.00000	89.93750	364.98124	89.93750
12550.00000	89.54644	364.66061	89.54644
12600.00000	89.22974	363.33941	89.22974
12650.00000	88.98160	363.84556	88.98160
12700.00000	88.56011	363.59723	88.56011
12750.00000	88.29235	364.81652	88.29235
12800.00000	88.12054	364.42577	88.12054
12850.00000	87.72399	365.68515	87.72399
12900.00000	87.47266	365.46057	87.47266
12950.00000	87.20232	364.10504	87.20232
13000.00000	86.91945	363.93372	86.91945
13050.00000	86.71949	363.87198	86.71949
13100.00000	86.60116	362.21699	86.60116
13150.00000	86.60797	360.98802	86.60797
13200.00000	86.76816	359.45850	86.76816
13250.00000	87.19500	356.16334	87.19500
13300.00000	87.80023	358.07903	87.80023
13350.00000	88.80190	357.45627	88.80190
13400.00000	89.76584	362.38118	89.76584
13450.00000	90.35587	373.19588	90.35587
13500.00000	89.88144	388.64731	89.88144
13550.00000	88.49581	396.78468	88.49581
13600.00000	86.88519	401.28575	86.88519
13650.00000	85.25465	401.29623	85.25465
13700.00000	84.01138	397.67104	84.01138
13750.00000	82.99552	391.31427	82.99552
13800.00000	82.67505	383.43803	82.67505
13850.00000	82.90295	377.18219	82.90295
13900.00000	83.25000	369.00614	83.25000
13950.00000	84.19128	364.20918	84.19128
14000.00000	85.64535	362.75229	85.64535
14050.00000	87.42752	364.10140	87.42752
14100.00000	89.51148	368.13588	89.51148
14150.00000	91.14175	381.34128	91.14175
14200.00000	91.14686	397.88946	91.14686
14250.00000	89.86183	410.53570	89.86183
14300.00000	88.35329	416.86055	88.35329
14350.00000	87.18077	415.36309	87.18077
14400.00000	86.56124	414.48530	86.56124
14450.00000	85.91034	411.70011	85.91034
14500.00000	85.76788	407.06706	85.76788
14550.00000	86.05543	401.20047	86.05543
14600.00000	86.22040	398.05507	86.22040
14650.00000	86.92743	394.62744	86.92743
14700.00000	87.83923	388.54262	87.83923
14750.00000	88.78444	385.14265	88.78444
14800.00000	89.79212	385.17337	89.79212
14850.00000	91.13550	385.95327	91.13550
14900.00000	92.25598	388.63872	92.25598
14950.00000	93.01287	393.35205	93.01287
15000.00000	93.34422	396.83448	93.34422
15050.00000	93.24266	402.00793	93.24266
15100.00000	93.25261	403.02308	93.25261
15150.00000	92.87584	402.83952	92.87584
15200.00000	92.95410	400.35066	92.95410
15250.00000	92.81747	397.11181	92.81747
15300.00000	92.91014	393.77755	92.91014
15350.00000	93.29145	390.31187	93.29145
15400.00000	93.74624	386.76274	93.74624
15450.00000	94.28053	382.32839	94.28053
15500.00000	95.04498	379.30680	95.04498
15550.00000	95.72917	377.10899	95.72917
15600.00000	96.62740	375.65622	96.62740
15650.00000	97.38408	374.85640	97.38408
15700.00000	97.87172	373.99631	97.87172
15750.00000	98.45897	374.25451	98.45897
15800.00000	98.67544	373.48091	98.67544
15850.00000	98.98736	372.50765	98.98736
15900.00000	99.06120	369.40040	99.06120
15950.00000	99.20204	366.22928	99.20204
16000.00000	99.28142	362.16779	99.28142
16050.00000	99.62802	358.00621	99.62802
16100.00000	99.81222	353.49936	99.81222
16150.00000	100.19324	348.70923	100.19324
16200.00000	100.56203	345.37013	100.56203
16250.00000	100.96688	340.87390	100.96688
16300.00000	101.31442	337.60366	101.31442
16350.00000	101.68616	334.99721	101.68616
16400.00000	101.92105	332.42183	101.92105
16450.00000	102.19190	330.07955	102.19190
16500.00000	102.31915	327.34151	102.31915
16550.00000	102.40159	324.68504	102.40159
16600.00000	102.46965	321.40945	102.46965
16650.00000	102.49292	318.06300	102.49292
16700.00000	102.56066	314.49919	102.56066
16750.00000	102.62841	311.12851	102.62841
16800.00000	102.71393	307.60510	102.71393
16850.00000	102.91091	303.94239	102.91091
16900.00000	103.03634	301.36697	103.03634
16950.00000	103.16064	298.05691	103.16064
17000.00000	103.30614	295.35006	103.30614
17050.00000	103.44158	292.92615	103.44158
17100.00000	103.53314	290.75589	103.53314
17150.00000	103.61595	288.33623	103.61595
17200.00000	103.64279	285.66394	103.64279
17250.00000	103.68192	283.04291	103.68192
17300.00000	103.73077	280.27400	103.73077
17350.00000	103.81852	277.42570	103.81852
17400.00000	103.90013	274.25273	103.90013
17450.00000	104.03160	271.45691	104.03160
17500.00000	104.11319	268.53689	104.11319
17550.00000	104.22746	265.71159	104.22746
17600.00000	104.39179	263.30411	104.39179
17650.00000	104.49951	260.88361	104.49951
17700.00000	104.66403	258.42797	104.66403
17750.00000	104.76177	255.89324	104.76177
17800.00000	104.84675	253.37308	104.84675
17850.00000	104.97175	250.97269	104.97175
17900.00000	105.08529	248.33252	105.08529
17950.00000	105.17006	245.67808	105.17006
18000.00000	105.29350	242.76397	105.29350
18050.00000	105.40498	239.98686	105.40498
18100.00000	105.50097	237.07356	105.50097
18150.00000	105.63285	234.05065	105.63285
18200.00000	105.75409	231.05950	105.75409
18250.00000	105.87810	227.93390	105.87810
18300.00000	105.97207	224.89163	105.97207
18350.00000	106.08822	221.77208	106.08822
18400.00000	106.16735	218.65577	106.16735
18450.00000	106.24006	215.64845	106.24006
18500.00000	106.35668	212.55282	106.35668
18550.00000	106.43787	209.12098	106.43787
18600.00000	106.46024	206.02311	106.46024
18650.00000	106.57298	202.71561	106.57298
18700.00000	106.61130	199.52205	106.61130
18750.00000	106.62765	196.29692	106.62765
18800.00000	106.63635	192.99965	106.63635
18850.00000	106.66081	189.94247	106.66081
18900.00000	106.60451	186.85321	106.60451
18950.00000	106.60295	183.58220	106.60295
19000.00000	106.55696	180.46665	106.55696
19050.00000	106.52947	177.28991	106.52947
19100.00000	106.48588	174.23159	106.48588
19150.00000	106.46851	171.52789	106.46851
19200.00000	106.43021	168.47255	106.43021
19250.00000	106.36498	165.88438	106.36498
19300.00000	106.34088	163.25194	106.34088
19350.00000	106.32238	160.44235	106.32238
19400.00000	106.22805	157.97544	106.22805
19450.00000	106.21360	155.21581	106.21360
19500.00000	106.19548	152.77295	106.19548
19550.00000	106.17621	150.32226	106.17621
19600.00000	106.13521	147.75323	106.13521
19650.00000	106.11205	145.25506	106.11205
19700.00000	106.12017	142.64701	106.12017
19750.00000	106.11261	140.25954	106.11261
19800.00000	106.09785	138.06617	106.09785
19850.00000	106.08580	135.41316	106.08580
19900.00000	106.09223	132.95543	106.09223
19950.00000	106.06854	130.64550	106.06854
20000.00000	106.05918	127.82741	106.05918
20050.00000	106.07789	125.44748	106.07789
20100.00000	106.09028	122.99823	106.09028
20150.00000	106.10477	120.34666	106.10477
20200.00000	106.13949	117.81217	106.13949
20250.00000	106.14837	115.56355	106.14837
20300.00000	106.15736	112.95678	106.15736
20350.00000	106.18888	110.41107	106.18888
20400.00000	106.20773	107.82119	106.20773
20450.00000	106.22665	105.01874	106.22665
20500.00000	106.23379	102.13195	106.23379
20550.00000	106.24036	99.37464	106.24036
20600.00000	106.24811	96.66431	106.24811
20650.00000	106.27542	93.62996	106.27542
20700.00000	106.25854	91.01915	106.25854
20750.00000	106.23594	88.19342	106.23594
20800.00000	106.20292	85.39482	106.20292
20850.00000	106.18046	82.29866	106.18046
20900.00000	106.13263	79.60693	106.13263
20950.00000	106.11657	76.74853	106.11657
21000.00000	106.09806	73.79837	106.09806
21050.00000	106.04231	71.00097	106.04231
21100.00000	106.00739	68.20801	106.00739
21150.00000	105.92033	65.69942	105.92033
21200.00000	105.88601	62.90773	105.88601
21250.00000	105.76786	60.18807	105.76786
21300.00000	105.69660	57.20154	105.69660
21350.00000	105.62330	54.77849	105.62330
21400.00000	105.53411	51.72029	105.53411
21450.00000	105.51437	49.26945	105.51437
21500.00000	105.44646	46.97969	105.44646
21550.00000	105.36789	44.49952	105.36789
21600.00000	105.29739	41.64669	105.29739
21650.00000	105.22448	39.44127	105.22448
21700.00000	105.08917	36.60254	105.08917
21750.00000	105.03037	33.91955	105.03037
21800.00000	104.92918	31.45286	104.92918
21850.00000	104.87033	29.08780	104.87033
21900.00000	104.77486	26.66676	104.77486
21950.00000	104.70299	24.36323	104.70299
22000.00000	104.54681	22.18757	104.54681
22050.00000	104.45462	20.19575	104.45462
22100.00000	104.37220	18.26480	104.37220
22150.00000	104.30037	16.11853	104.30037
22200.00000	104.25387	13.88570	104.25387
22250.00000	104.23446	11.75394	104.23446
22300.00000	104.18390	 9.32442	104.18390
22350.00000	104.13389	 7.10985	104.13389
22400.00000	104.08122	 4.85494	104.08122
22450.00000	104.08539	 2.61801	104.08539
22500.00000	103.99784	 0.19216	103.99784
22550.00000	103.97450	-2.21479	103.97450
22600.00000	103.92044	-4.52768	103.92044
22650.00000	103.84090	-6.53063	103.84090
22700.00000	103.78384	-8.68827	103.78384
22750.00000	103.70695	-11.17055	103.70695
22800.00000	103.68740	-13.45765	103.68740
22850.00000	103.63517	-15.63984	103.63517
22900.00000	103.59851	-17.60556	103.59851
22950.00000	103.59957	-19.94058	103.59957
23000.00000	103.50803	-22.20194	103.50803
23050.00000	103.46342	-24.38441	103.46342
23100.00000	103.44715	-26.60726	103.44715
23150.00000	103.38002	-28.96114	103.38002
23200.00000	103.34367	-31.61541	103.34367
23250.00000	103.39529	-34.05176	103.39529
23300.00000	103.38826	-36.89715	103.38826
23350.00000	103.25470	-38.75631	103.25470
23400.00000	103.26495	-40.63396	103.26495
23450.00000	103.21664	-43.18533	103.21664
23500.00000	103.22066	-45.28526	103.22066
23550.00000	103.12795	-47.72997	103.12795
23600.00000	103.14757	-50.10068	103.14757
23650.00000	103.08109	-52.35150	103.08109
23700.00000	103.09713	-54.65100	103.09713
23750.00000	103.07044	-57.22989	103.07044
23800.00000	103.03036	-59.73384	103.03036
23850.00000	103.08225	-62.36640	103.08225
23900.00000	103.00396	-65.01653	103.00396
23950.00000	102.97839	-67.42082	102.97839
24000.00000	103.01926	-70.37547	103.01926
24050.00000	102.89850	-73.14380	102.89850
24100.00000	102.88442	-76.03525	102.88442
24150.00000	102.82067	-78.25177	102.82067
24200.00000	102.81676	-81.81900	102.81676
24250.00000	102.75990	-84.12159	102.75990
24300.00000	102.70571	-87.43722	102.70571
24350.00000	102.67454	-89.96105	102.67454
24400.00000	102.64466	-93.31163	102.64466
24450.00000	102.49075	-95.80764	102.49075
24500.00000	102.34838	-99.57295	102.34838
24550.00000	102.21992	-102.76192	102.21992
24600.00000	102.14659	-105.93465	102.14659
24650.00000	101.96181	-109.05661	101.96181
24700.00000	101.82628	-111.97656	101.82628
24750.00000	101.68960	-115.30910	101.68960
24800.00000	101.47606	-117.52102	101.47606
24850.00000	101.35335	-120.47318	101.35335
24900.00000	101.11766	-123.12827	101.11766
24950.00000	100.94622	-125.97418	100.94622
25000.00000	100.68014	-129.16385	100.68014
25050.00000	100.49424	-131.17020	100.49424
25100.00000	100.28151	-133.61519	100.28151
25150.00000	99.97194	-135.86344	99.97194
25200.00000	99.78209	-138.22303	99.78209
25250.00000	99.49118	-140.94075	99.49118
25300.00000	99.20613	-143.02165	99.20613
25350.00000	99.10954	-145.54090	99.10954
25400.00000	98.88907	-147.85049	98.88907
25450.00000	98.65342	-150.48730	98.65342
25500.00000	98.43944	-151.99116	98.43944
25550.00000	98.21419	-154.28273	98.21419
25600.00000	97.94084	-155.89387	97.94084
25650.00000	97.71357	-158.71722	97.71357
25700.00000	97.53468	-160.16264	97.53468
25750.00000	97.38226	-162.91481	97.38226
25800.00000	97.12339	-164.03347	97.12339
25850.00000	96.90772	-166.34206	96.90772
25900.00000	96.66829	-168.49318	96.66829
25950.00000	96.40705	-170.10021	96.40705
26000.00000	96.21369	-172.23188	96.21369
26050.00000	96.05543	-174.22515	96.05543
26100.00000	95.80001	-176.03205	95.80001
26150.00000	95.53266	-178.74105	95.53266
26200.00000	95.27453	-179.83500	95.27453
26250.00000	95.05014	-182.03334	95.05014
26300.00000	94.74051	-184.34666	94.74051
26350.00000	94.48211	-186.02789	94.48211
26400.00000	94.28123	-188.03625	94.28123
26450.00000	93.94068	-190.24707	93.94068
26500.00000	93.68804	-191.90132	93.68804
26550.00000	93.34009	-192.97468	93.34009
26600.00000	93.03083	-194.26537	93.03083
26650.00000	92.73076	-196.22787	92.73076
26700.00000	92.48641	-197.46744	92.48641
26750.00000	92.06641	-199.13379	92.06641
26800.00000	91.78080	-200.30382	91.78080
26850.00000	91.37265	-201.03315	91.37265
26900.00000	91.00576	-202.39039	91.00576
26950.00000	90.62562	-203.06647	90.62562
27000.00000	90.21790	-204.07053	90.21790
27050.00000	89.87907	-204.10197	89.87907
27100.00000	89.59431	-204.46374	89.59431
27150.00000	89.26201	-204.74192	89.26201
27200.00000	88.98932	-204.99365	88.98932
27250.00000	88.63557	-204.92427	88.63557
27300.00000	88.29709	-204.50692	88.29709
27350.00000	87.94058	-204.67264	87.94058
27400.00000	87.78372	-203.89842	87.78372
27450.00000	87.61718	-203.60133	87.61718
27500.00000	87.33888	-202.77029	87.33888
27550.00000	87.14879	-202.07131	87.14879
27600.00000	86.91723	-201.18348	86.91723
27650.00000	86.83345	-200.65475	86.83345
27700.00000	86.58577	-200.01772	86.58577
27750.00000	86.56831	-198.82820	86.56831
27800.00000	86.40761	-198.53041	86.40761
27850.00000	86.36752	-197.80489	86.36752
27900.00000	86.39132	-196.96315	86.39132
27950.00000	86.28307	-195.30357	86.28307
28000.00000	86.19361	-194.51025	86.19361
28050.00000	86.26185	-193.94378	86.26185
28100.00000	86.31291	-193.41435	86.31291
28150.00000	86.28213	-193.02980	86.28213
28200.00000	86.31104	-191.96540	86.31104
28250.00000	86.30677	-192.46808	86.30677
28300.00000	86.37196	-192.09187	86.37196
28350.00000	86.47405	-191.01461	86.47405
28400.00000	86.52816	-190.25916	86.52816
28450.00000	86.61530	-190.19245	86.61530
28500.00000	86.80959	-189.87098	86.80959
28550.00000	86.85346	-190.34888	86.85346
28600.00000	87.00709	-190.03459	87.00709
28650.00000	87.10862	-189.62862	87.10862
28700.00000	87.25482	-190.07210	87.25482
28750.00000	87.40875	-189.03856	87.40875
28800.00000	87.44049	-190.35600	87.44049
28850.00000	87.64266	-190.34014	87.64266
28900.00000	87.82769	-189.75710	87.82769
28950.00000	87.87273	-190.46890	87.87273
29000.00000	88.14806	-190.13290	88.14806
29050.00000	88.25678	-190.25741	88.25678
29100.00000	88.25237	-190.22136	88.25237
29150.00000	88.56199	-191.22216	88.56199
29200.00000	88.86501	-190.87297	88.86501
29250.00000	88.92434	-191.89247	88.92434
29300.00000	89.11939	-192.10541	89.11939
29350.00000	89.26653	-192.61686	89.26653
29400.00000	89.45608	-193.21784	89.45608
29450.00000	89.65315	-193.88721	89.65315
29500.00000	89.90114	-195.11438	89.90114
29550.00000	90.09720	-195.15014	90.09720
29600.00000	90.26774	-195.60188	90.26774
29650.00000	90.43035	-196.28628	90.43035
29700.00000	90.68995	-196.70365	90.68995
29750.00000	90.84529	-197.82577	90.84529
29800.00000	91.09122	-198.65261	91.09122
29850.00000	91.35886	-199.01311	91.35886
29900.00000	91.52827	-200.03452	91.52827
29950.00000	91.81096	-200.93458	91.81096
30000.00000	92.02432	-202.17672	92.02432
30050.00000	92.20313	-203.26923	92.20313
30100.00000	92.42476	-204.05684	92.42476
30150.00000	92.66523	-205.32951	92.66523
30200.00000	92.92551	-206.14595	92.92551
30250.00000	93.11040	-207.35282	93.11040
30300.00000	93.34084	-209.01918	93.34084
30350.00000	93.63618	-209.82386	93.63618
30400.00000	93.87318	-211.15329	93.87318
30450.00000	94.10884	-212.11507	94.10884
30500.00000	94.38937	-213.80798	94.38937
30550.00000	94.54500	-215.41701	94.54500
30600.00000	94.81193	-217.14238	94.81193
30650.00000	95.04766	-218.48898	95.04766
30700.00000	95.31325	-220.14967	95.31325
30750.00000	95.51942	-221.51694	95.51942
30800.00000	95.74510	-223.47137	95.74510
30850.00000	95.95605	-225.19847	95.95605
30900.00000	96.21119	-226.96189	96.21119
30950.00000	96.41547	-228.77579	96.41547
31000.00000	96.65658	-230.68688	96.65658
31050.00000	96.87974	-232.46061	96.87974
31100.00000	97.09024	-234.45739	97.09024
31150.00000	97.29976	-236.63232	97.29976
31200.00000	97.47349	-238.58902	97.47349
31250.00000	97.70526	-240.46867	97.70526
31300.00000	97.91431	-242.76969	97.91431
31350.00000	98.10350	-244.41064	98.10350
31400.00000	98.28172	-246.90111	98.28172
31450.00000	98.53370	-248.90770	98.53370
31500.00000	98.69418	-251.20138	98.69418
31550.00000	98.87332	-253.75723	98.87332
31600.00000	99.05224	-256.04215	99.05224
31650.00000	99.19390	-258.60245	99.19390
31700.00000	99.32692	-260.86731	99.32692
31750.00000	99.49013	-263.27835	99.49013
31800.00000	99.60873	-265.76370	99.60873
31850.00000	99.69183	-267.94264	99.69183
31900.00000	99.81376	-270.54878	99.81376
31950.00000	99.96709	-273.10634	99.96709
32000.00000	100.02990	-275.49671	100.02990
32050.00000	100.09905	-277.93136	100.09905
32100.00000	100.20315	-280.23863	100.20315
32150.00000	100.21980	-282.58351	100.21980
32200.00000	100.27249	-284.83712	100.27249
32250.00000	100.33980	-286.96248	100.33980
32300.00000	100.35858	-289.02728	100.35858
32350.00000	100.43194	-291.42435	100.43194
32400.00000	100.45469	-293.54965	100.45469
32450.00000	100.49104	-295.78113	100.49104
32500.00000	100.48164	-297.68279	100.48164
32550.00000	100.47559	-299.66875	100.47559
32600.00000	100.50036	-301.51638	100.50036
32650.00000	100.55291	-303.44865	100.55291
32700.00000	100.51238	-305.46895	100.51238
32750.00000	100.51940	-307.33252	100.51940
32800.00000	100.54837	-308.85332	100.54837
32850.00000	100.52571	-310.44957	100.52571
32900.00000	100.52993	-311.93508	100.52993
32950.00000	100.58670	-313.26260	100.58670
33000.00000	100.59224	-315.09518	100.59224
33050.00000	100.60138	-316.36875	100.60138
33100.00000	100.61248	-317.83855	100.61248
33150.00000	100.60669	-318.90650	100.60669
33200.00000	100.63647	-320.27758	100.63647
33250.00000	100.62001	-321.41615	100.62001
33300.00000	100.68552	-322.20317	100.68552
33350.00000	100.73248	-323.29966	100.73248
33400.00000	100.76457	-324.44067	100.76457
33450.00000	100.81931	-325.33132	100.81931
33500.00000	100.92067	-326.05390	100.92067
33550.00000	100.98868	-327.00166	100.98868
33600.00000	101.10018	-327.41360	101.10018
33650.00000	101.20188	-328.44055	101.20188
33700.00000	101.29231	-329.16960	101.29231
33750.00000	101.38329	-329.85826	101.38329
33800.00000	101.54865	-330.62483	101.54865
33850.00000	101.71899	-331.33380	101.71899
33900.00000	101.84365	-332.19374	101.84365
33950.00000	102.03935	-332.81124	102.03935
34000.00000	102.24050	-333.30590	102.24050
34050.00000	102.41307	-333.87911	102.41307
34100.00000	102.65996	-334.62360	102.65996
34150.00000	102.90301	-335.26118	102.90301
34200.00000	103.15406	-336.30889	103.15406
34250.00000	103.41074	-337.00554	103.41074
34300.00000	103.70255	-337.89178	103.70255
34350.00000	103.99217	-339.12831	103.99217
34400.00000	104.27126	-340.20494	104.27126
34450.00000	104.55905	-341.34170	104.55905
34500.00000	104.89542	-342.61351	104.89542
34550.00000	105.20106	-344.01574	105.20106
34600.00000	105.53298	-345.52529	105.53298
34650.00000	105.82362	-347.17743	105.82362
34700.00000	106.09552	-348.58434	106.09552
34750.00000	106.34878	-349.95393	106.34878
34800.00000	106.65329	-351.17025	106.65329
34850.00000	107.02333	-352.53519	107.02333
34900.00000	107.37379	-354.03079	107.37379
34950.00000	107.73356	-355.65706	107.73356
35000.00000	108.09074	-357.13377	108.09074
35050.00000	108.47969	-358.89593	108.47969
35100.00000	108.84798	-360.93677	108.84798
35150.00000	109.23992	-362.86124	109.23992
35200.00000	109.63609	-364.89641	109.63609
35250.00000	110.03722	-367.08270	110.03722
35300.00000	110.42924	-369.39965	110.42924
35350.00000	110.81166	-371.85242	110.81166
35400.00000	111.19636	-374.34021	111.19636
35450.00000	111.55751	-376.96239	111.55751
35500.00000	111.94575	-379.55016	111.94575
35550.00000	112.32007	-382.27413	112.32007
35600.00000	112.69608	-385.24778	112.69608
35650.00000	113.06607	-388.22388	113.06607
35700.00000	113.41049	-391.25995	113.41049
35750.00000	113.73935	-394.30951	113.73935
35800.00000	114.08276	-397.51214	114.08276
35850.00000	114.42524	-400.71315	114.42524
35900.00000	114.73299	-403.96864	114.73299
35950.00000	115.04757	-407.26202	115.04757
36000.00000	115.34960	-410.56102	115.34960
36050.00000	115.64537	-414.08071	115.64537
36100.00000	115.90768	-417.47812	115.90768
36150.00000	116.17038	-420.92084	116.17038
36200.00000	116.43458	-424.45543	116.43458
36250.00000	116.65765	-427.83111	116.65765
36300.00000	116.89472	-431.24616	116.89472
36350.00000	117.13402	-434.71408	117.13402
36400.00000	117.34573	-438.14882	117.34573
36450.00000	117.56518	-441.54068	117.56518
36500.00000	117.77997	-444.85227	117.77997
36550.00000	117.98937	-448.19729	117.98937
36600.00000	118.19345	-451.55925	118.19345
36650.00000	118.39555	-454.80480	118.39555
36700.00000	118.61510	-458.02518	118.61510
36750.00000	118.81021	-461.29958	118.81021
36800.00000	119.03440	-464.58409	119.03440
36850.00000	119.24297	-467.79459	119.24297
36900.00000	119.45501	-471.01751	119.45501
36950.00000	119.68205	-474.22676	119.68205
37000.00000	119.91143	-477.42621	119.91143
37050.00000	120.14193	-480.66208	120.14193
37100.00000	120.37939	-483.91343	120.37939
37150.00000	120.62980	-487.16014	120.62980
37200.00000	120.88962	-490.45279	120.88962
37250.00000	121.15732	-493.79434	121.15732
37300.00000	121.44101	-497.19945	121.44101
37350.00000	121.73102	-500.69497	121.73102
37400.00000	122.03074	-504.36389	122.03074
37450.00000	122.33819	-508.06299	122.33819
37500.00000	122.64463	-511.87427	122.64463
37550.00000	122.97120	-515.95073	122.97120
37600.00000	123.29395	-520.11757	123.29395
37650.00000	123.61630	-524.52099	123.61630
37700.00000	123.91898	-528.99423	123.91898
37750.00000	124.22998	-533.71337	124.22998
37800.00000	124.51316	-538.61883	124.51316
37850.00000	124.79330	-543.65413	124.79330
37900.00000	125.03772	-548.95350	125.03772
37950.00000	125.25197	-554.35788	125.25197
38000.00000	125.45023	-559.87533	125.45023
38050.00000	125.59754	-565.57209	125.59754
38100.00000	125.70913	-571.23354	125.70913
38150.00000	125.78938	-576.87717	125.78938
38200.00000	125.83660	-582.52587	125.83660
38250.00000	125.84966	-588.04326	125.84966
38300.00000	125.85407	-593.56744	125.85407
38350.00000	125.83292	-599.02869	125.83292
38400.00000	125.79382	-604.37657	125.79382
38450.00000	125.74581	-609.65598	125.74581
38500.00000	125.68200	-614.88527	125.68200
38550.00000	125.60196	-620.13659	125.60196
38600.00000	125.51142	-625.27634	125.51142
38650.00000	125.41302	-630.40474	125.41302
38700.00000	125.29721	-635.49658	125.29721
38750.00000	125.17148	-640.48876	125.17148
38800.00000	125.02353	-645.48173	125.02353
38850.00000	124.88329	-650.48648	124.88329
38900.00000	124.71504	-655.42361	124.71504
38950.00000	124.53740	-660.31341	124.53740
39000.00000	124.34652	-665.19835	124.34652
39050.00000	124.13822	-670.04093	124.13822
39100.00000	123.91307	-674.87851	123.91307
39150.00000	123.66092	-679.64026	123.66092
39200.00000	123.40103	-684.26098	123.40103
39250.00000	123.13049	-688.74036	123.13049
39300.00000	122.83837	-693.14919	122.83837
39350.00000	122.54362	-697.47936	122.54362
39400.00000	122.24886	-701.70240	122.24886
39450.00000	121.95431	-705.80670	121.95431
39500.00000	121.64838	-709.92394	121.64838
39550.00000	121.33370	-713.86879	121.33370
39600.00000	121.00420	-717.94832	121.00420
39650.00000	120.66454	-721.88197	120.66454
39700.00000	120.31233	-725.65205	120.31233
39750.00000	119.94438	-729.36708	119.94438
39800.00000	119.55423	-732.92137	119.55423
39850.00000	119.17716	-736.34766	119.17716
39900.00000	118.77991	-739.57286	118.77991
39950.00000	118.38752	-742.72578	118.38752
40000.00000	118.00086	-745.67982	118.00086
40050.00000	117.60639	-748.54076	117.60639
40100.00000	117.22414	-751.31722	117.22414
40150.00000	116.84311	-753.97409	116.84311
40200.00000	116.47138	-756.47501	116.47138
40250.00000	116.10658	-758.90258	116.10658
40300.00000	115.73792	-761.25093	115.73792
40350.00000	115.38945	-763.47734	115.38945
40400.00000	115.02071	-765.68366	115.02071
40450.00000	114.66674	-767.73227	114.66674
40500.00000	114.32040	-769.65401	114.32040
40550.00000	113.97157	-771.60366	113.97157
40600.00000	113.63155	-773.33905	113.63155
40650.00000	113.29695	-775.27135	113.29695
40700.00000	112.94434	-777.01192	112.94434
40750.00000	112.61805	-778.45310	112.61805
40800.00000	112.30347	-779.95016	112.30347
40850.00000	111.96850	-781.43312	111.96850
40900.00000	111.67614	-782.69661	111.67614
40950.00000	111.36551	-783.95679	111.36551
41000.00000	111.06182	-785.14878	111.06182
41050.00000	110.76921	-786.01197	110.76921
41100.00000	110.49482	-786.79403	110.49482
41150.00000	110.25460	-787.63614	110.25460
41200.00000	109.99414	-788.31091	109.99414
41250.00000	109.79219	-788.73512	109.79219
41300.00000	109.58249	-789.23282	109.58249
41350.00000	109.39637	-789.58892	109.39637
41400.00000	109.23379	-789.97833	109.23379
41450.00000	109.11953	-790.23588	109.11953
41500.00000	109.01076	-790.24084	109.01076
41550.00000	108.92358	-790.37965	108.92358
41600.00000	108.88571	-790.51721	108.88571
41650.00000	108.84669	-790.93446	108.84669
41700.00000	108.86887	-791.17172	108.86887
41750.00000	108.93342	-791.62751	108.93342
41800.00000	108.95308	-792.20461	108.95308
41850.00000	109.02418	-793.30115	109.02418
41900.00000	109.08702	-794.08326	109.08702
41950.00000	109.19105	-794.99465	109.19105
42000.00000	109.31813	-796.04377	109.31813
42050.00000	109.40501	-797.02899	109.40501
42100.00000	109.52267	-798.44505	109.52267
42150.00000	109.59669	-799.79127	109.59669
42200.00000	109.72242	-801.40414	109.72242
42250.00000	109.79559	-803.03045	109.79559
42300.00000	109.92201	-804.25145	109.92201
42350.00000	110.02371	-806.14191	110.02371
42400.00000	110.13266	-807.77982	110.13266
42450.00000	110.23341	-809.64219	110.23341
42500.00000	110.32180	-811.40319	110.32180
42550.00000	110.43821	-813.02819	110.43821
42600.00000	110.49929	-815.09479	110.49929
42650.00000	110.59070	-816.72142	110.59070
42700.00000	110.72237	-818.72962	110.72237
42750.00000	110.81533	-821.00096	110.81533
42800.00000	110.90606	-823.08392	110.90606
42850.00000	111.02591	-825.08271	111.02591
42900.00000	111.15958	-827.38589	111.15958
42950.00000	111.24170	-829.72154	111.24170
43000.00000	111.38005	-831.83544	111.38005
43050.00000	111.50035	-834.19595	111.50035
43100.00000	111.61733	-837.05887	111.61733
43150.00000	111.68841	-839.36906	111.68841
43200.00000	111.81037	-842.14947	111.81037
43250.00000	111.90647	-844.60467	111.90647
43300.00000	112.00495	-847.30034	112.00495
43350.00000	112.04612	-849.94528	112.04612
43400.00000	112.10313	-852.83715	112.10313
43450.00000	112.17118	-855.72402	112.17118
43500.00000	112.18864	-858.62654	112.18864
43550.00000	112.21724	-861.50695	112.21724
43600.00000	112.21279	-864.40250	112.21279
43650.00000	112.24234	-867.40337	112.24234
43700.00000	112.22359	-870.48203	112.22359
43750.00000	112.18538	-873.67913	112.18538
43800.00000	112.15040	-876.66427	112.15040
43850.00000	112.09318	-879.36821	112.09318
43900.00000	112.07530	-882.38688	112.07530
43950.00000	111.95911	-885.52046	111.95911
44000.00000	111.88257	-888.39693	111.88257
44050.00000	111.81167	-891.27269	111.81167
44100.00000	111.73288	-893.79652	111.73288
44150.00000	111.66983	-896.34642	111.66983
44200.00000	111.48975	-899.20163	111.48975
44250.00000	111.40313	-901.61177	111.40313
44300.00000	111.32846	-904.23790	111.32846
44350.00000	111.21045	-906.68469	111.21045
44400.00000	111.11453	-908.73136	111.11453
44450.00000	110.97953	-910.94172	110.97953
44500.00000	110.85895	-912.88803	110.85895
44550.00000	110.68032	-914.90453	110.68032
44600.00000	110.59607	-917.11935	110.59607
44650.00000	110.48025	-918.84952	110.48025
44700.00000	110.38743	-921.00941	110.38743
44750.00000	110.25852	-922.81393	110.25852
44800.00000	110.16934	-924.68424	110.16934
44850.00000	110.08061	-926.57007	110.08061
44900.00000	109.97454	-928.37996	109.97454
44950.00000	109.93474	-930.13440	109.93474
45000.00000	109.85113	-931.49191	109.85113
45050.00000	109.82556	-933.33037	109.82556
45100.00000	109.79715	-935.14178	109.79715
45150.00000	109.76578	-936.27092	109.76578
45200.00000	109.81979	-938.21903	109.81979
45250.00000	109.80007	-940.13717	109.80007
45300.00000	109.83420	-942.42518	109.83420
45350.00000	109.85709	-944.57351	109.85709
45400.00000	109.81751	-946.79396	109.81751
45450.00000	109.75693	-948.74677	109.75693
45500.00000	109.65974	-950.34409	109.65974
45550.00000	109.63447	-952.35951	109.63447
45600.00000	109.72033	-954.29046	109.72033
45650.00000	109.66403	-956.29511	109.66403
45700.00000	109.66306	-958.53996	109.66306
45750.00000	109.64518	-960.76374	109.64518
45800.00000	109.52478	-963.46835	109.52478
45850.00000	109.49480	-965.90328	109.49480
45900.00000	109.40770	-968.58158	109.40770
45950.00000	109.20628	-970.28681	109.20628
46000.00000	109.05029	-972.83746	109.05029
46050.00000	108.90985	-974.35067	108.90985
46100.00000	108.79153	-975.83052	108.79153
46150.00000	108.61103	-976.87084	108.61103
46200.00000	108.49410	-978.33734	108.49410
46250.00000	108.34256	-979.17904	108.34256
46300.00000	108.28509	-979.89983	108.28509
46350.00000	108.22260	-980.88136	108.22260
46400.00000	108.13815	-981.68956	108.13815
46450.00000	108.15042	-981.54955	108.15042
46500.00000	108.16879	-982.65451	108.16879
46550.00000	108.15809	-983.13659	108.15809
46600.00000	108.27046	-984.00470	108.27046
46650.00000	108.31598	-984.13254	108.31598
46700.00000	108.47010	-985.32289	108.47010
46750.00000	108.54205	-986.53912	108.54205
46800.00000	108.58172	-986.41007	108.58172
46850.00000	108.85885	-987.97311	108.85885
46900.00000	109.02296	-989.10262	109.02296
46950.00000	109.15795	-989.43437	109.15795
47000.00000	109.38951	-991.00817	109.38951
47050.00000	109.63411	-992.53136	109.63411
47100.00000	109.80218	-993.87300	109.80218
47150.00000	110.06175	-995.22529	110.06175
47200.00000	110.36214	-997.16796	110.36214
47250.00000	110.50468	-998.64110	110.50468
47300.00000	110.79179	-1000.44500	110.79179
47350.00000	111.08402	-1002.32399	111.08402
47400.00000	111.30391	-1004.07264	111.30391
47450.00000	111.52740	-1006.43451	111.52740
47500.00000	111.83564	-1008.52979	111.83564
47550.00000	112.14126	-1010.66937	112.14126
47600.00000	112.34768	-1013.42634	112.34768
47650.00000	112.57339	-1015.58209	112.57339
47700.00000	112.87325	-1018.56070	112.87325
47750.00000	113.10718	-1021.13197	113.10718
47800.00000	113.37779	-1023.93264	113.37779
47850.00000	113.62061	-1026.46230	113.62061
47900.00000	113.86719	-1029.32090	113.86719
47950.00000	114.18632	-1033.09497	114.18632
48000.00000	114.38748	-1036.46408	114.38748
48050.00000	114.63779	-1039.42852	114.63779
48100.00000	114.84514	-1043.34847	114.84514
48150.00000	115.11211	-1046.89175	115.11211
48200.00000	115.26160	-1050.60085	115.26160
48250.00000	115.47830	-1054.02183	115.47830
48300.00000	115.69006	-1057.77075	115.69006
48350.00000	115.85255	-1061.58874	115.85255
48400.00000	115.88742	-1065.80847	115.88742
48450.00000	116.09936	-1069.84360	116.09936
48500.00000	116.17167	-1073.71745	116.17167
48550.00000	116.27596	-1077.53622	116.27596
48600.00000	116.34981	-1082.55168	116.34981
48650.00000	116.41724	-1086.18853	116.41724
48700.00000	116.43426	-1090.15150	116.43426
48750.00000	116.47340	-1094.75674	116.47340
48800.00000	116.43306	-738.31089	116.43306
48850.00000	116.34936	-383.14626	116.34936
48900.00000	116.50007	-26.91908	116.50007
48950.00000	116.31836	329.11760	116.31836
49000.00000	116.34577	684.79192	116.34577
49050.00000	116.33238	1040.13050	116.33238
49100.00000	116.24113	1396.82555	116.24113
49150.00000	116.16893	1752.49935	116.16893
49200.00000	115.96446	2109.46695	115.96446
49250.00000	115.96826	2465.70147	115.96826
49300.00000	115.85691	2822.32914	115.85691
49350.00000	115.63570	3178.86722	115.63570
49400.00000	115.40275	3534.28055	115.40275
49450.00000	115.36857	3891.22345	115.36857
49500.00000	115.17334	4248.59868	115.17334
49550.00000	114.99969	4604.91293	114.99969
49600.00000	114.87103	4961.76852	114.87103
49650.00000	114.78594	5317.53084	114.78594
49700.00000	114.46912	5674.86294	114.46912
49750.00000	114.34915	6032.35717	114.34915
49800.00000	114.16798	6030.00221	114.16798
49850.00000	114.06360	6745.53107	114.06360
49900.00000	113.97326	6743.34820	113.97326
49950.00000	113.69729	7100.74337	113.69729
50000.00000	113.65601	7097.95699	113.65601
50050.00000	113.43845	7095.50759	113.43845
50100.00000	113.22394	7092.56880	113.22394
50150.00000	113.22101	7089.93800	113.22101
50200.00000	113.08234	7087.27008	113.08234
50250.00000	112.83709	7084.80938	112.83709
50300.00000	112.81145	7082.40021	112.81145
50350.00000	112.61148	7080.56527	112.61148
50400.00000	112.58786	7077.71107	112.58786
50450.00000	112.37888	7075.11213	112.37888
50500.00000	112.26443	7073.50438	112.26443
50550.00000	112.08417	7070.62553	112.08417
50600.00000	112.08788	7067.69092	112.08788
50650.00000	112.02759	7065.64824	112.02759
50700.00000	111.81358	7062.41817	111.81358
50750.00000	111.68121	7059.96076	111.68121
50800.00000	111.57962	7056.87611	111.57962
50850.00000	111.46580	7054.79622	111.46580
50900.00000	111.23905	7051.08585	111.23905
50950.00000	111.21280	7048.34906	111.21280
51000.00000	111.17445	7044.99481	111.17445
51050.00000	110.94807	7042.55796	110.94807
51100.00000	110.71694	7039.30871	110.71694
51150.00000	110.41993	7036.18798	110.41993
51200.00000	110.12740	7033.56691	110.12740
51250.00000	109.92831	7031.44599	109.92831
51300.00000	109.63823	7028.22545	109.63823
51350.00000	109.30152	7027.37192	109.30152
51400.00000	109.02191	7024.03684	109.02191
51450.00000	108.55269	7023.41431	108.55269
51500.00000	108.25576	7021.54220	108.25576
51550.00000	107.90636	7020.40911	107.90636
51600.00000	107.61175	7019.05080	107.61175
51650.00000	107.11766	7018.77415	107.11766
51700.00000	106.94452	7017.72527	106.94452
51750.00000	106.65787	7018.56376	106.65787
51800.00000	106.54983	7018.09352	106.54983
51850.00000	106.39775	7017.87082	106.39775
51900.00000	106.22738	7018.21245	106.22738
51950.00000	105.97575	7018.57223	105.97575
52000.00000	105.96549	7018.68790	105.96549
52050.00000	106.11380	7018.82746	106.11380
52100.00000	105.98450	7019.63812	105.98450
52150.00000	106.08681	7019.74986	106.08681
52200.00000	106.29296	7019.26290	106.29296
52250.00000	106.46667	7018.88490	106.46667
52300.00000	106.39161	7020.26259	106.39161
52350.00000	106.78776	7019.09990	106.78776
52400.00000	106.91821	7017.39191	106.91821
52450.00000	107.19611	7016.45504	107.19611
52500.00000	107.38088	7015.58825	107.38088
52550.00000	107.55825	7015.28398	107.55825
52600.00000	107.71709	7013.21429	107.71709
52650.00000	108.03822	7012.49241	108.03822
52700.00000	108.28964	7011.53267	108.28964
52750.00000	108.56452	7009.70048	108.56452
52800.00000	108.80912	7007.38695	108.80912
52850.00000	108.93813	7005.95481	108.93813
52900.00000	109.24109	7003.71572	109.24109
52950.00000	109.51487	7001.75937	109.51487
53000.00000	109.78760	6999.00243	109.78760
53050.00000	109.96168	6996.65651	109.96168
53100.00000	110.32900	6993.88794	110.32900
53150.00000	110.55748	6991.85956	110.55748
53200.00000	110.66347	6988.66490	110.66347
53250.00000	110.96621	6986.21111	110.96621
53300.00000	111.16062	6982.27788	111.16062
53350.00000	111.25318	6979.94533	111.25318
53400.00000	111.54957	6977.02375	111.54957
53450.00000	111.72838	6973.38102	111.72838
53500.00000	111.82864	6970.74181	111.82864
53550.00000	112.11017	6966.79607	112.11017
53600.00000	112.14089	6962.89565	112.14089
53650.00000	112.31071	6959.52204	112.31071
53700.00000	112.45756	6956.00331	112.45756
53750.00000	112.53893	6951.80302	112.53893
53800.00000	112.61240	6949.11194	112.61240
53850.00000	112.67530	6944.96075	112.67530
53900.00000	112.75078	6941.87078	112.75078
53950.00000	112.73533	6937.59463	112.73533
54000.00000	112.78158	6933.98190	112.78158
54050.00000	112.81496	6930.12223	112.81496
54100.00000	112.83186	6926.69250	112.83186
54150.00000	112.85419	6922.74415	112.85419
54200.00000	112.69690	6919.79068	112.69690
54250.00000	112.71898	6915.21857	112.71898
54300.00000	112.68353	6911.75403	112.68353
54350.00000	112.67759	6908.33100	112.67759
54400.00000	112.78135	6905.62416	112.78135
54450.00000	112.65637	6901.23752	112.65637
54500.00000	112.47611	6898.22057	112.47611
54550.00000	112.41475	6894.62881	112.41475
54600.00000	112.41777	6891.61352	112.41777
54650.00000	112.34024	6887.29020	112.34024
54700.00000	112.23113	6884.12568	112.23113
54750.00000	112.28852	6880.85991	112.28852
54800.00000	112.11861	6877.25991	112.11861
54850.00000	111.94906	6873.93371	111.94906
54900.00000	111.93321	6870.15812	111.93321
54950.00000	111.82005	6867.31317	111.82005
55000.00000	111.89138	6863.50143	111.89138
55050.00000	111.63773	6860.08106	111.63773
55100.00000	111.58686	6856.65388	111.58686
55150.00000	111.48353	6853.06918	111.48353
55200.00000	111.29452	6849.32001	111.29452
55250.00000	111.20718	6846.09524	111.20718
55300.00000	111.06899	6842.39422	111.06899
55350.00000	110.87860	6839.03701	110.87860
55400.00000	110.75131	6835.16441	110.75131
55450.00000	110.55032	6832.11254	110.55032
55500.00000	110.39527	6828.38360	110.39527
55550.00000	110.20627	6825.04024	110.20627
55600.00000	109.97359	6821.27931	109.97359
55650.00000	109.78802	6818.25372	109.78802
55700.00000	109.50280	6814.75953	109.50280
55750.00000	109.29118	6811.42180	109.29118
55800.00000	109.01841	6808.08520	109.01841
55850.00000	108.73740	6804.87895	108.73740
55900.00000	108.45211	6802.65205	108.45211
55950.00000	108.18277	6799.38972	108.18277
56000.00000	107.89029	6796.60938	107.89029
56050.00000	107.62202	6794.06272	107.62202
56100.00000	107.31022	6791.37751	107.31022
56150.00000	106.99370	6789.43428	106.99370
56200.00000	106.78106	6786.70350	106.78106
56250.00000	106.39808	6784.77233	106.39808
56300.00000	106.15435	6782.30165	106.15435
56350.00000	105.87028	6780.50433	105.87028
56400.00000	105.60709	6778.69391	105.60709
56450.00000	105.41721	6777.08718	105.41721
56500.00000	105.17146	6774.94548	105.17146
56550.00000	104.93702	6772.77229	104.93702
56600.00000	104.75022	6771.54943	104.75022
56650.00000	104.52429	6769.66985	104.52429
56700.00000	104.33485	6768.09718	104.33485
56750.00000	104.18575	6766.72999	104.18575
56800.00000	103.96519	6765.01671	103.96519
56850.00000	103.84077	6763.27757	103.84077
56900.00000	103.69243	6761.55035	103.69243
56950.00000	103.65019	6760.10343	103.65019
57000.00000	103.41279	6757.80679	103.41279
57050.00000	103.27896	6755.92818	103.27896
57100.00000	103.16825	6754.37404	103.16825
57150.00000	102.97623	6752.51190	102.97623
57200.00000	102.86611	6750.64578	102.86611
57250.00000	102.78656	6748.23775	102.78656
57300.00000	102.66898	6746.76140	102.66898
57350.00000	102.42145	6744.90668	102.42145
57400.00000	102.29322	6743.47296	102.29322
57450.00000	102.10774	6741.12860	102.10774
57500.00000	101.83241	6739.33507	101.83241
57550.00000	101.80132	6737.77555	101.80132
57600.00000	101.62147	6735.87625	101.62147
57650.00000	101.41374	6734.64975	101.41374
57700.00000	101.24479	6733.00185	101.24479
57750.00000	101.09784	6731.55643	101.09784
57800.00000	101.00703	6730.10462	101.00703
57850.00000	100.80354	6728.68911	100.80354
57900.00000	100.66839	6727.14837	100.66839
57950.00000	100.54035	6725.52214	100.54035
58000.00000	100.35137	6724.94691	100.35137
58050.00000	100.33336	6723.16309	100.33336
58100.00000	100.20404	6721.72747	100.20404
58150.00000	100.06880	6720.65410	100.06880
58200.00000	99.90078	6719.02253	99.90078
58250.00000	99.83051	6718.36353	99.83051
58300.00000	99.71732	6716.96766	99.71732
58350.00000	99.57055	6715.38146	99.57055
58400.00000	99.40529	6714.23441	99.40529
58450.00000	99.37275	6713.80614	99.37275
58500.00000	99.24734	6712.75609	99.24734
58550.00000	99.21798	6711.38544	99.21798
58600.00000	99.08169	6710.37455	99.08169
58650.00000	99.00873	6709.95211	99.00873
58700.00000	98.87937	6708.02775	98.87937
58750.00000	98.81116	6707.89053	98.81116
58800.00000	98.79371	6706.95607	98.79371
58850.00000	98.74532	6706.51407	98.74532
58900.00000	98.65027	6705.98013	98.65027
58950.00000	98.59865	6704.92199	98.59865
59000.00000	98.61667	6704.54658	98.61667
59050.00000	98.57260	6704.57926	98.57260
59100.00000	98.53533	6703.80564	98.53533
59150.00000	98.57066	6703.90994	98.57066
59200.00000	98.66002	6703.39435	98.66002
59250.00000	98.71032	6703.64242	98.71032
59300.00000	98.83234	6703.73889	98.83234
59350.00000	99.02078	6703.85250	99.02078
59400.00000	99.21281	6703.86461	99.21281
59450.00000	99.46679	6703.68969	99.46679
59500.00000	99.75823	6703.18326	99.75823
59550.00000	100.10116	6703.16975	100.10116
59600.00000	100.52303	6702.36601	100.52303
59650.00000	100.95206	6701.21857	100.95206
59700.00000	101.39765	6699.77883	101.39765
59750.00000	101.86430	6697.93705	101.86430
59800.00000	102.27419	6695.48800	102.27419
59850.00000	102.79814	6692.88353	102.79814
59900.00000	103.20219	6689.49159	103.20219
59950.00000	103.62283	6686.21675	103.62283
60000.00000	104.03173	6682.37719	104.03173
60050.00000	104.34308	6677.87820	104.34308
60100.00000	104.59538	6673.59853	104.59538
60150.00000	104.81803	6669.23589	104.81803
60200.00000	104.98717	6664.26930	104.98717
60250.00000	105.06587	6659.45260	105.06587
60300.00000	105.13531	6654.94021	105.13531
60350.00000	105.10866	6650.55947	105.10866
60400.00000	105.07481	6646.08780	105.07481
60450.00000	104.98420	6642.06969	104.98420
60500.00000	104.87329	6638.06459	104.87329
60550.00000	104.73143	6634.48758	104.73143
60600.00000	104.59469	6630.95203	104.59469
60650.00000	104.43843	6627.66611	104.43843
60700.00000	104.28940	6624.54748	104.28940
60750.00000	104.12778	6621.60934	104.12778
60800.00000	103.98992	6619.06056	103.98992
60850.00000	103.87646	6616.25466	103.87646
60900.00000	103.75433	6613.73229	103.75433
60950.00000	103.63413	6611.30245	103.63413
61000.00000	103.51060	6608.99323	103.51060
61050.00000	103.46196	6606.66165	103.46196
61100.00000	103.37381	6604.22793	103.37381
61150.00000	103.29661	6601.91585	103.29661
61200.00000	103.25304	6599.59545	103.25304
61250.00000	103.18933	6597.38602	103.18933
61300.00000	103.15034	6594.78819	103.15034
61350.00000	103.09612	6592.70152	103.09612
61400.00000	103.03244	6590.41223	103.03244
61450.00000	103.01890	6587.99824	103.01890
61500.00000	102.93520	6585.81736	102.93520
61550.00000	102.98365	6583.38111	102.98365
61600.00000	102.89506	6581.01811	102.89506
61650.00000	102.92239	6578.80923	102.92239
61700.00000	102.92472	6576.34080	102.92472
61750.00000	102.86075	6574.31407	102.86075
61800.00000	102.87114	6572.14714	102.87114
61850.00000	102.85576	6569.51852	102.85576
61900.00000	102.88124	6567.10255	102.88124
61950.00000	102.85995	6564.87162	102.85995
62000.00000	102.93002	6562.42425	102.93002
62050.00000	102.94376	6559.91482	102.94376
62100.00000	102.99084	6557.24914	102.99084
62150.00000	103.03069	6554.47184	103.03069
62200.00000	103.02604	6551.69523	103.02604
62250.00000	103.06159	6548.98032	103.06159
62300.00000	103.01711	6546.09280	103.01711
62350.00000	103.04056	6543.04404	103.04056
62400.00000	103.02166	6540.20815	103.02166
62450.00000	103.01050	6537.11699	103.01050
62500.00000	102.92590	6534.32211	102.92590
62550.00000	102.86403	6530.90470	102.86403
62600.00000	102.81401	6528.47777	102.81401
62650.00000	102.69744	6525.71162	102.69744
62700.00000	102.71001	6523.04461	102.71001
62750.00000	102.60709	6520.16676	102.60709
62800.00000	102.52665	6517.72369	102.52665
62850.00000	102.44704	6514.77897	102.44704
62900.00000	102.38894	6512.14205	102.38894
62950.00000	102.31630	6510.02302	102.31630
63000.00000	102.25753	6507.53237	102.25753
63050.00000	102.23095	6504.78543	102.23095
63100.00000	102.18529	6502.56930	102.18529
63150.00000	102.15335	6500.11142	102.15335
63200.00000	102.06683	6497.47175	102.06683
63250.00000	102.07607	6494.73525	102.07607
63300.00000	102.09462	6492.29247	102.09462
63350.00000	102.01110	6489.61313	102.01110
63400.00000	102.00928	6486.61401	102.00928
63450.00000	102.07822	6483.95946	102.07822
63500.00000	102.03166	6481.23236	102.03166
63550.00000	101.95283	6477.66611	101.95283
63600.00000	101.90379	6474.60904	101.90379
63650.00000	101.84542	6470.77819	101.84542
63700.00000	101.62406	6467.55135	101.62406
63750.00000	101.43808	6464.69463	101.43808
63800.00000	101.19478	6462.19366	101.19478
63850.00000	100.93188	6460.45792	100.93188
63900.00000	100.81520	6458.95638	100.81520
63950.00000	100.77294	6457.76180	100.77294
64000.00000	100.76238	6455.90489	100.76238
64050.00000	100.79436	6453.74008	100.79436
64100.00000	100.91070	6451.45383	100.91070
64150.00000	100.96550	6448.39736	100.96550
64200.00000	100.92805	6445.66321	100.92805
64250.00000	100.93231	6442.77769	100.93231
64300.00000	100.87665	6439.88056	100.87665
64350.00000	100.85299	6436.66022	100.85299
64400.00000	100.80499	6434.37000	100.80499
64450.00000	100.70192	6431.45397	100.70192
64500.00000	100.71759	6428.78616	100.71759
64550.00000	100.68025	6425.56120	100.68025
64600.00000	100.62309	6422.64535	100.62309
64650.00000	100.57974	6419.57620	100.57974
64700.00000	100.48056	6416.26020	100.48056
64750.00000	100.48281	6413.27417	100.48281
64800.00000	100.27929	6409.98817	100.27929
64850.00000	100.19698	6406.22359	100.19698
64900.00000	100.02963	6402.90775	100.02963
64950.00000	99.86242	6399.93863	99.86242
65000.00000	99.76142	6396.71214	99.76142
65050.00000	99.58271	6393.71469	99.58271
65100.00000	99.31670	6390.25242	99.31670
65150.00000	99.03409	6387.32198	99.03409
65200.00000	98.75395	6383.71033	98.75395
65250.00000	98.56775	6381.79950	98.56775
65300.00000	98.19296	6379.00770	98.19296
65350.00000	97.96914	6376.37191	97.96914
65400.00000	97.72789	6374.13545	97.72789
65450.00000	97.45935	6372.42942	97.45935
65500.00000	97.12823	6370.42102	97.12823
65550.00000	96.85465	6368.84162	96.85465
65600.00000	96.71800	6367.35095	96.71800
65650.00000	96.47430	6366.21618	96.47430
65700.00000	96.23795	6365.00683	96.23795
65750.00000	96.15643	6362.65798	96.15643
65800.00000	96.08850	6361.08306	96.08850
65850.00000	95.87823	6359.34042	95.87823
65900.00000	95.74394	6358.08991	95.74394
65950.00000	95.53076	6356.17744	95.53076
66000.00000	95.41718	6354.16342	95.41718
66050.00000	95.18329	6352.80376	95.18329
66100.00000	95.13724	6350.47090	95.13724
66150.00000	94.89446	6350.42317	94.89446
66200.00000	94.63406	6348.90177	94.63406
66250.00000	94.62493	6347.86053	94.62493
66300.00000	94.56263	6346.71132	94.56263
66350.00000	94.48100	6345.80510	94.48100
66400.00000	94.43714	6345.30628	94.43714
66450.00000	94.38639	6344.18883	94.38639
66500.00000	94.45726	6342.15763	94.45726
66550.00000	94.32674	6340.73423	94.32674
66600.00000	94.29637	6339.57182	94.29637
66650.00000	94.49941	6338.62718	94.49941
66700.00000	94.58273	6337.14348	94.58273
66750.00000	94.42467	6335.90449	94.42467
66800.00000	94.54680	6334.26725	94.54680
66850.00000	94.71021	6332.69306	94.71021
66900.00000	94.83783	6330.61186	94.83783
66950.00000	95.00413	6328.10373	95.00413
67000.00000	95.01192	6326.12270	95.01192
67050.00000	95.10447	6323.69844	95.10447
67100.00000	95.12808	6320.63221	95.12808
67150.00000	95.32170	6318.44924	95.32170
67200.00000	95.23050	6316.07834	95.23050
67250.00000	95.22963	6313.04265	95.22963
67300.00000	95.14773	6310.02358	95.14773
67350.00000	95.17708	6307.55068	95.17708
67400.00000	95.13213	6304.79621	95.13213
67450.00000	95.07093	6302.52832	95.07093
67500.00000	94.96575	6300.29749	94.96575
67550.00000	95.07479	6297.93714	95.07479
67600.00000	94.94153	6295.66439	94.94153
67650.00000	94.94247	6293.06181	94.94247
67700.00000	95.01504	6290.20336	95.01504
67750.00000	94.92411	6287.80588	94.92411
67800.00000	94.81276	6285.75547	94.81276
67850.00000	94.83000	6282.47038	94.83000
67900.00000	94.76086	6280.00423	94.76086
67950.00000	94.62014	6277.53225	94.62014
68000.00000	94.54600	6275.49057	94.54600
68050.00000	94.46243	6272.45906	94.46243
68100.00000	94.38200	6270.19623	94.38200
68150.00000	94.26033	6267.75014	94.26033
68200.00000	94.12617	6266.35713	94.12617
68250.00000	94.09593	6263.97230	94.09593
68300.00000	94.13073	6262.34792	94.13073
68350.00000	93.99815	6260.60987	93.99815
68400.00000	93.96085	6258.46775	93.96085
68450.00000	94.00609	6256.76784	94.00609
68500.00000	93.99310	6254.29363	93.99310
68550.00000	93.99001	6252.23268	93.99001
68600.00000	94.01184	6250.38296	94.01184
68650.00000	94.06685	6248.00106	94.06685
68700.00000	94.04767	6245.53186	94.04767
68750.00000	93.99299	6243.31522	93.99299
68800.00000	94.01944	6241.20080	94.01944
68850.00000	94.03672	6238.63895	94.03672
68900.00000	94.08130	6237.32212	94.08130
68950.00000	94.15188	6235.10400	94.15188
69000.00000	94.23553	6233.02430	94.23553
69050.00000	94.30789	6230.45898	94.30789
69100.00000	94.44196	6228.29359	94.44196
69150.00000	94.53841	6225.00837	94.53841
69200.00000	94.73639	6222.75745	94.73639
69250.00000	94.84065	6219.96206	94.84065
69300.00000	94.90978	6216.78372	94.90978
69350.00000	95.10677	6213.27361	95.10677
69400.00000	95.18645	6209.90288	95.18645
69450.00000	95.33290	6205.96264	95.33290
69500.00000	95.44577	6202.16565	95.44577
69550.00000	95.44159	6197.91085	95.44159
69600.00000	95.49434	6194.06597	95.49434
69650.00000	95.51691	6190.16376	95.51691
69700.00000	95.55681	6185.18502	95.55681
69750.00000	95.56632	6180.81712	95.56632
69800.00000	95.53043	6176.30237	95.53043
69850.00000	95.50335	6171.97112	95.50335
69900.00000	95.37602	6167.46938	95.37602
69950.00000	95.30632	6162.69072	95.30632
70000.00000	95.18154	6157.89884	95.18154
70050.00000	95.07098	6152.99435	95.07098
70100.00000	94.78402	6147.45863	94.78402
70150.00000	94.60539	6142.19792	94.60539
70200.00000	94.36744	6137.90997	94.36744
70250.00000	93.99457	6132.83964	93.99457
70300.00000	93.55631	6127.63178	93.55631
70350.00000	93.20626	6123.09623	93.20626
70400.00000	92.71798	6118.07047	92.71798
70450.00000	92.22511	6113.79925	92.22511
70500.00000	91.63879	6108.60317	91.63879
70550.00000	90.93464	6105.22951	90.93464
70600.00000	90.23190	6102.61718	90.23190
70650.00000	89.55906	6099.17750	89.55906
70700.00000	88.69710	6096.85890	88.69710
70750.00000	87.91482	6095.94950	87.91482
70800.00000	86.99336	6095.62569	86.99336
70850.00000	86.33986	6097.33577	86.33986
70900.00000	85.83099	6100.62983	85.83099
70950.00000	85.99895	6103.06796	85.99895
71000.00000	86.36688	6104.54806	86.36688
71050.00000	86.84633	6103.43343	86.84633
71100.00000	87.34168	6099.63701	87.34168
71150.00000	87.58694	6095.79082	87.58694
71200.00000	87.65617	6090.30162	87.65617
71250.00000	87.86603	6085.44581	87.86603
71300.00000	87.55040	6079.87669	87.55040
71350.00000	87.20550	6074.13980	87.20550
71400.00000	86.93308	6067.18353	86.93308
71450.00000	86.56549	6064.38430	86.56549
71500.00000	86.06472	6056.68549	86.06472
71550.00000	85.70685	6052.94233	85.70685
71600.00000	84.94475	6048.22566	84.94475
71650.00000	84.54159	6041.64216	84.54159
71700.00000	83.88875	6036.83466	83.88875
71750.00000	83.04520	6031.11037	83.04520
71800.00000	82.02094	6026.60673	82.02094
71850.00000	81.85883	6023.31894	81.85883
71900.00000	80.28796	6016.49017	80.28796
71950.00000	79.63165	6009.53991	79.63165
72000.00000	78.39261	6012.77107	78.39261
72050.00000	76.81080	6004.32230	76.81080
72100.00000	76.79706	6000.64725	76.79706
72150.00000	75.77779	6004.08215	75.77779
72200.00000	75.05325	5990.77004	75.05325
72250.00000	75.09640	5986.97373	75.09640
72300.00000	73.01837	5984.11423	73.01837
72350.00000	72.75464	5971.08928	72.75464
72400.00000	72.98035	5966.33938	72.98035
72450.00000	72.10355	5947.09323	72.10355
72500.00000	72.97986	5929.29634	72.97986
72550.00000	72.25931	5931.36148	72.25931
72600.00000	72.99249	5901.83651	72.99249
72650.00000	74.95379	5899.24141	74.95379
72700.00000	73.26915	5880.52202	73.26915
72750.00000	76.79775	5871.53227	76.79775
72800.00000	77.35872	5867.92965	77.35872
72850.00000	78.17176	5848.18941	78.17176
72900.00000	80.14346	5845.48017	80.14346
72950.00000	79.10487	5834.22789	79.10487
73000.00000	80.97565	5824.90314	80.97565
73050.00000	81.95236	5825.58087	81.95236
73100.00000	81.69463	5812.57381	81.69463
73150.00000	83.00761	5806.93670	83.00761
73200.00000	82.97315	5802.48686	82.97315
73250.00000	83.14742	5793.50807	83.14742
73300.00000	84.45162	5791.03540	84.45162
73350.00000	84.11418	5787.01216	84.11418
73400.00000	84.95987	5779.30247	84.95987
73450.00000	85.16993	5776.19408	85.16993
73500.00000	84.95883	5767.20245	84.95883
73550.00000	85.98268	5763.47423	85.98268
73600.00000	85.57312	5759.08640	85.57312
73650.00000	85.59895	5754.64436	85.59895
73700.00000	86.61327	5750.62218	86.61327
73750.00000	86.00666	5747.04032	86.00666
73800.00000	86.37660	5738.66059	86.37660
73850.00000	86.89404	5737.89430	86.89404
73900.00000	86.22518	5729.46921	86.22518
73950.00000	87.24985	5726.48502	87.24985
74000.00000	87.18069	5725.40764	87.18069
74050.00000	86.72934	5714.87875	86.72934
74100.00000	87.48570	5711.08040	87.48570
74150.00000	87.32795	5705.69412	87.32795
74200.00000	87.30961	5696.84127	87.30961
74250.00000	87.44072	5693.90080	87.44072
74300.00000	87.36749	5674.95223	87.36749
74350.00000	87.85336	5662.53740	87.85336
74400.00000	85.75703	5617.72721	85.75703
74450.00000	81.41337	5444.46981	81.41337
74500.00000	86.86645	5381.95383	86.86645
74550.00000	85.56338	5361.62884	85.56338
74600.00000	84.78818	5338.33546	84.78818
74650.00000	86.64760	5337.30172	86.64760
74700.00000	83.88996	5333.84099	83.88996
74750.00000	85.93043	5321.33546	85.93043
74800.00000	85.69438	5331.35666	85.69438
74850.00000	83.91893	5318.87425	83.91893
74900.00000	86.41600	5313.72409	86.41600
74950.00000	84.43610	5321.98965	84.43610
75000.00000	84.67889	5304.50601	84.67889
75050.00000	85.98094	5311.92610	85.98094
75100.00000	83.97307	5312.57300	83.97307
75150.00000	84.91721	5296.28313	84.91721
75200.00000	85.60471	5306.42061	85.60471
75250.00000	83.21924	5296.75238	83.21924
75300.00000	85.36034	5289.62279	85.36034
75350.00000	84.28032	5302.08237	84.28032
75400.00000	83.44770	5283.97039	83.44770
75450.00000	85.51103	5290.22285	85.51103
75500.00000	82.91164	5296.92892	82.91164
75550.00000	83.85957	5273.97897	83.85957
75600.00000	85.12047	5292.03767	85.12047
75650.00000	82.02261	5286.34917	82.02261
75700.00000	84.78013	5274.49889	84.78013
75750.00000	83.93730	5293.24069	83.93730
75800.00000	81.89548	5274.57873	81.89548
75850.00000	85.54523	5275.20238	85.54523
75900.00000	83.14008	5290.89991	83.14008
75950.00000	83.70366	5262.59568	83.70366
76000.00000	85.66835	5280.85252	85.66835
76050.00000	81.80329	5281.41203	81.80329
76100.00000	85.43707	5260.18217	85.43707
76150.00000	85.48962	5283.04617	85.48962
76200.00000	82.28704	5260.81513	82.28704
76250.00000	86.26378	5261.71544	86.26378
76300.00000	84.08405	5279.89944	84.08405
76350.00000	84.06219	5242.29378	84.06219
76400.00000	86.91378	5262.40622	86.91378
76450.00000	81.97781	5268.26386	81.97781
76500.00000	85.76957	5240.98352	85.76957
76550.00000	85.93188	5263.17066	85.93188
76600.00000	81.15912	5241.00066	81.15912
76650.00000	86.52637	5237.52807	86.52637
76700.00000	83.81773	5263.42941	83.81773
76750.00000	83.09485	5222.27987	83.09485
76800.00000	86.71099	5244.02329	86.71099
76850.00000	81.17160	5259.13720	81.17160
76900.00000	85.05304	5217.35718	85.05304
76950.00000	85.37565	5252.26454	85.37565
77000.00000	79.62086	5231.47061	79.62086
77050.00000	86.10163	5226.67101	86.10163
77100.00000	84.00534	5254.94885	84.00534
77150.00000	81.07307	5213.86067	81.07307
77200.00000	86.54573	5234.17869	86.54573
77250.00000	81.59844	5253.94677	81.59844
77300.00000	84.16083	5211.48198	84.16083
77350.00000	86.33252	5240.50044	86.33252
77400.00000	79.75162	5230.99642	79.75162
77450.00000	85.93851	5215.49562	85.93851
77500.00000	84.96605	5248.51488	84.96605
77550.00000	82.25449	5214.81888	82.25449
77600.00000	87.02883	5223.48186	87.02883
77650.00000	83.64664	5240.12097	83.64664
77700.00000	85.18306	5208.83594	85.18306
77750.00000	87.11030	5230.15818	87.11030
77800.00000	82.47166	5222.44423	82.47166
77850.00000	86.96367	5209.58910	86.96367
77900.00000	86.49925	5231.02316	86.49925
77950.00000	84.30343	5205.53873	84.30343
78000.00000	87.98679	5211.37832	87.98679
78050.00000	85.50823	5221.50677	85.50823
78100.00000	87.03225	5198.65759	87.03225
78150.00000	88.34100	5212.03390	88.34100
78200.00000	85.94892	5203.30659	85.94892
78250.00000	88.65142	5196.59030	88.65142
78300.00000	88.12162	5205.93077	88.12162
78350.00000	87.47483	5191.05667	87.47483
78400.00000	89.55239	5194.44446	89.55239
78450.00000	87.84796	5195.27174	87.84796
78500.00000	89.34502	5182.31385	89.34502
78550.00000	89.65183	5191.52144	89.65183
78600.00000	88.59594	5179.51206	88.59594
78650.00000	90.05637	5177.14767	90.05637
78700.00000	89.49348	5178.63710	89.49348
78750.00000	89.95529	5167.89530	89.95529
78800.00000	90.50146	5171.42152	90.50146
78850.00000	89.81770	5163.63571	89.81770
78900.00000	90.74796	5158.59807	90.74796
78950.00000	90.53648	5158.12309	90.53648
79000.00000	90.51701	5150.05347	90.51701
79050.00000	91.05311	5149.33414	91.05311
79100.00000	90.35465	5144.89220	90.35465
79150.00000	91.10422	5139.43290	91.10422
79200.00000	90.98015	5138.12130	90.98015
79250.00000	90.62566	5130.91320	90.62566
79300.00000	91.14851	5128.75562	91.14851
79350.00000	90.41359	5125.65986	90.41359
79400.00000	90.85631	5119.94048	90.85631
79450.00000	90.71728	5118.69579	90.71728
79500.00000	90.56674	5113.16271	90.56674
79550.00000	90.80818	5111.33549	90.80818
79600.00000	90.35679	5106.72752	90.35679
79650.00000	90.54351	5102.80169	90.54351
79700.00000	90.37247	5099.81390	90.37247
79750.00000	90.16554	5095.95011	90.16554
79800.00000	90.22800	5092.24105	90.22800
79850.00000	89.90989	5089.92240	89.90989
79900.00000	89.97010	5085.59475	89.97010
79950.00000	89.83734	5082.85907	89.83734
80000.00000	89.48418	5079.83019	89.48418
80050.00000	89.48726	5076.39139	89.48726
80100.00000	89.03432	5072.29856	89.03432
80150.00000	88.71385	5069.02493	88.71385
80200.00000	88.89378	5068.83294	88.89378
80250.00000	88.44933	5064.05257	88.44933
80300.00000	88.23105	5063.77351	88.23105
80350.00000	88.10637	5060.17227	88.10637
80400.00000	87.87205	5057.85940	87.87205
80450.00000	87.84546	5057.99645	87.84546
80500.00000	87.67749	5053.93197	87.67749
80550.00000	87.57503	5050.59284	87.57503
80600.00000	87.38419	5048.15362	87.38419
80650.00000	87.18690	5048.02518	87.18690
80700.00000	87.02397	5045.62224	87.02397
80750.00000	87.18123	5043.15169	87.18123
80800.00000	86.58039	5042.13102	86.58039
80850.00000	86.65822	5040.58369	86.65822
80900.00000	86.49734	5039.66526	86.49734
80950.00000	86.21030	5038.80015	86.21030
81000.00000	86.10082	5037.17148	86.10082
81050.00000	86.21519	5034.98067	86.21519
81100.00000	86.03022	5034.52288	86.03022
81150.00000	86.17573	5033.51440	86.17573
81200.00000	85.97553	5031.48145	85.97553
81250.00000	85.91142	5030.55619	85.91142
81300.00000	86.01677	5030.64739	86.01677
81350.00000	85.98320	5028.41981	85.98320
81400.00000	85.88226	5028.55935	85.88226
81450.00000	86.01039	5027.18930	86.01039
81500.00000	86.09273	5026.51197	86.09273
81550.00000	86.26768	5026.23225	86.26768
81600.00000	86.44489	5024.68673	86.44489
81650.00000	86.44800	5022.84770	86.44800
81700.00000	86.93760	5022.37573	86.93760
81750.00000	87.18948	5021.92356	87.18948
81800.00000	87.53221	5018.88334	87.53221
81850.00000	87.82855	5017.95091	87.82855
81900.00000	88.40799	5013.03801	88.40799
81950.00000	88.67698	5008.55328	88.67698
82000.00000	88.97903	5004.37900	88.97903
82050.00000	89.17282	4996.59068	89.17282
82100.00000	89.25567	4991.92867	89.25567
82150.00000	88.84730	4985.11459	88.84730
82200.00000	88.56302	4979.26917	88.56302
82250.00000	87.79198	4975.30871	87.79198
82300.00000	86.94130	4971.38639	86.94130
82350.00000	86.20486	4971.37828	86.20486
82400.00000	85.43198	4973.73895	85.43198
82450.00000	85.05137	4975.45732	85.05137
82500.00000	84.93328	4977.59405	84.93328
82550.00000	85.18381	4979.95420	85.18381
82600.00000	85.26787	4981.85908	85.26787
82650.00000	85.62369	4982.84399	85.62369
82700.00000	86.04403	4982.18083	86.04403
82750.00000	86.48147	4980.63170	86.48147
82800.00000	86.87736	4979.43207	86.87736
82850.00000	87.43277	4977.46229	87.43277
82900.00000	87.73473	4975.29963	87.73473
82950.00000	88.18666	4972.57376	88.18666
83000.00000	88.71335	4970.35109	88.71335
83050.00000	89.14135	4967.66121	89.14135
83100.00000	89.65511	4964.73599	89.65511
83150.00000	90.15894	4962.03652	90.15894
83200.00000	90.61579	4959.61875	90.61579
83250.00000	91.03247	4956.49033	91.03247
83300.00000	91.45221	4953.42128	91.45221
83350.00000	91.74426	4951.00027	91.74426
83400.00000	92.21751	4947.87985	92.21751
83450.00000	92.59486	4944.60270	92.59486
83500.00000	92.87372	4940.70419	92.87372
83550.00000	93.18026	4936.90287	93.18026
83600.00000	93.44111	4933.75693	93.44111
83650.00000	93.66073	4929.08760	93.66073
83700.00000	94.00309	4926.07703	94.00309
83750.00000	94.24912	4921.52801	94.24912
83800.00000	94.48265	4917.40081	94.48265
83850.00000	94.62576	4913.21762	94.62576
83900.00000	94.87810	4908.76286	94.87810
83950.00000	95.05615	4904.29973	95.05615
84000.00000	95.34460	4898.93319	95.34460
84050.00000	95.45081	4894.91449	95.45081
84100.00000	95.60260	4889.70956	95.60260
84150.00000	95.79232	4884.73933	95.79232
84200.00000	95.96202	4879.89324	95.96202
84250.00000	96.02831	4874.73492	96.02831
84300.00000	96.10031	4869.55162	96.10031
84350.00000	96.30944	4864.43030	96.30944
84400.00000	96.31739	4859.36250	96.31739
84450.00000	96.38821	4853.99731	96.38821
84500.00000	96.47543	4848.74005	96.47543
84550.00000	96.47737	4843.16954	96.47737
84600.00000	96.50455	4837.82553	96.50455
84650.00000	96.51566	4832.34967	96.51566
84700.00000	96.53054	4827.03719	96.53054
84750.00000	96.45138	4821.14180	96.45138
84800.00000	96.43531	4815.09313	96.43531
84850.00000	96.35310	4809.82008	96.35310
84900.00000	96.30846	4803.93328	96.30846
84950.00000	96.23281	4798.41135	96.23281
85000.00000	96.05943	4792.37970	96.05943
85050.00000	95.99141	4786.87823	95.99141
85100.00000	95.83525	4780.80318	95.83525
85150.00000	95.68171	4774.73595	95.68171
85200.00000	95.48506	4769.44374	95.48506
85250.00000	95.74438	4762.78209	95.74438
85300.00000	95.11676	4757.15152	95.11676
85350.00000	94.88865	4751.30909	94.88865
85400.00000	94.67918	4745.13298	94.67918
85450.00000	94.37378	4739.49062	94.37378
85500.00000	94.06598	4733.24754	94.06598
85550.00000	93.82962	4727.15432	93.82962
85600.00000	93.42429	4721.63796	93.42429
85650.00000	93.17527	4715.50717	93.17527
85700.00000	92.76085	4709.56953	92.76085
85750.00000	92.52694	4703.97819	92.52694
85800.00000	92.18174	4699.46521	92.18174
85850.00000	91.63030	4692.39971	91.63030
85900.00000	91.34480	4685.69440	91.34480
85950.00000	90.95328	4680.54719	90.95328
86000.00000	90.73786	4676.12661	90.73786
86050.00000	90.19371	4669.56859	90.19371
86100.00000	90.12971	4664.29029	90.12971
86150.00000	89.65725	4656.83094	89.65725
86200.00000	89.48420	4650.96507	89.48420
86250.00000	88.87942	4644.66574	88.87942
86300.00000	88.43961	4637.89580	88.43961
86350.00000	87.85367	4629.68897	87.85367
86400.00000	86.87676	4620.31608	86.87676
86450.00000	86.30346	4616.21148	86.30346
86500.00000	85.67259	4612.29821	85.67259
86550.00000	85.31862	4604.75003	85.31862
86600.00000	84.46881	4597.97532	84.46881
86650.00000	84.22082	4593.15543	84.22082
86700.00000	83.43746	4588.67278	83.43746
86750.00000	83.04653	4582.18383	83.04653
86800.00000	82.58231	4576.07657	82.58231
86850.00000	81.62628	4569.44900	81.62628
86900.00000	81.28266	4562.59640	81.28266
86950.00000	80.81975	4558.10639	80.81975
87000.00000	80.68348	4553.62377	80.68348
87050.00000	79.98143	4544.83057	79.98143
87100.00000	79.45676	4539.86206	79.45676
87150.00000	78.78267	4533.12892	78.78267
87200.00000	78.74466	4529.00095	78.74466
87250.00000	78.23289	4522.48782	78.23289
87300.00000	77.72677	4512.66192	77.72677
87350.00000	77.31589	4509.17365	77.31589
87400.00000	76.57582	4503.05352	76.57582
87450.00000	76.18382	4495.62517	76.18382
87500.00000	76.02826	4490.35764	76.02826
87550.00000	75.86764	4486.10620	75.86764
87600.00000	75.34320	4478.57868	75.34320
87650.00000	75.40529	4471.86638	75.40529
87700.00000	74.63718	4466.39622	74.63718
87750.00000	74.18786	4460.03688	74.18786
87800.00000	73.62421	4458.00615	73.62421
87850.00000	73.92768	4452.11789	73.92768
87900.00000	73.53056	4445.68777	73.53056
87950.00000	72.95703	4442.55234	72.95703
88000.00000	73.72665	4435.15885	73.72665
88050.00000	72.58522	4431.63137	72.58522
88100.00000	72.49507	4429.25939	72.49507
88150.00000	72.44825	4420.63586	72.44825
88200.00000	71.96753	4420.31556	71.96753
88250.00000	71.46851	4415.91648	71.46851
88300.00000	71.22415	4411.25591	71.22415
88350.00000	69.77877	4412.75927	69.77877
88400.00000	69.74685	4408.23420	69.74685
88450.00000	69.69436	4408.72062	69.69436
88500.00000	68.87381	4403.12945	68.87381
88550.00000	68.56872	4408.56914	68.56872
88600.00000	67.81540	4398.43389	67.81540
88650.00000	67.31647	4401.59524	67.31647
88700.00000	68.25646	4405.33036	68.25646
88750.00000	68.14727	4408.76703	68.14727
88800.00000	68.47104	4407.13695	68.47104
88850.00000	68.29724	4402.65549	68.29724
88900.00000	68.46990	4406.36929	68.46990
88950.00000	68.28918	4407.44638	68.28918
89000.00000	68.73482	4406.70993	68.73482
89050.00000	69.44843	4410.00481	69.44843
89100.00000	69.54034	4409.82831	69.54034
89150.00000	69.77957	4407.31624	69.77957
89200.00000	70.03051	4404.64638	70.03051
89250.00000	71.10465	4399.76128	71.10465
89300.00000	70.60551	4402.03556	70.60551
89350.00000	70.84694	4401.06995	70.84694
89400.00000	71.37198	4401.01722	71.37198
89450.00000	71.29264	4392.32709	71.29264
89500.00000	72.02208	4393.23975	72.02208
89550.00000	71.80381	4390.73045	71.80381
89600.00000	72.14882	4385.42565	72.14882
89650.00000	72.51952	4384.18381	72.51952
89700.00000	72.48072	4385.12644	72.48072
89750.00000	72.39962	4380.55357	72.39962
89800.00000	72.78197	4384.52585	72.78197
89850.00000	72.66271	4381.19873	72.66271
89900.00000	72.64644	4378.37208	72.64644
89950.00000	73.78654	4382.57109	73.78654
90000.00000	73.65716	4388.10230	73.65716
90050.00000	75.03500	4390.87906	75.03500
90100.00000	77.49467	4392.25141	77.49467
90150.00000	79.06793	4389.92033	79.06793
90200.00000	81.90539	4380.49679	81.90539
90250.00000	83.43361	4357.54708	83.43361
90300.00000	83.97714	4336.47964	83.97714
90350.00000	81.83018	4322.99415	81.83018
90400.00000	81.15208	4317.31981	81.15208
90450.00000	80.62629	4311.59379	80.62629
90500.00000	79.60875	4306.56403	79.60875
90550.00000	79.38122	4301.19284	79.38122
90600.00000	78.95550	4299.27533	78.95550
90650.00000	79.15373	4293.32313	79.15373
90700.00000	78.52696	4287.81082	78.52696
90750.00000	78.33397	4286.90802	78.33397
90800.00000	77.98519	4282.80368	77.98519
90850.00000	78.28469	4282.00411	78.28469
90900.00000	78.20472	4273.51714	78.20472
90950.00000	77.85488	4271.25571	77.85488
91000.00000	77.73927	4270.14636	77.73927
91050.00000	77.71005	4266.39515	77.71005
91100.00000	77.56787	4258.23988	77.56787
91150.00000	77.16496	4257.94301	77.16496
91200.00000	76.73527	4253.42337	76.73527
91250.00000	76.60936	4248.85486	76.60936
91300.00000	75.84067	4244.51444	75.84067
91350.00000	75.38891	4241.12591	75.38891
91400.00000	75.19658	4237.14759	75.19658
91450.00000	74.83353	4239.97905	74.83353
91500.00000	74.55636	4234.32856	74.55636
91550.00000	73.51563	4230.02089	73.51563
91600.00000	73.71960	4232.22759	73.71960
91650.00000	73.13316	4227.11792	73.13316
91700.00000	73.00445	4227.99666	73.00445
91750.00000	72.27171	4228.55269	72.27171
91800.00000	71.93003	4230.96721	71.93003
91850.00000	71.21014	4224.40359	71.21014
91900.00000	71.89515	4226.66865	71.89515
91950.00000	70.29713	4232.70513	70.29713
92000.00000	71.17228	4223.48066	71.17228
92050.00000	70.37916	4223.92452	70.37916
92100.00000	70.22863	4223.11226	70.22863
92150.00000	69.83683	4221.83778	69.83683
92200.00000	69.22261	4226.65865	69.22261
92250.00000	69.25658	4224.79772	69.25658
92300.00000	69.35331	4233.45487	69.35331
92350.00000	69.92858	4235.25681	69.92858
92400.00000	69.27401	4228.41645	69.27401
92450.00000	69.83130	4226.41487	69.83130
92500.00000	68.99924	4234.42778	68.99924
92550.00000	68.51836	4230.98230	68.51836
92600.00000	69.89592	4233.17178	69.89592
92650.00000	69.82028	4239.83180	69.82028
92700.00000	69.68469	4240.95645	69.68469
92750.00000	69.55419	4239.05390	69.55419
92800.00000	69.98675	4239.35573	69.98675
92850.00000	69.66347	4241.04495	69.66347
92900.00000	70.83244	4244.09234	70.83244
92950.00000	70.92274	4242.56241	70.92274
93000.00000	71.45866	4243.13966	71.45866
93050.00000	71.41072	4243.52331	71.41072
93100.00000	71.54526	4239.41411	71.54526
93150.00000	72.21700	4237.72815	72.21700
93200.00000	72.41234	4237.74408	72.41234
93250.00000	72.86764	4236.28071	72.86764
93300.00000	73.32945	4243.59093	73.32945
93350.00000	73.30140	4234.38796	73.30140
93400.00000	73.86917	4237.97263	73.86917
93450.00000	74.03533	4237.47545	74.03533
93500.00000	74.50945	4233.62870	74.50945
93550.00000	74.68743	4224.43021	74.68743
93600.00000	75.23735	4228.29012	75.23735
93650.00000	75.54414	4225.90330	75.54414
93700.00000	75.70105	4226.93485	75.70105
93750.00000	75.76945	4226.69382	75.76945
93800.00000	76.12633	4218.65348	76.12633
93850.00000	76.51176	4218.98359	76.51176
93900.00000	76.92333	4217.29339	76.92333
93950.00000	76.95465	4212.05631	76.95465
94000.00000	77.08032	4211.15475	77.08032
94050.00000	77.06050	4208.61391	77.06050
94100.00000	77.81449	4203.89157	77.81449
94150.00000	77.58849	4202.25702	77.58849
94200.00000	78.28509	4200.04011	78.28509
94250.00000	78.35187	4197.95428	78.35187
94300.00000	78.72751	4196.18379	78.72751
94350.00000	78.78402	4188.61884	78.78402
94400.00000	79.04765	4185.94935	79.04765
94450.00000	79.31958	4181.65613	79.31958
94500.00000	79.64142	4176.86135	79.64142
94550.00000	79.27570	4173.59590	79.27570
94600.00000	79.42311	4169.78730	79.42311
94650.00000	79.64580	4166.99471	79.64580
94700.00000	79.75454	4162.31838	79.75454
94750.00000	79.42281	4157.67945	79.42281
94800.00000	79.15167	4153.01413	79.15167
94850.00000	79.48307	4149.74378	79.48307
94900.00000	79.34686	4144.28334	79.34686
94950.00000	79.16448	4142.02843	79.16448
95000.00000	79.13376	4135.55980	79.13376
95050.00000	78.98947	4135.31778	78.98947
95100.00000	79.32881	4133.45513	79.32881
95150.00000	79.10495	4130.89584	79.10495
95200.00000	78.69816	4129.49204	78.69816
95250.00000	78.52727	4122.40432	78.52727
95300.00000	78.91057	4118.43085	78.91057
95350.00000	78.54132	4114.89459	78.54132
95400.00000	78.39585	4110.63453	78.39585
95450.00000	78.91475	4110.66092	78.91475
95500.00000	79.02073	4109.47348	79.02073
95550.00000	79.08992	4105.96409	79.08992
95600.00000	79.06214	4104.26641	79.06214
95650.00000	79.00348	4101.43074	79.00348
95700.00000	79.51221	4101.95168	79.51221
95750.00000	79.44911	4098.82167	79.44911
95800.00000	78.57399	4095.10517	78.57399
95850.00000	79.92163	4095.01052	79.92163
95900.00000	80.10822	4087.26391	80.10822
95950.00000	79.99945	4091.61650	79.99945
96000.00000	80.15284	4086.78141	80.15284
96050.00000	80.62368	4078.03339	80.62368
96100.00000	82.35392	4075.67104	82.35392
96150.00000	81.44496	4065.32211	81.44496
96200.00000	82.43094	4059.21694	82.43094
96250.00000	82.46046	4052.94459	82.46046
96300.00000	82.65907	4050.07721	82.65907
96350.00000	82.85662	4043.11908	82.85662
96400.00000	82.59988	4042.40030	82.59988
96450.00000	82.29819	4042.08589	82.29819
96500.00000	83.09488	4037.02420	83.09488
96550.00000	82.11586	4032.57655	82.11586
96600.00000	82.22363	4026.01230	82.22363
96650.00000	83.21426	4015.01696	83.21426
96700.00000	80.48248	4021.30412	80.48248
96750.00000	82.76575	4011.06342	82.76575
96800.00000	82.59830	4009.60099	82.59830
96850.00000	82.49094	4002.01404	82.49094
96900.00000	84.37958	3999.77902	84.37958
96950.00000	85.09853	3999.15234	85.09853
97000.00000	85.47093	3992.54494	85.47093
97050.00000	84.56925	4001.01456	84.56925
97100.00000	86.04670	3988.24196	86.04670
97150.00000	86.77691	3974.70865	86.77691
97200.00000	87.07783	3976.62924	87.07783
97250.00000	86.71377	3948.79320	86.71377
97300.00000	86.43408	3940.48030	86.43408
97350.00000	84.21963	3915.88042	84.21963
97400.00000	82.95770	3908.10399	82.95770
97450.00000	78.77801	3908.65475	78.77801
97500.00000	77.10785	3919.43030	77.10785
97550.00000	76.38450	3931.87970	76.38450
97600.00000	76.83874	3921.64769	76.83874
97650.00000	74.42220	3926.31879	74.42220
97700.00000	76.13549	3921.62544	76.13549
97750.00000	74.46206	3926.36613	74.46206
97800.00000	74.04385	3925.54882	74.04385
97850.00000	74.37946	3924.06781	74.37946
97900.00000	74.82832	3915.48592	74.82832
97950.00000	74.38458	3927.89216	74.38458
98000.00000	74.43484	3917.05768	74.43484
98050.00000	73.58027	3914.17172	73.58027
98100.00000	72.61435	3924.07910	72.61435
98150.00000	73.41812	3925.78587	73.41812
98200.00000	72.75612	3913.54168	72.75612
98250.00000	73.55856	3920.61644	73.55856
98300.00000	72.95059	3914.06452	72.95059
98350.00000	72.50900	3913.03914	72.50900
98400.00000	72.48198	3909.64643	72.48198
98450.00000	71.98855	3924.13067	71.98855
98500.00000	72.87384	3905.98620	72.87384
98550.00000	70.55320	3907.00371	70.55320
98600.00000	70.97217	3913.59700	70.97217
98650.00000	69.02426	3906.77466	69.02426
98700.00000	69.00185	3901.45723	69.00185
98750.00000	68.56214	3898.16890	68.56214
98800.00000	68.29128	3885.10989	68.29128
98850.00000	69.09159	3898.13492	69.09159
98900.00000	66.25110	3885.60827	66.25110
98950.00000	68.00805	3888.32970	68.00805
99000.00000	67.01784	3883.55993	67.01784
99050.00000	65.22705	3877.18704	65.22705
99100.00000	64.10672	3863.95445	64.10672
99150.00000	66.15908	3866.80039	66.15908
99200.00000	63.66870	3873.97705	63.66870
99250.00000	64.71065	3846.31025	64.71065
99300.00000	60.44465	3847.24168	60.44465
99350.00000	62.42952	3860.51987	62.42952
99400.00000	61.39543	3810.44059	61.39543
99450.00000	62.40950	3827.82331	62.40950
99500.00000	59.43920	3833.51779	59.43920
99550.00000	58.97526	3862.75472	58.97526
99600.00000	54.59851	3837.63877	54.59851
99650.00000	60.18379	3832.94151	60.18379
99700.00000	55.59201	3793.52795	55.59201
99750.00000	55.98643	3833.16147	55.98643
99800.00000	59.68886	3803.30666	59.68886
99850.00000	58.20270	3829.78127	58.20270
99900.00000	55.43039	3778.85537	55.43039
99950.00000	58.59061	3782.52839	58.59061
