---ACOUSTIC CALIBRATION---
Filename: C:\Data\AZH DATA\AZH82\RightPrimary.calib
Date: 8/27/2019 4:49:12 PM
Format: 4
Probe Tube Correction File: C:\Data\Probe Tube Calibrations\50_ProbeTube.calib
Experiment VIs: 850
EPL_CFTS.exe V12.0.1 (2012)
DAQmx V9.6

Attenuation (dB): 40.000000
Min Freq (Hz): 50.000000
Max Freq (Hz): 49950.000000
Freq Step (Hz): 50.000000
Sample Rate (Hz): 100000.000000
[Smoothing]
Method=None
MA.Iterations=0
MA.Length=0
Loess.Length=0
Loess.Type=Linear
Loess.Robust=FALSE


Freq(Hz)	Mag(dB)	Phase(deg)	Unsmoothed(dB)

50.00000	105.78886	486.09095	105.78886
100.00000	77.99571	324.04626	77.99571
150.00000	70.50949	171.77427	70.50949
200.00000	76.30274	154.26803	76.30274
250.00000	86.35107	134.71719	86.35107
300.00000	78.19217	57.28044	78.19217
350.00000	86.63736	44.70910	86.63736
400.00000	79.93476	36.19880	79.93476
450.00000	85.71401	10.22754	85.71401
500.00000	85.94535	13.59930	85.94535
550.00000	88.19416	17.91070	88.19416
600.00000	92.61745	13.16219	92.61745
650.00000	95.11038	-1.05966	95.11038
700.00000	97.42038	-17.24985	97.42038
750.00000	99.14609	-36.42309	99.14609
800.00000	99.94078	-64.79443	99.94078
850.00000	99.52897	-76.49758	99.52897
900.00000	97.98443	-98.13256	97.98443
950.00000	96.06207	-97.06215	96.06207
1000.00000	94.58516	-95.87021	94.58516
1050.00000	92.34736	-81.42189	92.34736
1100.00000	94.83514	-57.21918	94.83514
1150.00000	97.63915	-55.25544	97.63915
1200.00000	100.31155	-58.01129	100.31155
1250.00000	101.79332	-66.79835	101.79332
1300.00000	103.43637	-72.93523	103.43637
1350.00000	104.63955	-83.00168	104.63955
1400.00000	105.42634	-89.78531	105.42634
1450.00000	106.40379	-95.88184	106.40379
1500.00000	107.18395	-100.82531	107.18395
1550.00000	108.30085	-111.76956	108.30085
1600.00000	109.63095	-121.49195	109.63095
1650.00000	110.68429	-138.66592	110.68429
1700.00000	109.28389	-148.54798	109.28389
1750.00000	109.10107	-153.79508	109.10107
1800.00000	108.69965	-158.89126	108.69965
1850.00000	108.85969	-158.53639	108.85969
1900.00000	109.99575	-162.68667	109.99575
1950.00000	110.76895	-175.58921	110.76895
2000.00000	109.80383	-187.14489	109.80383
2050.00000	108.65028	-181.80818	108.65028
2100.00000	110.31316	-183.54213	110.31316
2150.00000	111.02471	-195.06181	111.02471
2200.00000	110.94658	-204.72469	110.94658
2250.00000	110.34415	-211.64947	110.34415
2300.00000	110.48561	-217.06563	110.48561
2350.00000	110.22654	-223.65560	110.22654
2400.00000	109.99040	-229.22294	109.99040
2450.00000	109.74203	-235.83681	109.74203
2500.00000	109.29056	-240.40147	109.29056
2550.00000	108.89415	-246.58380	108.89415
2600.00000	108.33243	-250.77520	108.33243
2650.00000	107.87543	-254.77944	107.87543
2700.00000	107.16627	-258.93020	107.16627
2750.00000	106.75891	-261.95820	106.75891
2800.00000	106.09684	-264.64264	106.09684
2850.00000	105.50058	-266.50531	105.50058
2900.00000	104.89653	-268.88291	104.89653
2950.00000	104.19435	-269.57554	104.19435
3000.00000	103.51548	-270.99682	103.51548
3050.00000	102.56170	-271.81645	102.56170
3100.00000	101.70745	-271.46194	101.70745
3150.00000	100.32118	-269.17976	100.32118
3200.00000	98.80354	-260.94011	98.80354
3250.00000	98.09186	-247.51639	98.09186
3300.00000	97.88610	-233.32132	97.88610
3350.00000	98.76109	-215.47163	98.76109
3400.00000	101.18047	-201.00668	101.18047
3450.00000	103.89200	-196.44998	103.89200
3500.00000	106.41261	-196.70695	106.41261
3550.00000	108.38307	-201.32684	108.38307
3600.00000	110.03842	-205.69069	110.03842
3650.00000	111.42164	-211.29321	111.42164
3700.00000	112.68369	-216.53026	112.68369
3750.00000	113.94100	-222.17336	113.94100
3800.00000	115.11631	-228.85988	115.11631
3850.00000	116.09050	-235.76602	116.09050
3900.00000	117.02847	-242.51368	117.02847
3950.00000	117.91063	-249.79372	117.91063
4000.00000	118.70751	-257.26105	118.70751
4050.00000	119.50189	-264.60850	119.50189
4100.00000	120.31500	-272.16927	120.31500
4150.00000	121.29850	-280.65517	121.29850
4200.00000	121.98655	-290.74891	121.98655
4250.00000	122.62144	-301.86122	122.62144
4300.00000	123.01966	-313.88384	123.01966
4350.00000	123.08898	-326.08881	123.08898
4400.00000	122.91814	-337.39843	122.91814
4450.00000	122.60126	-347.78102	122.60126
4500.00000	122.20408	-356.89995	122.20408
4550.00000	121.79657	-365.91556	121.79657
4600.00000	121.33717	-374.10969	121.33717
4650.00000	120.93243	-381.96428	120.93243
4700.00000	120.47119	-390.30440	120.47119
4750.00000	119.88534	-398.83740	119.88534
4800.00000	119.10113	-407.65754	119.10113
4850.00000	117.99820	-415.43410	117.99820
4900.00000	116.68551	-421.17238	116.68551
4950.00000	115.31590	-424.47175	115.31590
5000.00000	113.97604	-425.30653	113.97604
5050.00000	112.94929	-424.93141	112.94929
5100.00000	111.79924	-420.70168	111.79924
5150.00000	111.77920	-415.78251	111.77920
5200.00000	111.07675	-410.68920	111.07675
5250.00000	112.70481	-399.55229	112.70481
5300.00000	114.80819	-409.11506	114.80819
5350.00000	114.80989	-421.34269	114.80989
5400.00000	114.24366	-428.33169	114.24366
5450.00000	113.73497	-432.42435	113.73497
5500.00000	113.33485	-435.39469	113.33485
5550.00000	113.01910	-437.86529	113.01910
5600.00000	112.76679	-440.37483	112.76679
5650.00000	112.57241	-442.79256	112.57241
5700.00000	112.36622	-445.24124	112.36622
5750.00000	112.21812	-447.49801	112.21812
5800.00000	112.05215	-449.95360	112.05215
5850.00000	111.91562	-452.31907	111.91562
5900.00000	111.78603	-454.62717	111.78603
5950.00000	111.67565	-456.96301	111.67565
6000.00000	111.57377	-459.17714	111.57377
6050.00000	111.45922	-461.38900	111.45922
6100.00000	111.41232	-463.61464	111.41232
6150.00000	111.35891	-466.08871	111.35891
6200.00000	111.32604	-468.60539	111.32604
6250.00000	111.26938	-471.33700	111.26938
6300.00000	111.20983	-474.08970	111.20983
6350.00000	111.13233	-476.96201	111.13233
6400.00000	111.03092	-479.56937	111.03092
6450.00000	110.94905	-482.37095	110.94905
6500.00000	110.83933	-485.01369	110.83933
6550.00000	110.76923	-487.44405	110.76923
6600.00000	110.67885	-490.17918	110.67885
6650.00000	110.60427	-492.65866	110.60427
6700.00000	110.52060	-495.36573	110.52060
6750.00000	110.43764	-497.92345	110.43764
6800.00000	110.39067	-500.41125	110.39067
6850.00000	110.34057	-502.90927	110.34057
6900.00000	110.28128	-505.66209	110.28128
6950.00000	110.22042	-507.86452	110.22042
7000.00000	110.20019	-510.47906	110.20019
7050.00000	110.18010	-513.21503	110.18010
7100.00000	110.17138	-516.02742	110.17138
7150.00000	110.12959	-518.82495	110.12959
7200.00000	110.09708	-521.73966	110.09708
7250.00000	110.04427	-524.69679	110.04427
7300.00000	110.01000	-527.69486	110.01000
7350.00000	109.95234	-530.68762	109.95234
7400.00000	109.90873	-533.91222	109.90873
7450.00000	109.82453	-537.15064	109.82453
7500.00000	109.81320	-540.47681	109.81320
7550.00000	109.70740	-543.47074	109.70740
7600.00000	109.58722	-546.67296	109.58722
7650.00000	109.46943	-549.67115	109.46943
7700.00000	109.39777	-552.73049	109.39777
7750.00000	109.26289	-555.86582	109.26289
7800.00000	109.14414	-558.92489	109.14414
7850.00000	109.02444	-561.90037	109.02444
7900.00000	108.93199	-564.77146	108.93199
7950.00000	108.80017	-567.78980	108.80017
8000.00000	108.69212	-570.88309	108.69212
8050.00000	108.56531	-574.30796	108.56531
8100.00000	108.41646	-576.81475	108.41646
8150.00000	108.27230	-579.72940	108.27230
8200.00000	108.15664	-582.47198	108.15664
8250.00000	108.00170	-585.69293	108.00170
8300.00000	107.85809	-588.69738	107.85809
8350.00000	107.69966	-591.50374	107.69966
8400.00000	107.53134	-594.67307	107.53134
8450.00000	107.32995	-597.66716	107.32995
8500.00000	107.14555	-600.96608	107.14555
8550.00000	106.99331	-603.95568	106.99331
8600.00000	106.82137	-607.66550	106.82137
8650.00000	106.57141	-610.72133	106.57141
8700.00000	106.39777	-614.68566	106.39777
8750.00000	106.12320	-616.88920	106.12320
8800.00000	105.89228	-620.44443	105.89228
8850.00000	105.56832	-623.58109	105.56832
8900.00000	105.28548	-626.13289	105.28548
8950.00000	105.02017	-629.21542	105.02017
9000.00000	104.60507	-631.88685	104.60507
9050.00000	104.29871	-634.77304	104.29871
9100.00000	103.96619	-637.17134	103.96619
9150.00000	103.67161	-639.83464	103.67161
9200.00000	103.42271	-642.35708	103.42271
9250.00000	103.09274	-644.94905	103.09274
9300.00000	102.88747	-647.30714	102.88747
9350.00000	102.71360	-649.12490	102.71360
9400.00000	102.39241	-650.73071	102.39241
9450.00000	102.18496	-652.13513	102.18496
9500.00000	101.98350	-652.42655	101.98350
9550.00000	101.90677	-653.03327	101.90677
9600.00000	101.84018	-654.93326	101.84018
9650.00000	101.62003	-656.81090	101.62003
9700.00000	101.39980	-657.87261	101.39980
9750.00000	101.26090	-660.49343	101.26090
9800.00000	101.04068	-661.96085	101.04068
9850.00000	100.87730	-663.46635	100.87730
9900.00000	100.59743	-665.65151	100.59743
9950.00000	100.46236	-666.90856	100.46236
10000.00000	100.34404	-669.05037	100.34404
10050.00000	100.22627	-670.53950	100.22627
10100.00000	100.06327	-672.05843	100.06327
10150.00000	99.79912	-674.23959	99.79912
10200.00000	99.62756	-675.93659	99.62756
10250.00000	99.39269	-678.02941	99.39269
10300.00000	99.32065	-680.18507	99.32065
10350.00000	99.14438	-682.28855	99.14438
10400.00000	98.93374	-684.91461	98.93374
10450.00000	98.88197	-687.62267	98.88197
10500.00000	98.81786	-689.81679	98.81786
10550.00000	98.75204	-692.32264	98.75204
10600.00000	98.64666	-694.26448	98.64666
10650.00000	98.51048	-695.87840	98.51048
10700.00000	98.39241	-698.70424	98.39241
10750.00000	98.31552	-700.90003	98.31552
10800.00000	98.08325	-702.91999	98.08325
10850.00000	97.88595	-706.17497	97.88595
10900.00000	97.68215	-708.43248	97.68215
10950.00000	97.51093	-710.56420	97.51093
11000.00000	97.33096	-713.09998	97.33096
11050.00000	97.01321	-715.55934	97.01321
11100.00000	96.75345	-718.41548	96.75345
11150.00000	96.44290	-720.25811	96.44290
11200.00000	96.23319	-722.26239	96.23319
11250.00000	95.90248	-724.72393	95.90248
11300.00000	95.54564	-727.29003	95.54564
11350.00000	95.21208	-729.17931	95.21208
11400.00000	94.80920	-731.51299	94.80920
11450.00000	94.46621	-734.31105	94.46621
11500.00000	94.22140	-735.76772	94.22140
11550.00000	93.80055	-737.26311	93.80055
11600.00000	93.53078	-739.59771	93.53078
11650.00000	93.20203	-740.23231	93.20203
11700.00000	92.87756	-741.49788	92.87756
11750.00000	92.58489	-743.23985	92.58489
11800.00000	92.19737	-745.40670	92.19737
11850.00000	91.82804	-745.52352	91.82804
11900.00000	91.26010	-747.33346	91.26010
11950.00000	90.84968	-747.62004	90.84968
12000.00000	90.43897	-747.58250	90.43897
12050.00000	90.04512	-747.47793	90.04512
12100.00000	89.67556	-748.26436	89.67556
12150.00000	89.38189	-749.04067	89.38189
12200.00000	89.10529	-749.14412	89.10529
12250.00000	88.80140	-748.79502	88.80140
12300.00000	89.53993	-748.85718	89.53993
12350.00000	88.14592	-748.40470	88.14592
12400.00000	87.87047	-746.49780	87.87047
12450.00000	87.73972	-745.81983	87.73972
12500.00000	87.46402	-746.03314	87.46402
12550.00000	87.22769	-745.35541	87.22769
12600.00000	87.14467	-745.04162	87.14467
12650.00000	87.01595	-744.05787	87.01595
12700.00000	86.94951	-744.17616	86.94951
12750.00000	86.86501	-744.01536	86.86501
12800.00000	86.70311	-742.62330	86.70311
12850.00000	86.47469	-742.18864	86.47469
12900.00000	86.46389	-741.80393	86.46389
12950.00000	86.39579	-742.73663	86.39579
13000.00000	86.27021	-742.69028	86.27021
13050.00000	86.31812	-741.77662	86.31812
13100.00000	86.23987	-742.11508	86.23987
13150.00000	86.30146	-742.18104	86.30146
13200.00000	86.33354	-739.90358	86.33354
13250.00000	86.32158	-740.32399	86.32158
13300.00000	86.25342	-738.16144	86.25342
13350.00000	86.26092	-739.03840	86.26092
13400.00000	86.35821	-738.49377	86.35821
13450.00000	86.13467	-737.26444	86.13467
13500.00000	86.36495	-737.84248	86.36495
13550.00000	86.32355	-736.23398	86.32355
13600.00000	86.34876	-734.97116	86.34876
13650.00000	86.54119	-734.99826	86.54119
13700.00000	86.47277	-735.27611	86.47277
13750.00000	86.54052	-734.85697	86.54052
13800.00000	86.55363	-736.25617	86.55363
13850.00000	86.68085	-737.64065	86.68085
13900.00000	86.76697	-736.96172	86.76697
13950.00000	87.02579	-736.92013	87.02579
14000.00000	87.45053	-735.70982	87.45053
14050.00000	87.63694	-736.90636	87.63694
14100.00000	87.36276	-736.63757	87.36276
14150.00000	87.77358	-736.74972	87.77358
14200.00000	88.11463	-737.36151	88.11463
14250.00000	88.59828	-736.07689	88.59828
14300.00000	88.70489	-737.09201	88.70489
14350.00000	88.77875	-736.41959	88.77875
14400.00000	88.73018	-737.30314	88.73018
14450.00000	88.76532	-737.00201	88.76532
14500.00000	88.81073	-738.93153	88.81073
14550.00000	89.13754	-739.06272	89.13754
14600.00000	89.08292	-741.46703	89.08292
14650.00000	89.50330	-739.58246	89.50330
14700.00000	89.26120	-743.59542	89.26120
14750.00000	89.76607	-743.79235	89.76607
14800.00000	89.79789	-743.57215	89.79789
14850.00000	90.12631	-743.61215	90.12631
14900.00000	90.34110	-744.49144	90.34110
14950.00000	90.58263	-745.15642	90.58263
15000.00000	90.83699	-745.69492	90.83699
15050.00000	90.83656	-744.36811	90.83656
15100.00000	91.11473	-744.49235	91.11473
15150.00000	91.31197	-745.60569	91.31197
15200.00000	91.47268	-744.83390	91.47268
15250.00000	91.66575	-746.12848	91.66575
15300.00000	91.98511	-746.45059	91.98511
15350.00000	92.36150	-747.97465	92.36150
15400.00000	92.58160	-746.99291	92.58160
15450.00000	92.92270	-748.11822	92.92270
15500.00000	93.37371	-749.07461	93.37371
15550.00000	93.81719	-750.36121	93.81719
15600.00000	94.17157	-751.08679	94.17157
15650.00000	94.70696	-751.04620	94.70696
15700.00000	94.94873	-753.56122	94.94873
15750.00000	95.49204	-755.25169	95.49204
15800.00000	95.98230	-756.40532	95.98230
15850.00000	96.40248	-758.82397	96.40248
15900.00000	96.71464	-762.83869	96.71464
15950.00000	97.16564	-764.52926	97.16564
16000.00000	97.49591	-767.61358	97.49591
16050.00000	97.84900	-770.16742	97.84900
16100.00000	97.95898	-773.54015	97.95898
16150.00000	98.14403	-776.93164	98.14403
16200.00000	98.40224	-780.58107	98.40224
16250.00000	98.58418	-783.18158	98.58418
16300.00000	98.91592	-786.26462	98.91592
16350.00000	99.01373	-788.71103	99.01373
16400.00000	99.09168	-791.44974	99.09168
16450.00000	99.20005	-793.87190	99.20005
16500.00000	99.44450	-796.02116	99.44450
16550.00000	99.50035	-799.95025	99.50035
16600.00000	99.65218	-802.10655	99.65218
16650.00000	99.73527	-804.58604	99.73527
16700.00000	99.86325	-806.90601	99.86325
16750.00000	99.90485	-809.89750	99.90485
16800.00000	100.03430	-812.50300	100.03430
16850.00000	100.27681	-815.18141	100.27681
16900.00000	100.38436	-817.40889	100.38436
16950.00000	100.52062	-820.26951	100.52062
17000.00000	100.49055	-822.98598	100.49055
17050.00000	100.65839	-824.89735	100.65839
17100.00000	100.65694	-827.32702	100.65694
17150.00000	100.93875	-829.74390	100.93875
17200.00000	101.03653	-832.12225	101.03653
17250.00000	101.06988	-835.11568	101.06988
17300.00000	101.22323	-837.62900	101.22323
17350.00000	101.16915	-839.77210	101.16915
17400.00000	101.37246	-842.26827	101.37246
17450.00000	101.40367	-845.25469	101.40367
17500.00000	101.49911	-847.49855	101.49911
17550.00000	101.59023	-850.02888	101.59023
17600.00000	101.74388	-851.76585	101.74388
17650.00000	101.78496	-855.41861	101.78496
17700.00000	101.78804	-857.22706	101.78804
17750.00000	102.03843	-859.69511	102.03843
17800.00000	102.01437	-862.93348	102.01437
17850.00000	102.09424	-864.76853	102.09424
17900.00000	102.14954	-867.61542	102.14954
17950.00000	102.33119	-870.40005	102.33119
18000.00000	102.38193	-873.49104	102.38193
18050.00000	102.60375	-875.52163	102.60375
18100.00000	102.61769	-878.43128	102.61769
18150.00000	102.69093	-880.78844	102.69093
18200.00000	102.67917	-883.56791	102.67917
18250.00000	102.78254	-885.51654	102.78254
18300.00000	102.97184	-887.81610	102.97184
18350.00000	103.04482	-890.73389	103.04482
18400.00000	103.07503	-893.73597	103.07503
18450.00000	103.11870	-897.46270	103.11870
18500.00000	103.18913	-900.03584	103.18913
18550.00000	103.25514	-902.10651	103.25514
18600.00000	103.45677	-905.37021	103.45677
18650.00000	103.37066	-907.85971	103.37066
18700.00000	103.42623	-911.07193	103.42623
18750.00000	103.53320	-913.64413	103.53320
18800.00000	103.72752	-915.94136	103.72752
18850.00000	103.65838	-919.00662	103.65838
18900.00000	103.75722	-921.27517	103.75722
18950.00000	103.78819	-925.04553	103.78819
19000.00000	103.73605	-927.28695	103.73605
19050.00000	103.90169	-930.45153	103.90169
19100.00000	103.90393	-933.13530	103.90393
19150.00000	104.08437	-935.86979	104.08437
19200.00000	104.08936	-938.32740	104.08936
19250.00000	104.12435	-942.50770	104.12435
19300.00000	104.09188	-944.68410	104.09188
19350.00000	104.15046	-947.73791	104.15046
19400.00000	104.14261	-950.39753	104.14261
19450.00000	104.26308	-952.90045	104.26308
19500.00000	104.19309	-956.33534	104.19309
19550.00000	104.26841	-959.43725	104.26841
19600.00000	104.35903	-962.88892	104.35903
19650.00000	104.32258	-965.42485	104.32258
19700.00000	104.23335	-968.62530	104.23335
19750.00000	104.26396	-970.95170	104.26396
19800.00000	104.32810	-974.98917	104.32810
19850.00000	104.34328	-977.64647	104.34328
19900.00000	104.28150	-981.51077	104.28150
19950.00000	104.24896	-984.46898	104.24896
20000.00000	104.22694	-987.55753	104.22694
20050.00000	104.19681	-990.69100	104.19681
20100.00000	104.06491	-994.05693	104.06491
20150.00000	104.05741	-996.13597	104.05741
20200.00000	103.94377	-999.92408	103.94377
20250.00000	103.82235	-1002.70267	103.82235
20300.00000	103.64388	-1005.70364	103.64388
20350.00000	103.58844	-1008.85438	103.58844
20400.00000	103.41750	-1010.88805	103.41750
20450.00000	103.18964	-1013.72565	103.18964
20500.00000	103.10305	-1016.60153	103.10305
20550.00000	102.72341	-1018.27035	102.72341
20600.00000	102.66577	-1020.33691	102.66577
20650.00000	102.49294	-1022.49366	102.49294
20700.00000	102.26692	-1024.25706	102.26692
20750.00000	102.17325	-1025.91125	102.17325
20800.00000	101.96492	-1027.05109	101.96492
20850.00000	101.89548	-1028.56835	101.89548
20900.00000	101.72786	-1029.77255	101.72786
20950.00000	101.62309	-1030.35587	101.62309
21000.00000	101.58339	-1031.16053	101.58339
21050.00000	101.67754	-1031.66673	101.67754
21100.00000	101.67712	-1032.30616	101.67712
21150.00000	101.83190	-1033.57551	101.83190
21200.00000	101.97734	-1034.36150	101.97734
21250.00000	102.10417	-1036.79085	102.10417
21300.00000	102.30101	-1037.84461	102.30101
21350.00000	102.43938	-1039.54526	102.43938
21400.00000	102.59160	-1042.00851	102.59160
21450.00000	102.76852	-1044.34248	102.76852
21500.00000	102.89316	-1047.15357	102.89316
21550.00000	102.91799	-1049.50770	102.91799
21600.00000	103.08067	-1052.40833	103.08067
21650.00000	103.09867	-1055.48241	103.09867
21700.00000	103.11191	-1057.95437	103.11191
21750.00000	103.14006	-1060.93623	103.14006
21800.00000	103.12670	-1063.75206	103.12670
21850.00000	103.03403	-1066.44384	103.03403
21900.00000	103.01922	-1069.21629	103.01922
21950.00000	102.99757	-1071.44071	102.99757
22000.00000	102.98399	-1073.89877	102.98399
22050.00000	102.91088	-1076.04303	102.91088
22100.00000	102.82647	-1078.52871	102.82647
22150.00000	102.76724	-1080.74065	102.76724
22200.00000	102.81008	-1083.05560	102.81008
22250.00000	102.69595	-1084.71052	102.69595
22300.00000	102.53239	-1087.26672	102.53239
22350.00000	102.62793	-1089.62696	102.62793
22400.00000	102.61844	-1091.78019	102.61844
22450.00000	102.49660	-1093.83012	102.49660
22500.00000	102.42284	-1095.27978	102.42284
22550.00000	102.40650	-1097.81194	102.40650
22600.00000	102.35784	-1100.89629	102.35784
22650.00000	102.32286	-1102.97374	102.32286
22700.00000	102.26521	-1104.89466	102.26521
22750.00000	102.20719	-1105.22181	102.20719
22800.00000	102.21088	-1109.44842	102.21088
22850.00000	102.23116	-1112.47627	102.23116
22900.00000	102.18148	-1113.14697	102.18148
22950.00000	102.12255	-1115.73879	102.12255
23000.00000	102.07448	-1117.13931	102.07448
23050.00000	101.98768	-1120.79476	101.98768
23100.00000	102.04028	-1122.32137	102.04028
23150.00000	101.81106	-1123.30451	101.81106
23200.00000	101.91286	-1127.51200	101.91286
23250.00000	101.67306	-1130.35913	101.67306
23300.00000	101.77954	-1132.94549	101.77954
23350.00000	101.35025	-1135.10102	101.35025
23400.00000	101.28639	-1137.81920	101.28639
23450.00000	101.42120	-1140.02755	101.42120
23500.00000	101.06247	-1141.72816	101.06247
23550.00000	100.82321	-1142.48019	100.82321
23600.00000	100.70702	-1146.11195	100.70702
23650.00000	100.66634	-1148.22704	100.66634
23700.00000	100.69780	-1152.64138	100.69780
23750.00000	100.49004	-1153.14937	100.49004
23800.00000	100.06763	-1154.02694	100.06763
23850.00000	100.00715	-1154.80231	100.00715
23900.00000	100.26765	-1157.49568	100.26765
23950.00000	99.65391	-1160.45610	99.65391
24000.00000	99.40249	-1162.50492	99.40249
24050.00000	99.35929	-1162.60755	99.35929
24100.00000	99.47601	-1165.46359	99.47601
24150.00000	99.31434	-1167.07108	99.31434
24200.00000	99.15813	-1169.55876	99.15813
24250.00000	98.62223	-1168.46264	98.62223
24300.00000	98.88445	-1170.66035	98.88445
24350.00000	98.62358	-1171.82271	98.62358
24400.00000	98.49065	-1173.44702	98.49065
24450.00000	98.08037	-1174.07213	98.08037
24500.00000	98.50922	-1175.03745	98.50922
24550.00000	98.30380	-1177.66948	98.30380
24600.00000	98.68662	-1178.14098	98.68662
24650.00000	98.44385	-1180.42231	98.44385
24700.00000	98.27283	-1178.04924	98.27283
24750.00000	98.41565	-1181.24886	98.41565
24800.00000	98.41297	-1182.06920	98.41297
24850.00000	98.11034	-822.36201	98.11034
24900.00000	98.19944	-461.60500	98.19944
24950.00000	98.11743	-104.44042	98.11743
25000.00000	98.63819	-112.43128	98.63819
25050.00000	98.68770	-110.75441	98.68770
25100.00000	98.41097	-112.74726	98.41097
25150.00000	98.93100	-113.57554	98.93100
25200.00000	98.86304	-115.03545	98.86304
25250.00000	99.15913	-116.36356	99.15913
25300.00000	99.23317	-117.13995	99.23317
25350.00000	99.43267	-123.80010	99.43267
25400.00000	99.28123	-127.40562	99.28123
25450.00000	99.57617	-127.55728	99.57617
25500.00000	99.72310	-129.42981	99.72310
25550.00000	99.70743	-132.98184	99.70743
25600.00000	99.88276	-134.58499	99.88276
25650.00000	99.94202	-135.77836	99.94202
25700.00000	100.00074	-139.37013	100.00074
25750.00000	99.88184	-142.53577	99.88184
25800.00000	99.91453	-145.79354	99.91453
25850.00000	100.01121	-147.78377	100.01121
25900.00000	100.09349	-152.19990	100.09349
25950.00000	99.86178	-151.46789	99.86178
26000.00000	99.99109	-155.80766	99.99109
26050.00000	100.02781	-158.18674	100.02781
26100.00000	100.04316	-160.19562	100.04316
26150.00000	100.03167	-163.12852	100.03167
26200.00000	100.13725	-165.46100	100.13725
26250.00000	100.00800	-168.59144	100.00800
26300.00000	100.21640	-172.14393	100.21640
26350.00000	99.79123	-173.09527	99.79123
26400.00000	99.75978	-174.42073	99.75978
26450.00000	100.07911	-179.07293	100.07911
26500.00000	99.95362	-180.81461	99.95362
26550.00000	99.76776	-186.47603	99.76776
26600.00000	99.61051	-188.18884	99.61051
26650.00000	99.82278	-187.64725	99.82278
26700.00000	99.75278	-190.22279	99.75278
26750.00000	99.60609	-193.32954	99.60609
26800.00000	99.53036	-198.53044	99.53036
26850.00000	99.86628	-199.82036	99.86628
26900.00000	99.83590	-200.35047	99.83590
26950.00000	99.92002	-204.68466	99.92002
27000.00000	99.55445	-205.26183	99.55445
27050.00000	99.66073	-208.19561	99.66073
27100.00000	99.39279	-209.51572	99.39279
27150.00000	99.55234	-213.09331	99.55234
27200.00000	99.62823	-215.12953	99.62823
27250.00000	99.22335	-215.79972	99.22335
27300.00000	98.67101	-218.84746	98.67101
27350.00000	99.22592	-219.92978	99.22592
27400.00000	98.96022	-222.97599	98.96022
27450.00000	98.95230	-224.59303	98.95230
27500.00000	98.89239	-226.87513	98.89239
27550.00000	98.95316	-228.94410	98.95316
27600.00000	99.22219	-232.74442	99.22219
27650.00000	98.71574	-231.85686	98.71574
27700.00000	98.72357	-236.99524	98.72357
27750.00000	98.77676	-239.27483	98.77676
27800.00000	98.80938	-242.65888	98.80938
27850.00000	98.99779	-241.32463	98.99779
27900.00000	98.66400	-242.66323	98.66400
27950.00000	97.95827	-245.38780	97.95827
28000.00000	98.03863	-246.75520	98.03863
28050.00000	98.52137	-249.68240	98.52137
28100.00000	97.90569	-251.50515	97.90569
28150.00000	98.05970	-253.23105	98.05970
28200.00000	98.08664	-256.92168	98.08664
28250.00000	97.86268	-259.62644	97.86268
28300.00000	97.56638	-258.29523	97.56638
28350.00000	97.80107	-260.40813	97.80107
28400.00000	97.66378	-261.19205	97.66378
28450.00000	98.13849	-264.86332	98.13849
28500.00000	97.91440	-265.71451	97.91440
28550.00000	97.39903	-264.20720	97.39903
28600.00000	97.50112	-266.99654	97.50112
28650.00000	97.75580	-271.62364	97.75580
28700.00000	97.49647	-270.28501	97.49647
28750.00000	98.03759	-271.20469	98.03759
28800.00000	97.61236	-273.02631	97.61236
28850.00000	97.21525	-277.34160	97.21525
28900.00000	97.26263	-277.93096	97.26263
28950.00000	97.10485	-278.75317	97.10485
29000.00000	97.22393	-281.19859	97.22393
29050.00000	96.81677	-279.57933	96.81677
29100.00000	96.86215	-279.52458	96.86215
29150.00000	96.61519	-281.79396	96.61519
29200.00000	96.35838	-284.91990	96.35838
29250.00000	96.79148	-284.94939	96.79148
29300.00000	96.43746	-287.26434	96.43746
29350.00000	96.81154	-288.56319	96.81154
29400.00000	96.52420	-289.20961	96.52420
29450.00000	96.41962	-290.63016	96.41962
29500.00000	96.66036	-289.86192	96.66036
29550.00000	96.31775	-294.89078	96.31775
29600.00000	96.15475	-293.35424	96.15475
29650.00000	96.35598	-295.35559	96.35598
29700.00000	95.97569	-293.61331	95.97569
29750.00000	95.99652	-293.79981	95.99652
29800.00000	95.91283	-296.44761	95.91283
29850.00000	95.88344	-298.82013	95.88344
29900.00000	96.04001	-296.48638	96.04001
29950.00000	95.36474	-297.35991	95.36474
30000.00000	95.65999	-297.66049	95.65999
30050.00000	95.78245	-297.36508	95.78245
30100.00000	95.34314	-297.13186	95.34314
30150.00000	95.68492	-300.20880	95.68492
30200.00000	95.65306	-300.74879	95.65306
30250.00000	95.53516	-299.54083	95.53516
30300.00000	94.80052	-298.62828	94.80052
30350.00000	95.45022	-296.83424	95.45022
30400.00000	95.50673	-298.85180	95.50673
30450.00000	95.26411	-298.98842	95.26411
30500.00000	95.48882	-299.17829	95.48882
30550.00000	95.58319	-297.02027	95.58319
30600.00000	95.70425	-296.07704	95.70425
30650.00000	95.79068	-295.98612	95.79068
30700.00000	96.05118	-296.64498	96.05118
30750.00000	95.96644	-294.56165	95.96644
30800.00000	96.30979	-294.83672	96.30979
30850.00000	96.61780	-292.76436	96.61780
30900.00000	96.70938	-292.06803	96.70938
30950.00000	97.31345	-292.16782	97.31345
31000.00000	97.73563	-292.83860	97.73563
31050.00000	98.18516	-291.64869	98.18516
31100.00000	98.74853	-292.04416	98.74853
31150.00000	98.91952	-292.91536	98.91952
31200.00000	99.77247	-294.12696	99.77247
31250.00000	100.21630	-295.09071	100.21630
31300.00000	100.75990	-297.13350	100.75990
31350.00000	101.40190	-298.72310	101.40190
31400.00000	101.71251	-302.05516	101.71251
31450.00000	102.26052	-304.38386	102.26052
31500.00000	102.64726	-308.12021	102.64726
31550.00000	103.21329	-310.69789	103.21329
31600.00000	103.77967	-315.05288	103.77967
31650.00000	104.14340	-318.34738	104.14340
31700.00000	104.49537	-321.04756	104.49537
31750.00000	104.93110	-323.99162	104.93110
31800.00000	105.16098	-328.41955	105.16098
31850.00000	105.56061	-333.13663	105.56061
31900.00000	105.74544	-336.50440	105.74544
31950.00000	106.09364	-341.00287	106.09364
32000.00000	106.37789	-345.08821	106.37789
32050.00000	106.56913	-348.89877	106.56913
32100.00000	106.77943	-353.59304	106.77943
32150.00000	106.97344	-356.54109	106.97344
32200.00000	107.24265	-361.44286	107.24265
32250.00000	107.32119	-365.99497	107.32119
32300.00000	107.51177	-369.35271	107.51177
32350.00000	107.52782	-372.78904	107.52782
32400.00000	107.75220	-376.91322	107.75220
32450.00000	107.76906	-381.03934	107.76906
32500.00000	107.92190	-384.03556	107.92190
32550.00000	108.11196	-389.12403	108.11196
32600.00000	108.13764	-392.10337	108.13764
32650.00000	108.27406	-396.38027	108.27406
32700.00000	108.29845	-400.57498	108.29845
32750.00000	108.30708	-404.89100	108.30708
32800.00000	108.44775	-408.17378	108.44775
32850.00000	108.61867	-412.48411	108.61867
32900.00000	108.49378	-417.19843	108.49378
32950.00000	108.34775	-421.44045	108.34775
33000.00000	108.39062	-423.60464	108.39062
33050.00000	108.27231	-428.99175	108.27231
33100.00000	108.34173	-432.28637	108.34173
33150.00000	108.21335	-435.83276	108.21335
33200.00000	108.28901	-438.43420	108.28901
33250.00000	108.17257	-442.33497	108.17257
33300.00000	107.95916	-445.80354	107.95916
33350.00000	107.79639	-449.76095	107.79639
33400.00000	107.65393	-453.04409	107.65393
33450.00000	107.60982	-456.82007	107.60982
33500.00000	107.61586	-457.91693	107.61586
33550.00000	107.23243	-462.23281	107.23243
33600.00000	107.31444	-464.20693	107.31444
33650.00000	107.12589	-468.39556	107.12589
33700.00000	107.01274	-469.64084	107.01274
33750.00000	106.74378	-472.39972	106.74378
33800.00000	106.69695	-475.65495	106.69695
33850.00000	106.25096	-477.06346	106.25096
33900.00000	106.27367	-480.15592	106.27367
33950.00000	106.16751	-481.06170	106.16751
34000.00000	105.92445	-483.32955	105.92445
34050.00000	105.75597	-485.44832	105.75597
34100.00000	105.53218	-486.35247	105.53218
34150.00000	105.62356	-488.98264	105.62356
34200.00000	105.57837	-487.81469	105.57837
34250.00000	105.30751	-490.57324	105.30751
34300.00000	105.21748	-492.45063	105.21748
34350.00000	105.29288	-493.66678	105.29288
34400.00000	105.00458	-493.64171	105.00458
34450.00000	105.11471	-497.38845	105.11471
34500.00000	105.11552	-495.70385	105.11552
34550.00000	105.14898	-499.36829	105.14898
34600.00000	104.81226	-501.34936	104.81226
34650.00000	105.12710	-499.42777	105.12710
34700.00000	104.63331	-499.28028	104.63331
34750.00000	105.10618	-504.47808	105.10618
34800.00000	105.15984	-501.44109	105.15984
34850.00000	105.41246	-502.60890	105.41246
34900.00000	105.62581	-506.14837	105.62581
34950.00000	105.62102	-505.45987	105.62102
35000.00000	105.67539	-507.57080	105.67539
35050.00000	105.77343	-507.33524	105.77343
35100.00000	106.17647	-511.09165	106.17647
35150.00000	105.95248	-510.43326	105.95248
35200.00000	106.12399	-512.92646	106.12399
35250.00000	106.13446	-515.04187	106.13446
35300.00000	106.49867	-516.71588	106.49867
35350.00000	106.79651	-518.58470	106.79651
35400.00000	106.87463	-519.91063	106.87463
35450.00000	106.93508	-521.82791	106.93508
35500.00000	106.65700	-523.37631	106.65700
35550.00000	107.14339	-525.57922	107.14339
35600.00000	107.23946	-528.01456	107.23946
35650.00000	107.40371	-530.55522	107.40371
35700.00000	107.45065	-533.62611	107.45065
35750.00000	107.43110	-532.65007	107.43110
35800.00000	107.62966	-534.35484	107.62966
35850.00000	107.88882	-538.24982	107.88882
35900.00000	108.00509	-540.30622	108.00509
35950.00000	108.18553	-542.39924	108.18553
36000.00000	108.05881	-544.54978	108.05881
36050.00000	108.19493	-547.50761	108.19493
36100.00000	108.40377	-549.99573	108.40377
36150.00000	108.29715	-552.58011	108.29715
36200.00000	108.40571	-554.44205	108.40571
36250.00000	108.22640	-556.78095	108.22640
36300.00000	108.19037	-560.88120	108.19037
36350.00000	108.16617	-562.56401	108.16617
36400.00000	108.25887	-563.40863	108.25887
36450.00000	108.11970	-566.86799	108.11970
36500.00000	108.31260	-567.48849	108.31260
36550.00000	108.05847	-572.16145	108.05847
36600.00000	108.16280	-573.80251	108.16280
36650.00000	108.21110	-575.64419	108.21110
36700.00000	108.25263	-579.81701	108.25263
36750.00000	108.05277	-582.57129	108.05277
36800.00000	107.97621	-584.11246	107.97621
36850.00000	107.80188	-586.88862	107.80188
36900.00000	107.94692	-591.92754	107.94692
36950.00000	107.53754	-592.35909	107.53754
37000.00000	107.20906	-594.14294	107.20906
37050.00000	107.14494	-596.73852	107.14494
37100.00000	107.07087	-599.06231	107.07087
37150.00000	107.06947	-601.79815	107.06947
37200.00000	106.98625	-602.09664	106.98625
37250.00000	106.58865	-605.07329	106.58865
37300.00000	106.61749	-607.60921	106.61749
37350.00000	106.62849	-608.82166	106.62849
37400.00000	106.43461	-610.75374	106.43461
37450.00000	106.28382	-612.59711	106.28382
37500.00000	106.42084	-615.36666	106.42084
37550.00000	106.30061	-617.65986	106.30061
37600.00000	106.31333	-619.66967	106.31333
37650.00000	106.18984	-621.50554	106.18984
37700.00000	106.28074	-624.28210	106.28074
37750.00000	106.39938	-625.58473	106.39938
37800.00000	106.26552	-628.86373	106.26552
37850.00000	106.26583	-631.03269	106.26583
37900.00000	106.27434	-633.31348	106.27434
37950.00000	106.40336	-635.33452	106.40336
38000.00000	106.32684	-636.53871	106.32684
38050.00000	106.39771	-638.56494	106.39771
38100.00000	106.80139	-640.54024	106.80139
38150.00000	106.87101	-644.35022	106.87101
38200.00000	107.07318	-647.56917	107.07318
38250.00000	107.07261	-649.15770	107.07261
38300.00000	107.49191	-652.87063	107.49191
38350.00000	107.56796	-653.94354	107.56796
38400.00000	107.94301	-657.38649	107.94301
38450.00000	108.13848	-660.55916	108.13848
38500.00000	108.59842	-663.51712	108.59842
38550.00000	108.82840	-666.02455	108.82840
38600.00000	109.07070	-669.24823	109.07070
38650.00000	109.48237	-673.53645	109.48237
38700.00000	109.90766	-677.36184	109.90766
38750.00000	110.17038	-680.60049	110.17038
38800.00000	110.58893	-684.87965	110.58893
38850.00000	110.82818	-689.88918	110.82818
38900.00000	111.29963	-693.55174	111.29963
38950.00000	111.38299	-698.78538	111.38299
39000.00000	111.63863	-703.24309	111.63863
39050.00000	111.93400	-708.35532	111.93400
39100.00000	112.04045	-713.35268	112.04045
39150.00000	112.14386	-718.34194	112.14386
39200.00000	112.33346	-723.56149	112.33346
39250.00000	112.38746	-728.24413	112.38746
39300.00000	112.46520	-732.40924	112.46520
39350.00000	112.53889	-737.19410	112.53889
39400.00000	112.50772	-742.52766	112.50772
39450.00000	112.47225	-746.87051	112.47225
39500.00000	112.39728	-751.55272	112.39728
39550.00000	112.35375	-755.61597	112.35375
39600.00000	112.26707	-759.65859	112.26707
39650.00000	112.22108	-763.15750	112.22108
39700.00000	112.13082	-767.01003	112.13082
39750.00000	112.12013	-771.22015	112.12013
39800.00000	111.99252	-775.32960	111.99252
39850.00000	111.83069	-778.88251	111.83069
39900.00000	111.75133	-782.33182	111.75133
39950.00000	111.58930	-785.71263	111.58930
40000.00000	111.34445	-787.82200	111.34445
40050.00000	111.32414	-792.36174	111.32414
40100.00000	111.17758	-795.83615	111.17758
40150.00000	111.01016	-798.83249	111.01016
40200.00000	110.81795	-802.49100	110.81795
40250.00000	110.63500	-804.88172	110.63500
40300.00000	110.53373	-807.72644	110.53373
40350.00000	110.16484	-810.08155	110.16484
40400.00000	109.90561	-812.67978	109.90561
40450.00000	109.80913	-815.10422	109.80913
40500.00000	109.68752	-817.10215	109.68752
40550.00000	109.47833	-820.12203	109.47833
40600.00000	109.29312	-822.37198	109.29312
40650.00000	108.97434	-823.83753	108.97434
40700.00000	108.69896	-824.96187	108.69896
40750.00000	108.75177	-826.98705	108.75177
40800.00000	108.47983	-828.55439	108.47983
40850.00000	108.21532	-829.07608	108.21532
40900.00000	108.03740	-831.14315	108.03740
40950.00000	107.64775	-831.39022	107.64775
41000.00000	107.27557	-832.77235	107.27557
41050.00000	107.31364	-833.69252	107.31364
41100.00000	107.13003	-834.95284	107.13003
41150.00000	107.16732	-835.26089	107.16732
41200.00000	107.05243	-835.85158	107.05243
41250.00000	106.62444	-838.91270	106.62444
41300.00000	106.35134	-839.29281	106.35134
41350.00000	106.44134	-838.02054	106.44134
41400.00000	106.31006	-842.42140	106.31006
41450.00000	106.20046	-839.96973	106.20046
41500.00000	106.05075	-842.14174	106.05075
41550.00000	105.56409	-838.85965	105.56409
41600.00000	104.97126	-841.52578	104.97126
41650.00000	105.40007	-844.45319	105.40007
41700.00000	105.31813	-841.48837	105.31813
41750.00000	104.86747	-840.95327	104.86747
41800.00000	103.90186	-845.52067	103.90186
41850.00000	103.66654	-844.77817	103.66654
41900.00000	103.09622	-847.98789	103.09622
41950.00000	104.38521	-842.30583	104.38521
42000.00000	103.05718	-844.85633	103.05718
42050.00000	101.63564	-847.47588	101.63564
42100.00000	102.03226	-849.27674	102.03226
42150.00000	100.85131	-852.38900	100.85131
42200.00000	100.51206	-849.81864	100.51206
42250.00000	100.04744	-852.71846	100.04744
42300.00000	98.66053	-851.57657	98.66053
42350.00000	98.84980	-856.82691	98.84980
42400.00000	98.04602	-856.46026	98.04602
42450.00000	98.08234	-860.80699	98.08234
42500.00000	97.09121	-868.15296	97.09121
42550.00000	97.14210	-854.54729	97.14210
42600.00000	96.34230	-855.91239	96.34230
42650.00000	95.85722	-862.93144	95.85722
42700.00000	94.77203	-865.36502	94.77203
42750.00000	94.42465	-868.29091	94.42465
42800.00000	93.09557	-879.41662	93.09557
42850.00000	93.98964	-886.11226	93.98964
42900.00000	92.75413	-870.03572	92.75413
42950.00000	94.13530	-884.46106	94.13530
43000.00000	94.73385	-900.59132	94.73385
43050.00000	92.58204	-904.05878	92.58204
43100.00000	95.25893	-903.95657	95.25893
43150.00000	93.60884	-896.21688	93.60884
43200.00000	93.09331	-905.87350	93.09331
43250.00000	93.60283	-907.54532	93.60283
43300.00000	94.88333	-922.84488	94.88333
43350.00000	96.53544	-930.14015	96.53544
43400.00000	96.56628	-931.06243	96.56628
43450.00000	97.81494	-926.08047	97.81494
43500.00000	96.66990	-941.70463	96.66990
43550.00000	97.15902	-937.41021	97.15902
43600.00000	97.57597	-941.35747	97.57597
43650.00000	99.21775	-946.94624	99.21775
43700.00000	99.06118	-946.82266	99.06118
43750.00000	98.60402	-950.65860	98.60402
43800.00000	100.50596	-957.17493	100.50596
43850.00000	100.95776	-959.21580	100.95776
43900.00000	101.17871	-959.98093	101.17871
43950.00000	101.99837	-963.51317	101.99837
44000.00000	101.27758	-969.97693	101.27758
44050.00000	102.11501	-977.02953	102.11501
44100.00000	102.89198	-984.20839	102.89198
44150.00000	103.06505	-983.91931	103.06505
44200.00000	103.13355	-985.42441	103.13355
44250.00000	103.55312	-992.37335	103.55312
44300.00000	104.06293	-998.25203	104.06293
44350.00000	103.44707	-1001.69784	103.44707
44400.00000	103.70917	-1005.79899	103.70917
44450.00000	104.60511	-1006.99670	104.60511
44500.00000	104.45794	-1011.62171	104.45794
44550.00000	106.22013	-1020.56751	106.22013
44600.00000	105.30027	-1020.03880	105.30027
44650.00000	104.91772	-1027.35567	104.91772
44700.00000	105.04044	-1030.11026	105.04044
44750.00000	104.96584	-1030.83000	104.96584
44800.00000	105.71362	-1036.24566	105.71362
44850.00000	105.19978	-1043.02222	105.19978
44900.00000	104.77248	-1044.30221	104.77248
44950.00000	105.54802	-1049.25435	105.54802
45000.00000	105.52134	-1058.47356	105.52134
45050.00000	103.88299	-1054.31419	103.88299
45100.00000	104.54129	-1062.57673	104.54129
45150.00000	104.68018	-1073.75207	104.68018
45200.00000	104.20630	-1067.56440	104.20630
45250.00000	104.26519	-1073.23518	104.26519
45300.00000	103.96170	-1077.13558	103.96170
45350.00000	104.03831	-1084.91564	104.03831
45400.00000	104.14545	-1083.68928	104.14545
45450.00000	103.71390	-1090.79613	103.71390
45500.00000	102.56678	-1095.36224	102.56678
45550.00000	102.15267	-1091.82916	102.15267
45600.00000	103.09380	-1100.74886	103.09380
45650.00000	101.86763	-1103.93451	101.86763
45700.00000	101.93729	-1105.45201	101.93729
45750.00000	102.49621	-1103.32692	102.49621
45800.00000	101.41877	-1114.62700	101.41877
45850.00000	100.98987	-1111.57288	100.98987
45900.00000	101.49713	-1114.48115	101.49713
45950.00000	100.75147	-1110.63510	100.75147
46000.00000	99.50423	-1130.03509	99.50423
46050.00000	99.91965	-1128.81989	99.91965
46100.00000	98.29671	-1127.64444	98.29671
46150.00000	99.10789	-1126.23613	99.10789
46200.00000	96.67730	-1133.44979	96.67730
46250.00000	98.05593	-1137.28691	98.05593
46300.00000	96.98686	-1135.02067	96.98686
46350.00000	98.37462	-1141.98841	98.37462
46400.00000	96.29544	-1141.06642	96.29544
46450.00000	94.97625	-1140.27994	94.97625
46500.00000	95.42122	-1138.36856	95.42122
46550.00000	95.28254	-1134.18681	95.28254
46600.00000	95.66631	-1132.90372	95.66631
46650.00000	92.63579	-1142.31153	92.63579
46700.00000	92.42818	-1127.07136	92.42818
46750.00000	93.94557	-1124.06141	93.94557
46800.00000	92.13415	-1131.46884	92.13415
46850.00000	92.86707	-1478.53877	92.86707
46900.00000	93.02372	-1487.74465	93.02372
46950.00000	94.11776	-1485.03357	94.11776
47000.00000	93.98161	-1477.69202	93.98161
47050.00000	95.67559	-1486.13891	95.67559
47100.00000	93.68095	-1485.47295	93.68095
47150.00000	95.00794	-1489.54702	95.00794
47200.00000	93.44928	-1488.27293	93.44928
47250.00000	95.12026	-1490.63892	95.12026
47300.00000	94.49769	-1497.52031	94.49769
47350.00000	94.10385	-1848.91797	94.10385
47400.00000	93.96801	-1853.96854	93.96801
47450.00000	94.79471	-1847.44640	94.79471
47500.00000	92.74340	-1862.22016	92.74340
47550.00000	92.81941	-2210.44424	92.81941
47600.00000	94.31612	-2214.77765	94.31612
47650.00000	95.34987	-2217.76729	95.34987
47700.00000	93.94634	-2217.72730	93.94634
47750.00000	91.87026	-2217.35484	91.87026
47800.00000	92.77460	-2237.61043	92.77460
47850.00000	93.09200	-2584.17736	93.09200
47900.00000	93.81133	-2933.24446	93.81133
47950.00000	92.67396	-2939.53677	92.67396
48000.00000	92.48457	-2932.58371	92.48457
48050.00000	93.96439	-2942.33778	93.96439
48100.00000	92.30179	-2946.77397	92.30179
48150.00000	93.34102	-3297.95565	93.34102
48200.00000	93.63742	-3293.97979	93.63742
48250.00000	92.70845	-3301.06687	92.70845
48300.00000	93.11711	-3299.80720	93.11711
48350.00000	93.56049	-3308.58382	93.56049
48400.00000	93.82348	-3650.31617	93.82348
48450.00000	94.96795	-3662.34844	94.96795
48500.00000	93.56246	-3663.56819	93.56246
48550.00000	93.57389	-3670.29816	93.57389
48600.00000	94.89221	-4021.31097	94.89221
48650.00000	95.01771	-4021.98091	95.01771
48700.00000	95.92154	-4035.24032	95.92154
48750.00000	94.41697	-4383.96783	94.41697
48800.00000	94.21671	-4386.61010	94.21671
48850.00000	95.13380	-4389.03031	95.13380
48900.00000	94.05736	-4753.07475	94.05736
48950.00000	95.02357	-4756.94462	95.02357
49000.00000	96.42813	-4755.91803	96.42813
49050.00000	95.17965	-4759.48913	95.17965
49100.00000	94.75602	-5118.52731	94.75602
49150.00000	96.58619	-5473.59697	96.58619
49200.00000	95.87854	-5485.79021	95.87854
49250.00000	95.63617	-5831.75831	95.63617
49300.00000	96.40958	-5483.05343	96.40958
49350.00000	94.37635	-5469.18360	94.37635
49400.00000	95.14731	-5126.43654	95.14731
49450.00000	94.56107	-4762.26640	94.56107
49500.00000	95.80978	-4407.58605	95.80978
49550.00000	96.16085	-4057.69014	96.16085
49600.00000	95.29027	-4046.60032	95.29027
49650.00000	96.94540	-4036.94214	96.94540
49700.00000	96.93344	-3708.28660	96.93344
49750.00000	98.61307	-3705.34580	98.61307
49800.00000	96.71380	-3701.94091	96.71380
49850.00000	97.61274	-3690.49433	97.61274
49900.00000	97.55573	-3346.10021	97.55573
49950.00000	100.49967	-2999.89411	100.49967
