---ACOUSTIC CALIBRATION---
Filename: C:\Data\AZH DATA\AZH82\RightPrimary.calib
Date: 8/27/2019 4:50:54 PM
Format: 4
Probe Tube Correction File: C:\Data\Probe Tube Calibrations\50_ProbeTube.calib
Experiment VIs: 850
EPL_CFTS.exe V12.0.1 (2012)
DAQmx V9.6

Attenuation (dB): 40.000000
Min Freq (Hz): 50.000000
Max Freq (Hz): 49950.000000
Freq Step (Hz): 50.000000
Sample Rate (Hz): 100000.000000
[Smoothing]
Method=None
MA.Iterations=0
MA.Length=0
Loess.Length=0
Loess.Type=Linear
Loess.Robust=FALSE


Freq(Hz)	Mag(dB)	Phase(deg)	Unsmoothed(dB)

50.00000	93.52555	407.81514	93.52555
100.00000	82.41125	533.36743	82.41125
150.00000	74.45643	511.48247	74.45643
200.00000	82.10169	447.98691	82.10169
250.00000	88.53347	438.36251	88.53347
300.00000	90.17357	378.07193	90.17357
350.00000	82.09149	358.20722	82.09149
400.00000	89.31841	371.68313	89.31841
450.00000	88.13073	371.27534	88.13073
500.00000	92.61403	385.39634	92.61403
550.00000	93.62999	373.54658	93.62999
600.00000	96.84144	368.57226	96.84144
650.00000	98.81302	351.67994	98.81302
700.00000	100.97241	335.44124	100.97241
750.00000	102.51782	316.98443	102.51782
800.00000	102.44765	293.61805	102.44765
850.00000	102.43553	276.58633	102.43553
900.00000	100.46300	258.25711	100.46300
950.00000	98.97158	255.97518	98.97158
1000.00000	97.50909	255.16526	97.50909
1050.00000	95.17545	271.25617	95.17545
1100.00000	97.35095	293.65000	97.35095
1150.00000	99.99848	299.39757	99.99848
1200.00000	102.70760	299.07453	102.70760
1250.00000	104.64449	289.56087	104.64449
1300.00000	106.10072	284.88480	106.10072
1350.00000	107.51255	274.41194	107.51255
1400.00000	108.15740	266.29355	108.15740
1450.00000	109.21548	260.54973	109.21548
1500.00000	109.96382	252.69360	109.96382
1550.00000	111.09908	244.80794	111.09908
1600.00000	112.69947	235.26284	112.69947
1650.00000	113.56540	218.60326	113.56540
1700.00000	112.41949	208.44038	112.41949
1750.00000	112.08820	202.42491	112.08820
1800.00000	111.73408	198.47251	111.73408
1850.00000	111.97818	197.13957	111.97818
1900.00000	113.12275	193.31163	113.12275
1950.00000	113.81198	179.73773	113.81198
2000.00000	112.93569	167.50298	112.93569
2050.00000	111.58888	172.44198	111.58888
2100.00000	113.46163	171.41631	113.46163
2150.00000	114.03961	160.34200	114.03961
2200.00000	113.86227	150.48119	113.86227
2250.00000	113.30866	143.18070	113.30866
2300.00000	113.35857	137.87395	113.35857
2350.00000	113.19606	131.25610	113.19606
2400.00000	112.88188	125.18495	112.88188
2450.00000	112.62001	119.18277	112.62001
2500.00000	112.22832	113.74688	112.22832
2550.00000	111.77542	108.93157	111.77542
2600.00000	111.26896	104.52084	111.26896
2650.00000	110.77209	100.56638	110.77209
2700.00000	110.24059	96.92423	110.24059
2750.00000	109.71396	93.35507	109.71396
2800.00000	109.08289	90.59754	109.08289
2850.00000	108.55853	88.47505	108.55853
2900.00000	107.93896	86.31332	107.93896
2950.00000	107.30000	85.44524	107.30000
3000.00000	106.68967	84.21983	106.68967
3050.00000	105.92748	83.25123	105.92748
3100.00000	105.31052	84.07513	105.31052
3150.00000	104.31127	84.28828	104.31127
3200.00000	103.04737	88.29238	103.04737
3250.00000	102.07677	96.92519	102.07677
3300.00000	101.41367	107.11412	101.41367
3350.00000	101.30698	123.47010	101.30698
3400.00000	102.79860	140.77921	102.79860
3450.00000	105.28086	150.41634	105.28086
3500.00000	107.81569	152.52373	107.81569
3550.00000	109.90153	149.92969	109.90153
3600.00000	111.70051	146.65247	111.70051
3650.00000	113.19448	141.44123	113.19448
3700.00000	114.51112	136.79226	114.51112
3750.00000	115.85390	131.58255	115.85390
3800.00000	117.07703	125.22665	117.07703
3850.00000	118.11621	118.47460	118.11621
3900.00000	119.09551	111.79499	119.09551
3950.00000	120.03690	104.67571	120.03690
4000.00000	120.87727	97.10573	120.87727
4050.00000	121.66581	89.80441	121.66581
4100.00000	122.48746	82.36045	122.48746
4150.00000	123.50441	74.08584	123.50441
4200.00000	124.24252	64.13821	124.24252
4250.00000	124.95223	53.07834	124.95223
4300.00000	125.43049	40.95056	125.43049
4350.00000	125.57649	28.33569	125.57649
4400.00000	125.45430	16.45109	125.45430
4450.00000	125.14550	 5.42182	125.14550
4500.00000	124.72726	-4.49964	124.72726
4550.00000	124.26699	-13.72740	124.26699
4600.00000	123.75041	-22.31417	123.75041
4650.00000	123.27389	-30.43327	123.27389
4700.00000	122.74416	-38.82770	122.74416
4750.00000	122.08752	-47.32086	122.08752
4800.00000	121.25614	-55.90169	121.25614
4850.00000	120.13282	-63.63888	120.13282
4900.00000	118.80314	-69.40016	118.80314
4950.00000	117.40876	-72.62765	117.40876
5000.00000	116.13599	-73.45223	116.13599
5050.00000	114.99252	-73.19847	114.99252
5100.00000	113.77389	-69.31219	113.77389
5150.00000	113.66173	-63.82539	113.66173
5200.00000	112.82485	-59.70083	112.82485
5250.00000	113.98293	-45.41054	113.98293
5300.00000	116.63860	-51.76095	116.63860
5350.00000	117.05073	-65.33846	117.05073
5400.00000	116.53979	-73.70989	116.53979
5450.00000	116.00293	-78.42721	116.00293
5500.00000	115.56235	-81.79801	115.56235
5550.00000	115.25849	-84.57449	115.25849
5600.00000	114.97861	-87.14523	114.97861
5650.00000	114.76608	-89.60043	114.76608
5700.00000	114.57862	-92.19689	114.57862
5750.00000	114.42288	-94.55682	114.42288
5800.00000	114.26716	-96.95440	114.26716
5850.00000	114.13644	-99.45113	114.13644
5900.00000	114.01762	-102.00371	114.01762
5950.00000	113.89803	-104.41620	113.89803
6000.00000	113.79031	-106.68117	113.79031
6050.00000	113.68711	-109.08530	113.68711
6100.00000	113.61555	-111.31541	113.61555
6150.00000	113.55879	-113.79380	113.55879
6200.00000	113.49546	-116.31793	113.49546
6250.00000	113.47349	-118.97688	113.47349
6300.00000	113.43013	-121.67990	113.43013
6350.00000	113.36016	-124.66793	113.36016
6400.00000	113.28540	-127.39887	113.28540
6450.00000	113.24537	-130.35625	113.24537
6500.00000	113.15708	-133.12194	113.15708
6550.00000	113.07197	-135.86765	113.07197
6600.00000	113.00813	-138.66912	113.00813
6650.00000	112.94691	-141.42946	112.94691
6700.00000	112.89425	-144.27121	112.89425
6750.00000	112.84025	-147.10695	112.84025
6800.00000	112.79617	-149.80333	112.79617
6850.00000	112.77360	-152.67464	112.77360
6900.00000	112.72686	-155.46702	112.72686
6950.00000	112.68565	-158.31188	112.68565
7000.00000	112.66767	-161.30113	112.66767
7050.00000	112.64435	-164.46022	112.64435
7100.00000	112.63330	-167.67239	112.63330
7150.00000	112.60807	-170.84419	112.60807
7200.00000	112.57573	-174.20914	112.57573
7250.00000	112.51451	-177.82370	112.51451
7300.00000	112.47570	-181.34360	112.47570
7350.00000	112.39712	-184.83172	112.39712
7400.00000	112.34192	-188.58473	112.34192
7450.00000	112.25894	-192.37614	112.25894
7500.00000	112.11590	-196.24944	112.11590
7550.00000	112.04700	-200.15907	112.04700
7600.00000	111.87948	-204.00286	111.87948
7650.00000	111.71869	-207.93870	111.71869
7700.00000	111.56927	-211.75782	111.56927
7750.00000	111.33868	-215.74844	111.33868
7800.00000	111.13436	-219.59310	111.13436
7850.00000	110.88830	-223.27490	110.88830
7900.00000	110.63493	-226.75027	110.63493
7950.00000	110.40131	-230.60873	110.40131
8000.00000	110.12948	-234.21006	110.12948
8050.00000	109.81180	-238.00570	109.81180
8100.00000	109.51142	-240.76587	109.51142
8150.00000	109.15639	-243.95735	109.15639
8200.00000	108.83268	-246.81719	108.83268
8250.00000	108.44676	-249.97870	108.44676
8300.00000	108.07971	-252.73872	108.07971
8350.00000	107.69396	-255.41696	107.69396
8400.00000	107.31080	-258.38618	107.31080
8450.00000	106.87734	-261.12380	106.87734
8500.00000	106.50927	-263.98084	106.50927
8550.00000	106.17128	-266.45789	106.17128
8600.00000	105.82701	-269.31660	105.82701
8650.00000	105.46158	-271.56536	105.46158
8700.00000	105.18014	-274.37501	105.18014
8750.00000	104.81437	-275.37626	104.81437
8800.00000	104.53098	-277.51514	104.53098
8850.00000	104.13996	-279.15174	104.13996
8900.00000	103.80539	-280.17032	103.80539
8950.00000	103.43300	-281.90545	103.43300
9000.00000	102.96857	-283.25989	102.96857
9050.00000	102.58913	-285.20810	102.58913
9100.00000	102.16707	-286.86123	102.16707
9150.00000	101.81253	-288.78599	101.81253
9200.00000	101.54457	-290.85076	101.54457
9250.00000	101.25084	-292.86287	101.25084
9300.00000	101.07291	-294.73131	101.07291
9350.00000	100.97875	-296.39411	100.97875
9400.00000	100.77524	-297.18557	100.77524
9450.00000	100.63123	-297.47533	100.63123
9500.00000	100.52074	-297.09267	100.52074
9550.00000	100.46490	-296.67090	100.46490
9600.00000	100.41421	-297.71631	100.41421
9650.00000	100.17196	-298.76190	100.17196
9700.00000	99.91841	-299.46137	99.91841
9750.00000	99.74018	-301.67779	99.74018
9800.00000	99.50711	-303.00467	99.50711
9850.00000	99.34302	-304.64639	99.34302
9900.00000	99.14280	-306.62732	99.14280
9950.00000	99.10130	-307.96849	99.10130
10000.00000	99.09409	-309.63986	99.09409
10050.00000	99.02990	-310.99349	99.02990
10100.00000	98.93798	-311.90000	98.93798
10150.00000	98.70852	-313.39699	98.70852
10200.00000	98.54507	-314.61350	98.54507
10250.00000	98.30918	-316.29561	98.30918
10300.00000	98.16904	-318.29531	98.16904
10350.00000	97.93218	-320.54692	97.93218
10400.00000	97.69235	-323.44967	97.69235
10450.00000	97.66400	-326.38098	97.66400
10500.00000	97.63841	-328.87122	97.63841
10550.00000	97.59913	-331.26361	97.59913
10600.00000	97.51932	-333.20233	97.51932
10650.00000	97.38708	-334.33175	97.38708
10700.00000	97.22605	-336.81357	97.22605
10750.00000	97.06749	-338.82032	97.06749
10800.00000	96.76167	-340.55583	96.76167
10850.00000	96.49420	-343.85988	96.49420
10900.00000	96.21466	-345.84124	96.21466
10950.00000	95.94961	-348.00459	95.94961
11000.00000	95.72559	-350.48739	95.72559
11050.00000	95.33648	-352.63118	95.33648
11100.00000	95.07831	-354.80488	95.07831
11150.00000	94.69260	-356.37365	94.69260
11200.00000	94.40138	-357.75021	94.40138
11250.00000	93.94103	-359.72727	93.94103
11300.00000	93.43853	-361.33417	93.43853
11350.00000	92.96455	-362.55032	92.96455
11400.00000	92.43929	-363.97897	92.43929
11450.00000	91.99002	-365.41077	91.99002
11500.00000	91.70952	-365.42806	91.70952
11550.00000	91.21896	-365.70053	91.21896
11600.00000	90.96840	-366.63185	90.96840
11650.00000	90.56401	-365.83859	90.56401
11700.00000	90.25097	-365.46821	90.25097
11750.00000	89.93537	-365.12741	89.93537
11800.00000	89.68514	-364.78390	89.68514
11850.00000	89.48821	-363.29450	89.48821
11900.00000	89.04465	-362.96981	89.04465
11950.00000	88.93162	-361.85597	88.93162
12000.00000	88.65410	-360.50894	88.65410
12050.00000	88.45032	-359.37921	88.45032
12100.00000	88.28241	-359.80799	88.28241
12150.00000	88.16134	-359.66195	88.16134
12200.00000	88.14743	-359.58567	88.14743
12250.00000	88.08802	-358.72352	88.08802
12300.00000	89.27090	-358.44717	89.27090
12350.00000	88.18492	-357.62729	88.18492
12400.00000	88.15436	-355.89781	88.15436
12450.00000	88.11557	-354.73765	88.11557
12500.00000	88.06187	-354.36403	88.06187
12550.00000	88.00054	-354.52085	88.00054
12600.00000	87.88924	-355.69062	87.88924
12650.00000	88.06841	-355.59430	88.06841
12700.00000	88.04409	-356.18918	88.04409
12750.00000	88.13172	-357.03691	88.13172
12800.00000	88.26504	-356.84521	88.26504
12850.00000	87.98706	-356.25225	87.98706
12900.00000	88.00329	-356.26583	88.00329
12950.00000	88.02198	-356.84812	88.02198
13000.00000	87.84353	-357.56320	87.84353
13050.00000	87.87461	-357.74710	87.87461
13100.00000	87.81429	-358.20439	87.81429
13150.00000	87.92342	-359.13023	87.92342
13200.00000	87.94808	-357.67716	87.94808
13250.00000	88.00215	-358.26953	88.00215
13300.00000	87.90414	-356.50831	87.90414
13350.00000	87.86733	-356.07810	87.86733
13400.00000	87.95803	-356.79681	87.95803
13450.00000	87.77790	-355.82754	87.77790
13500.00000	87.92692	-354.88479	87.92692
13550.00000	87.81480	-355.35085	87.81480
13600.00000	87.97159	-353.87925	87.97159
13650.00000	88.05821	-353.30823	88.05821
13700.00000	87.93754	-352.89785	87.93754
13750.00000	87.81340	-352.09905	87.81340
13800.00000	87.80338	-353.35153	87.80338
13850.00000	87.98768	-354.43210	87.98768
13900.00000	88.02645	-353.41981	88.02645
13950.00000	88.35053	-352.21304	88.35053
14000.00000	88.67087	-349.88250	88.67087
14050.00000	88.84259	-349.27371	88.84259
14100.00000	88.89473	-348.42651	88.89473
14150.00000	88.96874	-347.80142	88.96874
14200.00000	89.35868	-347.17609	89.35868
14250.00000	89.95135	-345.18493	89.95135
14300.00000	90.25884	-345.30093	90.25884
14350.00000	90.54544	-343.04233	90.54544
14400.00000	90.60840	-342.75249	90.60840
14450.00000	90.85437	-341.08759	90.85437
14500.00000	91.18494	-340.95967	91.18494
14550.00000	91.57563	-340.91204	91.57563
14600.00000	91.85671	-342.46303	91.85671
14650.00000	92.56943	-340.59122	92.56943
14700.00000	92.98108	-345.00440	92.98108
14750.00000	93.51192	-344.06854	93.51192
14800.00000	93.88500	-343.49770	93.88500
14850.00000	94.45943	-343.43068	94.45943
14900.00000	94.99669	-344.52597	94.99669
14950.00000	95.53818	-345.69937	95.53818
15000.00000	96.06451	-347.40835	96.06451
15050.00000	96.45270	-347.23672	96.45270
15100.00000	97.04838	-347.89652	97.04838
15150.00000	97.72087	-350.09253	97.72087
15200.00000	98.10019	-350.73673	98.10019
15250.00000	98.43826	-353.63324	98.43826
15300.00000	99.12589	-356.32442	99.12589
15350.00000	99.53550	-359.74486	99.53550
15400.00000	99.97852	-361.25599	99.97852
15450.00000	100.43845	-364.21233	100.43845
15500.00000	100.98983	-367.17753	100.98983
15550.00000	101.41411	-370.48569	101.41411
15600.00000	101.75591	-373.83410	101.75591
15650.00000	102.24799	-375.38997	102.24799
15700.00000	102.42998	-379.98054	102.42998
15750.00000	102.88708	-382.92057	102.88708
15800.00000	103.23562	-385.30631	103.23562
15850.00000	103.50095	-388.47963	103.50095
15900.00000	103.70566	-392.11919	103.70566
15950.00000	104.01394	-395.55467	104.01394
16000.00000	104.26811	-398.74751	104.26811
16050.00000	104.59584	-401.86954	104.59584
16100.00000	104.72242	-405.53654	104.72242
16150.00000	104.90634	-408.60538	104.90634
16200.00000	105.12537	-412.38222	105.12537
16250.00000	105.36028	-415.50623	105.36028
16300.00000	105.71047	-419.03521	105.71047
16350.00000	105.85996	-422.12534	105.85996
16400.00000	106.01545	-425.17375	106.01545
16450.00000	106.20191	-428.27723	106.20191
16500.00000	106.33258	-431.65398	106.33258
16550.00000	106.55659	-435.49405	106.55659
16600.00000	106.72133	-438.63098	106.72133
16650.00000	106.82695	-441.68157	106.82695
16700.00000	107.00450	-444.70780	107.00450
16750.00000	107.03669	-448.42259	107.03669
16800.00000	107.20420	-451.88080	107.20420
16850.00000	107.40199	-455.05140	107.40199
16900.00000	107.52844	-458.31270	107.52844
16950.00000	107.66991	-461.66977	107.66991
17000.00000	107.62433	-465.00665	107.62433
17050.00000	107.80550	-467.51454	107.80550
17100.00000	107.82281	-469.71240	107.82281
17150.00000	108.04825	-473.68131	108.04825
17200.00000	108.15029	-476.75539	108.15029
17250.00000	108.21381	-480.36515	108.21381
17300.00000	108.36765	-483.39992	108.36765
17350.00000	108.32998	-486.31248	108.32998
17400.00000	108.51985	-489.59770	108.51985
17450.00000	108.53556	-493.32670	108.53556
17500.00000	108.67733	-496.43549	108.67733
17550.00000	108.75030	-499.67392	108.75030
17600.00000	108.93313	-502.48230	108.93313
17650.00000	108.97384	-506.65855	108.97384
17700.00000	109.02466	-510.11131	109.02466
17750.00000	109.22080	-512.92515	109.22080
17800.00000	109.16830	-516.98101	109.16830
17850.00000	109.24553	-520.01684	109.24553
17900.00000	109.26218	-523.53424	109.26218
17950.00000	109.37275	-527.40536	109.37275
18000.00000	109.38513	-531.48712	109.38513
18050.00000	109.53698	-534.56389	109.53698
18100.00000	109.47965	-538.67710	109.47965
18150.00000	109.47256	-541.71324	109.47256
18200.00000	109.39971	-545.92095	109.39971
18250.00000	109.43245	-548.77448	109.43245
18300.00000	109.46591	-552.34919	109.46591
18350.00000	109.43022	-555.89675	109.43022
18400.00000	109.33402	-559.62534	109.33402
18450.00000	109.23543	-564.24729	109.23543
18500.00000	109.20947	-567.59952	109.20947
18550.00000	109.10877	-570.58011	109.10877
18600.00000	109.10268	-574.44456	109.10268
18650.00000	108.89141	-577.56318	108.89141
18700.00000	108.78507	-581.33532	108.78507
18750.00000	108.72974	-584.55440	108.72974
18800.00000	108.72426	-587.22407	108.72426
18850.00000	108.47546	-590.59562	108.47546
18900.00000	108.35075	-593.61740	108.35075
18950.00000	108.25901	-597.18969	108.25901
19000.00000	107.97961	-599.66703	107.97961
19050.00000	108.01672	-602.56258	108.01672
19100.00000	107.83257	-605.27680	107.83257
19150.00000	107.85690	-607.93290	107.85690
19200.00000	107.71310	-610.23607	107.71310
19250.00000	107.59187	-614.03730	107.59187
19300.00000	107.44112	-616.05071	107.44112
19350.00000	107.35328	-618.75746	107.35328
19400.00000	107.22342	-621.30338	107.22342
19450.00000	107.23474	-623.47018	107.23474
19500.00000	107.06494	-626.84649	107.06494
19550.00000	107.01356	-629.41503	107.01356
19600.00000	107.01569	-632.71365	107.01569
19650.00000	106.85597	-634.77315	106.85597
19700.00000	106.67424	-637.70149	106.67424
19750.00000	106.60111	-639.80836	106.60111
19800.00000	106.61655	-643.41874	106.61655
19850.00000	106.53728	-645.92699	106.53728
19900.00000	106.39351	-649.36726	106.39351
19950.00000	106.28175	-652.07370	106.28175
20000.00000	106.19364	-654.87096	106.19364
20050.00000	106.09935	-657.73005	106.09935
20100.00000	105.90119	-660.70142	105.90119
20150.00000	105.83047	-662.64688	105.83047
20200.00000	105.67323	-666.22088	105.67323
20250.00000	105.49044	-668.86885	105.49044
20300.00000	105.26024	-671.71206	105.26024
20350.00000	105.16814	-674.68050	105.16814
20400.00000	104.93267	-676.65040	104.93267
20450.00000	104.66616	-679.46378	104.66616
20500.00000	104.53647	-682.36044	104.53647
20550.00000	104.09657	-684.00055	104.09657
20600.00000	103.95662	-686.26467	103.95662
20650.00000	103.72372	-688.46772	103.72372
20700.00000	103.41328	-690.46493	103.41328
20750.00000	103.23144	-692.24847	103.23144
20800.00000	102.92575	-693.66586	102.92575
20850.00000	102.74037	-695.31426	102.74037
20900.00000	102.44004	-696.64636	102.44004
20950.00000	102.18797	-697.31603	102.18797
21000.00000	101.96406	-698.14588	101.96406
21050.00000	101.90380	-698.63733	101.90380
21100.00000	101.70985	-699.03547	101.70985
21150.00000	101.65866	-699.82367	101.65866
21200.00000	101.59648	-700.00563	101.59648
21250.00000	101.53785	-701.61231	101.53785
21300.00000	101.55564	-701.83063	101.55564
21350.00000	101.52880	-702.41481	101.52880
21400.00000	101.51753	-703.70378	101.51753
21450.00000	101.56046	-704.80409	101.56046
21500.00000	101.58998	-706.46830	101.58998
21550.00000	101.53663	-707.27164	101.53663
21600.00000	101.64107	-708.87450	101.64107
21650.00000	101.63306	-710.60555	101.63306
21700.00000	101.62650	-711.84399	101.62650
21750.00000	101.64248	-713.49208	101.64248
21800.00000	101.66051	-715.21005	101.66051
21850.00000	101.58973	-716.63340	101.58973
21900.00000	101.59884	-718.45633	101.59884
21950.00000	101.57098	-719.59519	101.57098
22000.00000	101.60413	-721.07624	101.60413
22050.00000	101.56907	-722.31717	101.56907
22100.00000	101.54473	-724.13520	101.54473
22150.00000	101.51909	-725.27815	101.51909
22200.00000	101.61337	-727.00563	101.61337
22250.00000	101.51292	-728.20756	101.51292
22300.00000	101.45807	-729.72247	101.45807
22350.00000	101.58854	-731.29108	101.58854
22400.00000	101.62839	-732.83104	101.62839
22450.00000	101.57061	-734.36206	101.57061
22500.00000	101.54046	-735.05063	101.54046
22550.00000	101.50860	-736.92420	101.50860
22600.00000	101.60198	-739.34486	101.60198
22650.00000	101.54893	-741.07626	101.54893
22700.00000	101.62393	-742.20204	101.62393
22750.00000	101.60113	-742.36187	101.60113
22800.00000	101.64742	-745.74993	101.64742
22850.00000	101.73883	-748.14276	101.73883
22900.00000	101.71480	-748.48747	101.71480
22950.00000	101.75661	-750.14439	101.75661
23000.00000	101.71931	-751.17241	101.71931
23050.00000	101.71246	-753.71740	101.71246
23100.00000	101.88266	-754.51132	101.88266
23150.00000	101.70938	-755.33467	101.70938
23200.00000	101.91374	-758.58975	101.91374
23250.00000	101.77057	-760.64883	101.77057
23300.00000	102.02756	-763.02230	102.02756
23350.00000	101.75024	-764.28367	101.75024
23400.00000	101.77252	-766.24926	101.77252
23450.00000	101.85353	-767.72136	101.85353
23500.00000	101.82854	-769.24032	101.82854
23550.00000	101.75707	-769.70367	101.75707
23600.00000	101.61622	-772.98230	101.61622
23650.00000	101.77642	-774.40046	101.77642
23700.00000	101.97240	-778.47631	101.97240
23750.00000	101.87277	-778.96341	101.87277
23800.00000	101.59253	-779.57681	101.59253
23850.00000	101.77704	-780.49265	101.77704
23900.00000	102.11605	-782.74851	102.11605
23950.00000	101.77936	-785.35263	101.77936
24000.00000	101.74285	-787.95371	101.74285
24050.00000	101.93211	-787.83189	101.93211
24100.00000	102.07196	-791.61349	102.07196
24150.00000	102.16158	-793.24318	102.16158
24200.00000	102.08441	-796.00205	102.08441
24250.00000	101.79337	-796.24688	101.79337
24300.00000	102.34024	-799.27121	102.34024
24350.00000	102.10157	-800.60467	102.10157
24400.00000	101.98991	-803.78327	101.98991
24450.00000	101.79921	-805.03907	101.79921
24500.00000	102.33208	-805.65352	102.33208
24550.00000	102.24158	-810.43626	102.24158
24600.00000	102.75677	-811.42968	102.75677
24650.00000	102.36565	-455.30177	102.36565
24700.00000	102.42781	-95.22761	102.42781
24750.00000	102.52481	260.84364	102.52481
24800.00000	102.53681	619.56280	102.53681
24850.00000	102.26411	978.01431	102.26411
24900.00000	102.43172	1336.98182	102.43172
24950.00000	102.80467	1693.19353	102.80467
25000.00000	102.72910	1684.88277	102.72910
25050.00000	102.69656	1686.84293	102.69656
25100.00000	102.42765	1683.10947	102.42765
25150.00000	102.76036	1682.63126	102.76036
25200.00000	102.58416	1678.42029	102.58416
25250.00000	102.78575	1677.36490	102.78575
25300.00000	102.90818	1675.08511	102.90818
25350.00000	102.82439	1668.89914	102.82439
25400.00000	102.78457	1665.12984	102.78457
25450.00000	102.81426	1664.11205	102.81426
25500.00000	102.57517	1662.90514	102.57517
25550.00000	102.63673	1658.39897	102.63673
25600.00000	102.72734	1656.80334	102.72734
25650.00000	102.63228	1654.69204	102.63228
25700.00000	102.74409	1651.75428	102.74409
25750.00000	102.49744	1648.83544	102.49744
25800.00000	102.45973	1645.07325	102.45973
25850.00000	102.39679	1642.98896	102.39679
25900.00000	102.39173	1639.44848	102.39173
25950.00000	102.15955	1641.09735	102.15955
26000.00000	102.20217	1635.70446	102.20217
26050.00000	102.17850	1633.54573	102.17850
26100.00000	102.11087	1631.12656	102.11087
26150.00000	102.09070	1629.45031	102.09070
26200.00000	102.11259	1627.07434	102.11259
26250.00000	101.88504	1624.70305	101.88504
26300.00000	102.05285	1621.54737	102.05285
26350.00000	101.58416	1620.22427	101.58416
26400.00000	101.57842	1618.57613	101.57842
26450.00000	101.93825	1615.17456	101.93825
26500.00000	101.72733	1612.44515	101.72733
26550.00000	101.47992	1607.67166	101.47992
26600.00000	101.46426	1606.00440	101.46426
26650.00000	101.57183	1606.55211	101.57183
26700.00000	101.58186	1603.63577	101.58186
26750.00000	101.40893	1601.24456	101.40893
26800.00000	101.39763	1596.20153	101.39763
26850.00000	101.67872	1595.92833	101.67872
26900.00000	101.67319	1594.88697	101.67319
26950.00000	101.72726	1590.74741	101.72726
27000.00000	101.26191	1589.58823	101.26191
27050.00000	101.63009	1586.57874	101.63009
27100.00000	101.26891	1585.01957	101.26891
27150.00000	101.43503	1581.42788	101.43503
27200.00000	101.51113	1579.56545	101.51113
27250.00000	101.21750	1577.95327	101.21750
27300.00000	100.95643	1574.99041	100.95643
27350.00000	101.17408	1574.20794	101.17408
27400.00000	100.82105	1571.48091	100.82105
27450.00000	100.84950	1569.09360	100.84950
27500.00000	100.72433	1567.47249	100.72433
27550.00000	100.84303	1563.80220	100.84303
27600.00000	101.02011	1561.57552	101.02011
27650.00000	100.48517	1561.26325	100.48517
27700.00000	100.60255	1554.81263	100.60255
27750.00000	100.55898	1552.52000	100.55898
27800.00000	100.50250	1548.58526	100.50250
27850.00000	100.68072	1549.84947	100.68072
27900.00000	100.07165	1548.23760	100.07165
27950.00000	99.57639	1544.86797	99.57639
28000.00000	99.64668	1543.89044	99.64668
28050.00000	100.09443	1540.51613	100.09443
28100.00000	99.27397	1539.04960	99.27397
28150.00000	99.31696	1537.79490	99.31696
28200.00000	99.43458	1533.84477	99.43458
28250.00000	98.96975	1530.98722	98.96975
28300.00000	98.55593	1531.42767	98.55593
28350.00000	98.66812	1530.47016	98.66812
28400.00000	98.47818	1529.64765	98.47818
28450.00000	99.04841	1527.08240	99.04841
28500.00000	98.25378	1527.05603	98.25378
28550.00000	98.19486	1528.27211	98.19486
28600.00000	98.22775	1526.48771	98.22775
28650.00000	98.31315	1522.75019	98.31315
28700.00000	98.10964	1524.10228	98.10964
28750.00000	98.71855	1524.12871	98.71855
28800.00000	98.35541	1522.16810	98.35541
28850.00000	97.73878	1519.20757	97.73878
28900.00000	97.93123	1517.82263	97.93123
28950.00000	97.62268	1518.05415	97.62268
29000.00000	97.96475	1517.19089	97.96475
29050.00000	97.67431	1519.19801	97.67431
29100.00000	97.68680	1518.07693	97.68680
29150.00000	97.68186	1517.76361	97.68186
29200.00000	97.46722	1515.23062	97.46722
29250.00000	97.80347	1514.75794	97.80347
29300.00000	97.51633	1513.00972	97.51633
29350.00000	98.05068	1511.71183	98.05068
29400.00000	97.97590	1511.93730	97.97590
29450.00000	97.85415	1511.37257	97.85415
29500.00000	98.32156	1510.65832	98.32156
29550.00000	98.21650	1506.82654	98.21650
29600.00000	98.02039	1507.66244	98.02039
29650.00000	98.31674	1505.03836	98.31674
29700.00000	98.36414	1506.19755	98.36414
29750.00000	98.33288	1505.63307	98.33288
29800.00000	98.29146	1502.30347	98.29146
29850.00000	98.43956	1500.18264	98.43956
29900.00000	98.72702	1499.92317	98.72702
29950.00000	97.99781	1499.29661	97.99781
30000.00000	98.47240	1499.27577	98.47240
30050.00000	98.53994	1496.28800	98.53994
30100.00000	98.21598	1497.22878	98.21598
30150.00000	98.43908	1493.32132	98.43908
30200.00000	98.49114	1491.20158	98.49114
30250.00000	98.29642	1491.21078	98.29642
30300.00000	98.11181	1491.33723	98.11181
30350.00000	98.26940	1492.27923	98.26940
30400.00000	98.21805	1490.05086	98.21805
30450.00000	97.86872	1488.76675	97.86872
30500.00000	97.95597	1488.55605	97.95597
30550.00000	98.00661	1489.34652	98.00661
30600.00000	97.99028	1489.92813	97.99028
30650.00000	98.08033	1489.73810	98.08033
30700.00000	98.11653	1488.84488	98.11653
30750.00000	98.07133	1490.24799	98.07133
30800.00000	98.20795	1490.06112	98.20795
30850.00000	98.49593	1491.73378	98.49593
30900.00000	98.49137	1493.71270	98.49137
30950.00000	98.97283	1491.86265	98.97283
31000.00000	99.23302	1491.21656	99.23302
31050.00000	99.63491	1492.41099	99.63491
31100.00000	100.09008	1492.65928	100.09008
31150.00000	100.22081	1491.45422	100.22081
31200.00000	100.96412	1490.60267	100.96412
31250.00000	101.31767	1489.60972	101.31767
31300.00000	101.74185	1487.68474	101.74185
31350.00000	102.27858	1486.22542	102.27858
31400.00000	102.52978	1483.61311	102.52978
31450.00000	103.00829	1481.37212	103.00829
31500.00000	103.39023	1478.09077	103.39023
31550.00000	103.82707	1475.77455	103.82707
31600.00000	104.24997	1471.59106	104.24997
31650.00000	104.51938	1468.30737	104.51938
31700.00000	104.86563	1465.86954	104.86563
31750.00000	105.23070	1463.24185	105.23070
31800.00000	105.44755	1458.96940	105.44755
31850.00000	105.74530	1454.33227	105.74530
31900.00000	105.76963	1451.90500	105.76963
31950.00000	106.08445	1447.75384	106.08445
32000.00000	106.18378	1443.76141	106.18378
32050.00000	106.43107	1440.59519	106.43107
32100.00000	106.45779	1436.57573	106.45779
32150.00000	106.66598	1433.81788	106.66598
32200.00000	106.80233	1429.18598	106.80233
32250.00000	106.87905	1425.30462	106.87905
32300.00000	106.90576	1422.33520	106.90576
32350.00000	106.95484	1419.37833	106.95484
32400.00000	107.08146	1415.96131	107.08146
32450.00000	107.00839	1412.46423	107.00839
32500.00000	107.16459	1409.55477	107.16459
32550.00000	107.31141	1404.81926	107.31141
32600.00000	107.27775	1402.40795	107.27775
32650.00000	107.36471	1399.37195	107.36471
32700.00000	107.26332	1395.63311	107.26332
32750.00000	107.32063	1392.00156	107.32063
32800.00000	107.45404	1389.31979	107.45404
32850.00000	107.54197	1385.94567	107.54197
32900.00000	107.43429	1381.98777	107.43429
32950.00000	107.34613	1377.95928	107.34613
33000.00000	107.27115	1376.54249	107.27115
33050.00000	107.21847	1371.99160	107.21847
33100.00000	107.30776	1368.64906	107.30776
33150.00000	107.18905	1366.23840	107.18905
33200.00000	107.31405	1364.34964	107.31405
33250.00000	107.18055	1361.20069	107.18055
33300.00000	107.07409	1357.45860	107.07409
33350.00000	106.86981	1354.20669	106.86981
33400.00000	106.81821	1352.63754	106.81821
33450.00000	106.81428	1348.63120	106.81428
33500.00000	106.86891	1348.06039	106.86891
33550.00000	106.53422	1343.17744	106.53422
33600.00000	106.68292	1341.75145	106.68292
33650.00000	106.49170	1339.23756	106.49170
33700.00000	106.41118	1337.79294	106.41118
33750.00000	106.19652	1334.85540	106.19652
33800.00000	106.20966	1333.34765	106.20966
33850.00000	105.94482	1331.00919	105.94482
33900.00000	106.01335	1328.02555	106.01335
33950.00000	105.82210	1326.98229	105.82210
34000.00000	105.84707	1325.05490	105.84707
34050.00000	105.56957	1322.71293	105.56957
34100.00000	105.45214	1322.99409	105.45214
34150.00000	105.43569	1320.05355	105.43569
34200.00000	105.44291	1321.36936	105.44291
34250.00000	105.33882	1317.30735	105.33882
34300.00000	105.16641	1315.77331	105.16641
34350.00000	105.03566	1313.41133	105.03566
34400.00000	105.00073	1315.67026	105.00073
34450.00000	104.96318	1311.59057	104.96318
34500.00000	104.92230	1311.54097	104.92230
34550.00000	105.01650	1311.47750	105.01650
34600.00000	104.75453	1308.55036	104.75453
34650.00000	104.99628	1310.81657	104.99628
34700.00000	104.71829	1310.57194	104.71829
34750.00000	104.91048	1305.94685	104.91048
34800.00000	105.04598	1307.19423	105.04598
34850.00000	105.17971	1307.77670	105.17971
34900.00000	105.24391	1304.64459	105.24391
34950.00000	105.15526	1305.64987	105.15526
35000.00000	105.23626	1303.56730	105.23626
35050.00000	105.32055	1304.71635	105.32055
35100.00000	105.60181	1303.27202	105.60181
35150.00000	105.39013	1304.33044	105.39013
35200.00000	105.67515	1301.68485	105.67515
35250.00000	105.88234	1303.10432	105.88234
35300.00000	106.18662	1301.71861	106.18662
35350.00000	106.44496	1299.87359	106.44496
35400.00000	106.52584	1298.44177	106.52584
35450.00000	106.76287	1298.54667	106.76287
35500.00000	106.58998	1297.65530	106.58998
35550.00000	107.12434	1297.79027	107.12434
35600.00000	107.35241	1296.38479	107.35241
35650.00000	107.54088	1294.33043	107.54088
35700.00000	107.65283	1293.55166	107.65283
35750.00000	107.75981	1293.49161	107.75981
35800.00000	108.08713	1294.15847	108.08713
35850.00000	108.41374	1291.44005	108.41374
35900.00000	108.75107	1289.93518	108.75107
35950.00000	108.98390	1288.38143	108.98390
36000.00000	109.24013	1288.43627	109.24013
36050.00000	109.54034	1286.76163	109.54034
36100.00000	109.97006	1285.38385	109.97006
36150.00000	110.08533	1284.24818	110.08533
36200.00000	110.40112	1283.48951	110.40112
36250.00000	110.57586	1281.72192	110.57586
36300.00000	110.77345	1280.36085	110.77345
36350.00000	111.20946	1278.87968	111.20946
36400.00000	111.58592	1277.25030	111.58592
36450.00000	111.70256	1274.55790	111.70256
36500.00000	112.23796	1273.76842	112.23796
36550.00000	112.48047	1270.61925	112.48047
36600.00000	112.68253	1269.08445	112.68253
36650.00000	113.05530	1266.84230	113.05530
36700.00000	113.40780	1263.91295	113.40780
36750.00000	113.64531	1261.56753	113.64531
36800.00000	113.83596	1259.33315	113.83596
36850.00000	113.95298	1257.20864	113.95298
36900.00000	114.46139	1254.04867	114.46139
36950.00000	114.43291	1251.24489	114.43291
37000.00000	114.41061	1249.94108	114.41061
37050.00000	114.71357	1247.87562	114.71357
37100.00000	115.10170	1243.87168	115.10170
37150.00000	115.35722	1240.55262	115.35722
37200.00000	115.74490	1238.66374	115.74490
37250.00000	115.61019	1235.55919	115.61019
37300.00000	115.87270	1233.10602	115.87270
37350.00000	116.33211	1229.81416	116.33211
37400.00000	116.21951	1227.60589	116.21951
37450.00000	116.33955	1224.84551	116.33955
37500.00000	116.91930	1220.92007	116.91930
37550.00000	116.78113	1218.09941	116.78113
37600.00000	117.01260	1215.35713	117.01260
37650.00000	117.16905	1212.25292	117.16905
37700.00000	117.38706	1208.07306	117.38706
37750.00000	117.55004	1205.67481	117.55004
37800.00000	117.63681	1201.77059	117.63681
37850.00000	117.86423	1197.20076	117.86423
37900.00000	118.04301	1194.20783	118.04301
37950.00000	118.20012	1191.63336	118.20012
38000.00000	118.25005	1188.35159	118.25005
38050.00000	118.54831	1184.41269	118.54831
38100.00000	118.75393	1180.52679	118.75393
38150.00000	118.81532	1175.94607	118.81532
38200.00000	119.09381	1171.90504	119.09381
38250.00000	119.26576	1168.47476	119.26576
38300.00000	119.54757	1163.18584	119.54757
38350.00000	119.64569	1159.73980	119.64569
38400.00000	119.77853	1155.18843	119.77853
38450.00000	119.95527	1150.03068	119.95527
38500.00000	120.14463	1145.18577	120.14463
38550.00000	120.38736	1140.88957	120.38736
38600.00000	120.55597	1136.07069	120.55597
38650.00000	120.69866	1130.75705	120.69866
38700.00000	120.78847	1125.68213	120.78847
38750.00000	120.94640	1120.84304	120.94640
38800.00000	121.10037	1115.66332	121.10037
38850.00000	121.19501	1109.88642	121.19501
38900.00000	121.31549	1104.78255	121.31549
38950.00000	121.35293	1099.18022	121.35293
39000.00000	121.42944	1093.55753	121.42944
39050.00000	121.54045	1088.14976	121.54045
39100.00000	121.45965	1082.45771	121.45965
39150.00000	121.44972	1076.78371	121.44972
39200.00000	121.43668	1071.44461	121.43668
39250.00000	121.42310	1065.63654	121.42310
39300.00000	121.38204	1059.72092	121.38204
39350.00000	121.27109	1054.68231	121.27109
39400.00000	121.16095	1048.62370	121.16095
39450.00000	121.00550	1043.55576	121.00550
39500.00000	120.86845	1037.98646	120.86845
39550.00000	120.66581	1032.26729	120.66581
39600.00000	120.41434	1027.03742	120.41434
39650.00000	120.24073	1022.13348	120.24073
39700.00000	119.91982	1016.87083	119.91982
39750.00000	119.71454	1011.73230	119.71454
39800.00000	119.41386	1006.67458	119.41386
39850.00000	119.09303	1002.06012	119.09303
39900.00000	118.75650	997.72446	118.75650
39950.00000	118.45937	993.47811	118.45937
40000.00000	117.92890	990.26000	117.92890
40050.00000	117.68765	985.04433	117.68765
40100.00000	117.36281	981.16194	117.36281
40150.00000	116.92821	977.25997	116.92821
40200.00000	116.53960	973.27140	116.53960
40250.00000	116.11324	970.41658	116.11324
40300.00000	115.82118	967.25182	115.82118
40350.00000	115.25175	964.34236	115.25175
40400.00000	114.74199	961.29462	114.74199
40450.00000	114.38403	958.99373	114.38403
40500.00000	114.06830	956.95977	114.06830
40550.00000	113.65479	953.93546	113.65479
40600.00000	113.17811	952.18709	113.17811
40650.00000	112.77133	950.79408	112.77133
40700.00000	112.20212	949.60408	112.20212
40750.00000	112.04760	948.03887	112.04760
40800.00000	111.55450	946.43172	111.55450
40850.00000	111.13516	946.57950	111.13516
40900.00000	110.74631	944.66305	110.74631
40950.00000	110.18718	945.31230	110.18718
41000.00000	109.81518	944.72252	109.81518
41050.00000	109.55483	944.98017	109.55483
41100.00000	109.45629	944.40910	109.45629
41150.00000	109.31562	946.44364	109.31562
41200.00000	108.93556	945.31613	108.93556
41250.00000	108.75891	944.22172	108.75891
41300.00000	108.23131	945.86782	108.23131
41350.00000	108.19315	948.70588	108.19315
41400.00000	108.07795	944.40774	108.07795
41450.00000	107.99112	948.08458	107.99112
41500.00000	107.80395	947.42486	107.80395
41550.00000	107.32774	951.73556	107.32774
41600.00000	107.30720	951.79637	107.30720
41650.00000	107.46263	949.82491	107.46263
41700.00000	107.64333	952.38952	107.64333
41750.00000	107.51034	957.64560	107.51034
41800.00000	106.69956	951.72646	106.69956
41850.00000	106.45494	954.51111	106.45494
41900.00000	106.43388	954.80637	106.43388
41950.00000	107.51725	961.28876	107.51725
42000.00000	106.32543	956.48215	106.32543
42050.00000	105.46839	956.40437	105.46839
42100.00000	106.05127	957.93962	106.05127
42150.00000	105.66048	952.02920	105.66048
42200.00000	105.69781	961.79171	105.69781
42250.00000	105.50767	960.32187	105.50767
42300.00000	104.71046	957.62823	104.71046
42350.00000	105.28511	959.27185	105.28511
42400.00000	105.11048	960.60819	105.11048
42450.00000	105.79287	952.83963	105.79287
42500.00000	105.12989	956.67863	105.12989
42550.00000	104.72071	966.38555	104.72071
42600.00000	104.83620	958.22136	104.83620
42650.00000	104.61004	958.21282	104.61004
42700.00000	104.56153	955.41904	104.56153
42750.00000	105.57908	956.91156	105.57908
42800.00000	104.52551	948.43228	104.52551
42850.00000	104.59274	944.84062	104.59274
42900.00000	105.92775	952.65607	105.92775
42950.00000	104.94764	944.58468	104.94764
43000.00000	105.75590	935.78749	105.75590
43050.00000	105.42932	933.60978	105.42932
43100.00000	105.24207	932.15773	105.24207
43150.00000	104.93718	928.92282	104.93718
43200.00000	105.30235	924.13511	105.30235
43250.00000	105.86584	919.06048	105.86584
43300.00000	105.74466	916.28167	105.74466
43350.00000	106.48675	908.89099	106.48675
43400.00000	106.17100	906.34871	106.17100
43450.00000	107.05289	904.09577	107.05289
43500.00000	106.15000	894.09402	106.15000
43550.00000	106.64201	890.80322	106.64201
43600.00000	106.32890	885.16779	106.32890
43650.00000	106.99062	873.59469	106.99062
43700.00000	106.68144	875.24645	106.68144
43750.00000	106.33757	871.48637	106.33757
43800.00000	106.95614	862.99776	106.95614
43850.00000	107.47001	857.09235	107.47001
43900.00000	107.95492	854.27127	107.95492
43950.00000	107.89147	848.06234	107.89147
44000.00000	107.60529	843.04384	107.60529
44050.00000	108.05893	836.51243	108.05893
44100.00000	108.08455	823.72014	108.08455
44150.00000	107.97368	827.77288	107.97368
44200.00000	107.65343	826.06668	107.65343
44250.00000	108.29265	818.04368	108.29265
44300.00000	108.29675	809.96297	108.29675
44350.00000	107.50317	804.96659	107.50317
44400.00000	108.36934	802.38425	108.36934
44450.00000	108.50324	798.83667	108.50324
44500.00000	108.32651	795.91067	108.32651
44550.00000	109.29553	784.92458	109.29553
44600.00000	108.62930	787.82002	108.62930
44650.00000	108.06550	777.81751	108.06550
44700.00000	108.06139	773.54222	108.06139
44750.00000	108.02077	773.11646	108.02077
44800.00000	108.70408	765.58173	108.70408
44850.00000	108.41180	760.57464	108.41180
44900.00000	107.90570	759.05079	107.90570
44950.00000	108.12151	752.97454	108.12151
45000.00000	108.26001	742.25611	108.26001
45050.00000	106.80967	749.44586	106.80967
45100.00000	107.32541	741.38963	107.32541
45150.00000	107.48265	730.84785	107.48265
45200.00000	106.95324	734.95023	106.95324
45250.00000	106.94668	728.16645	106.94668
45300.00000	106.85296	722.71697	106.85296
45350.00000	106.08628	716.62724	106.08628
45400.00000	106.31138	715.57633	106.31138
45450.00000	106.21993	710.26044	106.21993
45500.00000	104.58496	703.18404	104.58496
45550.00000	104.77743	706.21671	104.77743
45600.00000	105.72180	698.35823	105.72180
45650.00000	104.24031	692.15945	104.24031
45700.00000	103.93273	690.62209	103.93273
45750.00000	105.04926	696.20149	105.04926
45800.00000	103.41028	684.78319	103.41028
45850.00000	103.82159	682.49031	103.82159
45900.00000	103.08502	681.73380	103.08502
45950.00000	102.52976	684.59469	102.52976
46000.00000	101.30014	666.86461	101.30014
46050.00000	101.79364	667.57368	101.79364
46100.00000	100.66279	670.48491	100.66279
46150.00000	100.62136	669.62771	100.62136
46200.00000	98.00965	660.05293	98.00965
46250.00000	99.87897	662.06262	99.87897
46300.00000	98.30667	661.34899	98.30667
46350.00000	99.63068	655.40160	99.63068
46400.00000	97.83434	653.13601	97.83434
46450.00000	95.76677	653.84872	95.76677
46500.00000	97.14718	657.75562	97.14718
46550.00000	96.52092	661.46708	96.52092
46600.00000	97.48207	660.15338	97.48207
46650.00000	94.15446	658.81385	94.15446
46700.00000	94.19704	667.83480	94.19704
46750.00000	95.34538	676.09914	95.34538
46800.00000	93.03965	665.80805	93.03965
46850.00000	94.24062	323.88250	94.24062
46900.00000	94.28889	311.35044	94.28889
46950.00000	95.41046	312.47945	95.41046
47000.00000	94.92192	319.55321	94.92192
47050.00000	96.35124	310.03155	96.35124
47100.00000	95.20672	307.94851	95.20672
47150.00000	95.80391	310.18517	95.80391
47200.00000	94.89515	310.32819	94.89515
47250.00000	96.97967	310.52720	96.97967
47300.00000	95.91982	298.05426	95.91982
47350.00000	95.82233	-45.36087	95.82233
47400.00000	95.07200	-51.90621	95.07200
47450.00000	96.30006	-48.08953	96.30006
47500.00000	94.61682	-63.52381	94.61682
47550.00000	94.53145	-412.92850	94.53145
47600.00000	94.93295	-416.96173	94.93295
47650.00000	96.93635	-424.51348	96.93635
47700.00000	95.61626	-422.61565	95.61626
47750.00000	93.48040	-420.78181	93.48040
47800.00000	94.62132	-435.48512	94.62132
47850.00000	95.18892	-784.97494	95.18892
47900.00000	95.09963	-1134.74098	95.09963
47950.00000	94.37721	-1135.03142	94.37721
48000.00000	94.21609	-1134.87072	94.21609
48050.00000	95.75393	-1145.71662	95.75393
48100.00000	94.19651	-1146.81806	94.19651
48150.00000	94.97377	-1500.52079	94.97377
48200.00000	95.24385	-1498.54031	95.24385
48250.00000	94.71742	-1506.94053	94.71742
48300.00000	95.58121	-1503.03308	95.58121
48350.00000	95.54762	-1513.36764	95.54762
48400.00000	96.25596	-1853.99725	96.25596
48450.00000	96.88287	-1862.25085	96.88287
48500.00000	96.08973	-1866.24544	96.08973
48550.00000	94.94005	-1873.78460	94.94005
48600.00000	97.25500	-2225.41177	97.25500
48650.00000	97.34908	-2229.40836	97.34908
48700.00000	98.35101	-2236.89698	98.35101
48750.00000	96.44328	-2587.57151	96.44328
48800.00000	97.60356	-2595.00228	97.60356
48850.00000	97.81765	-2602.93458	97.81765
48900.00000	97.05234	-2957.63395	97.05234
48950.00000	98.01003	-2973.44568	98.01003
49000.00000	98.51168	-2973.13472	98.51168
49050.00000	97.70639	-2973.64799	97.70639
49100.00000	97.28205	-3336.78990	97.28205
49150.00000	98.83475	-3697.25374	98.83475
49200.00000	98.17330	-3710.90615	98.17330
49250.00000	98.35357	-4059.19522	98.35357
49300.00000	98.92456	-3716.37476	98.92456
49350.00000	96.46814	-3700.85909	96.46814
49400.00000	97.69179	-3355.77838	97.69179
49450.00000	95.46379	-3003.69811	95.46379
49500.00000	95.72398	-2654.30355	95.72398
49550.00000	96.28644	-2300.07580	96.28644
49600.00000	94.86955	-2295.05738	94.86955
49650.00000	94.96646	-2291.76292	94.96646
49700.00000	94.17399	-1963.93783	94.17399
49750.00000	95.24817	-1958.97144	95.24817
49800.00000	90.85225	-1959.73138	90.85225
49850.00000	90.15024	-1948.04673	90.15024
49900.00000	86.83210	-1589.82151	86.83210
49950.00000	88.83326	-1233.19351	88.83326
