---ACOUSTIC CALIBRATION---
Filename: C:\Data\AZH DATA\AZH82\RightPrimary.calib
Date: 8/27/2019 4:50:10 PM
Format: 4
Probe Tube Correction File: C:\Data\Probe Tube Calibrations\50_ProbeTube.calib
Experiment VIs: 850
EPL_CFTS.exe V12.0.1 (2012)
DAQmx V9.6

Attenuation (dB): 40.000000
Min Freq (Hz): 50.000000
Max Freq (Hz): 49950.000000
Freq Step (Hz): 50.000000
Sample Rate (Hz): 100000.000000
[Smoothing]
Method=None
MA.Iterations=0
MA.Length=0
Loess.Length=0
Loess.Type=Linear
Loess.Robust=FALSE


Freq(Hz)	Mag(dB)	Phase(deg)	Unsmoothed(dB)

50.00000	109.14099	320.63107	109.14099
100.00000	80.15109	147.44785	80.15109
150.00000	74.46900	119.39821	74.46900
200.00000	81.45920	81.62234	81.45920
250.00000	88.58901	80.26245	88.58901
300.00000	84.12334	49.86402	84.12334
350.00000	88.66468	31.78450	88.66468
400.00000	86.80644	23.80151	86.80644
450.00000	87.82444	10.66471	87.82444
500.00000	90.22346	 2.28809	90.22346
550.00000	92.81005	 4.45018	92.81005
600.00000	94.83194	10.55685	94.83194
650.00000	97.01773	-5.94450	97.01773
700.00000	99.82395	-23.70096	99.82395
750.00000	101.02204	-43.26736	101.02204
800.00000	102.20976	-63.67669	102.20976
850.00000	101.30840	-82.91284	101.30840
900.00000	99.52777	-96.76108	99.52777
950.00000	97.76794	-100.68665	97.76794
1000.00000	96.22763	-102.70868	96.22763
1050.00000	94.31254	-84.41005	94.31254
1100.00000	95.92253	-64.07607	95.92253
1150.00000	98.81173	-59.34668	98.81173
1200.00000	101.50048	-61.31161	101.50048
1250.00000	103.25843	-69.20348	103.25843
1300.00000	105.01643	-75.76866	105.01643
1350.00000	106.18048	-84.52851	106.18048
1400.00000	106.97721	-91.77906	106.97721
1450.00000	107.96397	-98.51768	107.96397
1500.00000	108.99943	-106.02896	108.99943
1550.00000	109.84427	-114.06528	109.84427
1600.00000	111.38628	-124.00273	111.38628
1650.00000	112.27057	-140.53318	112.27057
1700.00000	111.05124	-150.58393	111.05124
1750.00000	110.76217	-155.79917	110.76217
1800.00000	110.55440	-160.70226	110.55440
1850.00000	110.56967	-161.11188	110.56967
1900.00000	111.84089	-165.03293	111.84089
1950.00000	112.49569	-178.54261	112.49569
2000.00000	111.55742	-190.44790	111.55742
2050.00000	110.26742	-185.44790	110.26742
2100.00000	112.21736	-186.42800	112.21736
2150.00000	112.74364	-197.98294	112.74364
2200.00000	112.61653	-207.91285	112.61653
2250.00000	112.10014	-214.57552	112.10014
2300.00000	112.19648	-220.64365	112.19648
2350.00000	111.92705	-226.69183	111.92705
2400.00000	111.61012	-232.53061	111.61012
2450.00000	111.39639	-238.70839	111.39639
2500.00000	111.05039	-244.15988	111.05039
2550.00000	110.53564	-248.98827	110.53564
2600.00000	110.06719	-253.50775	110.06719
2650.00000	109.50577	-257.80851	109.50577
2700.00000	108.98341	-261.50856	108.98341
2750.00000	108.44958	-264.55332	108.44958
2800.00000	107.81834	-266.60673	107.81834
2850.00000	107.23009	-269.64862	107.23009
2900.00000	106.61661	-271.28252	106.61661
2950.00000	105.95150	-272.15299	105.95150
3000.00000	105.33939	-273.85124	105.33939
3050.00000	104.55824	-274.19284	104.55824
3100.00000	103.65680	-273.61629	103.65680
3150.00000	102.57496	-273.73798	102.57496
3200.00000	101.32715	-266.88382	101.32715
3250.00000	100.40861	-256.23311	100.40861
3300.00000	99.88953	-245.36549	99.88953
3350.00000	100.13375	-227.10975	100.13375
3400.00000	102.12749	-211.42715	102.12749
3450.00000	104.69712	-203.95620	104.69712
3500.00000	107.26801	-202.74445	107.26801
3550.00000	109.30294	-206.73123	109.30294
3600.00000	111.04213	-210.46412	111.04213
3650.00000	112.47522	-215.67403	112.47522
3700.00000	113.75604	-220.46546	113.75604
3750.00000	115.06107	-225.97148	115.06107
3800.00000	116.28783	-232.65824	116.28783
3850.00000	117.27470	-239.34486	117.27470
3900.00000	118.22962	-246.10943	118.22962
3950.00000	119.13840	-253.27655	119.13840
4000.00000	119.98144	-260.70479	119.98144
4050.00000	120.74621	-268.10529	120.74621
4100.00000	121.57327	-275.59364	121.57327
4150.00000	122.56145	-283.93920	122.56145
4200.00000	123.27615	-294.02369	123.27615
4250.00000	123.95823	-305.05051	123.95823
4300.00000	124.40097	-317.12578	124.40097
4350.00000	124.50245	-329.58648	124.50245
4400.00000	124.35694	-341.29049	124.35694
4450.00000	124.04052	-351.90280	124.04052
4500.00000	123.63439	-361.54658	123.63439
4550.00000	123.19921	-370.64750	123.19921
4600.00000	122.70694	-379.02733	122.70694
4650.00000	122.25700	-386.93294	122.25700
4700.00000	121.75630	-395.35403	121.75630
4750.00000	121.12502	-403.91377	121.12502
4800.00000	120.31222	-412.55257	120.31222
4850.00000	119.19753	-420.27264	119.19753
4900.00000	117.86991	-426.14026	117.86991
4950.00000	116.47138	-429.15290	116.47138
5000.00000	115.20580	-429.91801	115.20580
5050.00000	114.08463	-429.76339	114.08463
5100.00000	112.89580	-425.75955	112.89580
5150.00000	112.82447	-420.42812	112.82447
5200.00000	112.05789	-415.80906	112.05789
5250.00000	113.43594	-402.85248	113.43594
5300.00000	115.84658	-410.90104	115.84658
5350.00000	116.06003	-423.81844	116.06003
5400.00000	115.51206	-431.46711	115.51206
5450.00000	114.99225	-435.92626	114.99225
5500.00000	114.56521	-439.15998	114.56521
5550.00000	114.24421	-441.84960	114.24421
5600.00000	113.99330	-444.26650	113.99330
5650.00000	113.79565	-446.68159	113.79565
5700.00000	113.59344	-449.20429	113.59344
5750.00000	113.44563	-451.52750	113.44563
5800.00000	113.27332	-453.99014	113.27332
5850.00000	113.14176	-456.34595	113.14176
5900.00000	113.03218	-458.84586	113.03218
5950.00000	112.89064	-461.20303	112.89064
6000.00000	112.77519	-463.41094	112.77519
6050.00000	112.67657	-465.63280	112.67657
6100.00000	112.61558	-467.91779	112.61558
6150.00000	112.56521	-470.25534	112.56521
6200.00000	112.50808	-472.78224	112.50808
6250.00000	112.46816	-475.48217	112.46816
6300.00000	112.41320	-478.23024	112.41320
6350.00000	112.32940	-481.00542	112.32940
6400.00000	112.26390	-483.74157	112.26390
6450.00000	112.19248	-486.43658	112.19248
6500.00000	112.10205	-489.19634	112.10205
6550.00000	112.01174	-491.86830	112.01174
6600.00000	111.94104	-494.43534	111.94104
6650.00000	111.86995	-497.06015	111.86995
6700.00000	111.81851	-499.85785	111.81851
6750.00000	111.75703	-502.47821	111.75703
6800.00000	111.70933	-505.08126	111.70933
6850.00000	111.65879	-507.79238	111.65879
6900.00000	111.61410	-510.45866	111.61410
6950.00000	111.56830	-513.04161	111.56830
7000.00000	111.56358	-515.78147	111.56358
7050.00000	111.54070	-518.67244	111.54070
7100.00000	111.52588	-521.73325	111.52588
7150.00000	111.50025	-524.68140	111.50025
7200.00000	111.46735	-527.85645	111.46735
7250.00000	111.41104	-531.00724	111.41104
7300.00000	111.39154	-534.29506	111.39154
7350.00000	111.32473	-537.44789	111.32473
7400.00000	111.28390	-540.94501	111.28390
7450.00000	111.20414	-544.33874	111.20414
7500.00000	111.09820	-547.80479	111.09820
7550.00000	111.04806	-551.37334	111.04806
7600.00000	110.91671	-554.85069	110.91671
7650.00000	110.78658	-558.33576	110.78658
7700.00000	110.71129	-561.80583	110.71129
7750.00000	110.53499	-565.25443	110.53499
7800.00000	110.38307	-568.70443	110.38307
7850.00000	110.21261	-572.16655	110.21261
7900.00000	110.05571	-575.34486	110.05571
7950.00000	109.89242	-578.87102	109.89242
8000.00000	109.71255	-582.20112	109.71255
8050.00000	109.52052	-585.89098	109.52052
8100.00000	109.31428	-588.68665	109.31428
8150.00000	109.08003	-591.79995	109.08003
8200.00000	108.85811	-594.81390	108.85811
8250.00000	108.60350	-598.10947	108.60350
8300.00000	108.35270	-601.17973	108.35270
8350.00000	108.08036	-603.95942	108.08036
8400.00000	107.80839	-607.35080	107.80839
8450.00000	107.46672	-610.23585	107.46672
8500.00000	107.19427	-613.55526	107.19427
8550.00000	106.94195	-616.54195	106.94195
8600.00000	106.65155	-619.89634	106.65155
8650.00000	106.34010	-622.69350	106.34010
8700.00000	106.07825	-625.88595	106.07825
8750.00000	105.74569	-627.86587	105.74569
8800.00000	105.47380	-630.66560	105.47380
8850.00000	105.10486	-633.01174	105.10486
8900.00000	104.77739	-634.78440	104.77739
8950.00000	104.42043	-637.11331	104.42043
9000.00000	103.98912	-639.24291	103.98912
9050.00000	103.62134	-641.56519	103.62134
9100.00000	103.24559	-643.51483	103.24559
9150.00000	102.90036	-645.81247	102.90036
9200.00000	102.64191	-648.02633	102.64191
9250.00000	102.31778	-650.52470	102.31778
9300.00000	102.11522	-652.38926	102.11522
9350.00000	101.96908	-654.44031	101.96908
9400.00000	101.68498	-655.54236	101.68498
9450.00000	101.51073	-656.33588	101.51073
9500.00000	101.37785	-656.35486	101.37785
9550.00000	101.29274	-656.29561	101.29274
9600.00000	101.22032	-657.57048	101.22032
9650.00000	101.00007	-659.15609	101.00007
9700.00000	100.74166	-660.07480	100.74166
9750.00000	100.57799	-662.32435	100.57799
9800.00000	100.33227	-663.93538	100.33227
9850.00000	100.19370	-665.58531	100.19370
9900.00000	99.94033	-667.56321	99.94033
9950.00000	99.84863	-668.91988	99.84863
10000.00000	99.78849	-671.01102	99.78849
10050.00000	99.69293	-672.28651	99.69293
10100.00000	99.53213	-673.43607	99.53213
10150.00000	99.30839	-675.14769	99.30839
10200.00000	99.13073	-676.62699	99.13073
10250.00000	98.86992	-678.56727	98.86992
10300.00000	98.75143	-680.79707	98.75143
10350.00000	98.53866	-682.88236	98.53866
10400.00000	98.31902	-685.65429	98.31902
10450.00000	98.26391	-688.53045	98.26391
10500.00000	98.23551	-690.90232	98.23551
10550.00000	98.16274	-693.26604	98.16274
10600.00000	98.07363	-695.13668	98.07363
10650.00000	97.92606	-696.61173	97.92606
10700.00000	97.79776	-699.46289	97.79776
10750.00000	97.64140	-701.46123	97.64140
10800.00000	97.32416	-703.36577	97.32416
10850.00000	97.07615	-706.53996	97.07615
10900.00000	96.82838	-708.93787	96.82838
10950.00000	96.59391	-711.07803	96.59391
11000.00000	96.39052	-713.57701	96.39052
11050.00000	96.00751	-715.94758	96.00751
11100.00000	95.74684	-718.23228	95.74684
11150.00000	95.36476	-720.05128	95.36476
11200.00000	95.09168	-721.65387	95.09168
11250.00000	94.62968	-724.00498	94.62968
11300.00000	94.16863	-726.24853	94.16863
11350.00000	93.71239	-727.70513	93.71239
11400.00000	93.16106	-729.37532	93.16106
11450.00000	92.72596	-731.23419	92.72596
11500.00000	92.39680	-731.72490	92.39680
11550.00000	91.88802	-732.38766	91.88802
11600.00000	91.60060	-733.60564	91.60060
11650.00000	91.15528	-733.08299	91.15528
11700.00000	90.77612	-733.05287	90.77612
11750.00000	90.44201	-733.02490	90.44201
11800.00000	90.08021	-732.76847	90.08021
11850.00000	89.78567	-731.48655	89.78567
11900.00000	89.35527	-731.09581	89.35527
11950.00000	89.13210	-730.06315	89.13210
12000.00000	88.82453	-728.65154	88.82453
12050.00000	88.62065	-727.36983	88.62065
12100.00000	88.47139	-727.83314	88.47139
12150.00000	88.37779	-727.79289	88.37779
12200.00000	88.31839	-727.30018	88.31839
12250.00000	88.26009	-726.31193	88.26009
12300.00000	89.36540	-725.53304	89.36540
12350.00000	88.28024	-724.90301	88.28024
12400.00000	88.24422	-723.73128	88.24422
12450.00000	88.19851	-722.44730	88.19851
12500.00000	88.11458	-722.88857	88.11458
12550.00000	88.09202	-722.86083	88.09202
12600.00000	88.11232	-723.43950	88.11232
12650.00000	88.35547	-723.83306	88.35547
12700.00000	88.33192	-724.59834	88.33192
12750.00000	88.35763	-725.26750	88.35763
12800.00000	88.36035	-724.85660	88.36035
12850.00000	88.12609	-725.11083	88.12609
12900.00000	88.17177	-725.40263	88.17177
12950.00000	88.15814	-726.52880	88.15814
13000.00000	88.07311	-727.75711	88.07311
13050.00000	88.09613	-727.37331	88.09613
13100.00000	88.06860	-728.46617	88.06860
13150.00000	88.11010	-729.34945	88.11010
13200.00000	88.14348	-728.98861	88.14348
13250.00000	88.12956	-729.08831	88.12956
13300.00000	88.03813	-727.57530	88.03813
13350.00000	87.89902	-728.51643	87.89902
13400.00000	87.97464	-728.86108	87.97464
13450.00000	87.88046	-728.52001	87.88046
13500.00000	88.06386	-727.87545	88.06386
13550.00000	87.83555	-728.47708	87.83555
13600.00000	87.89136	-727.40222	87.89136
13650.00000	87.92427	-727.49683	87.92427
13700.00000	87.77350	-727.36067	87.77350
13750.00000	87.84320	-727.47830	87.84320
13800.00000	87.70188	-729.71677	87.70188
13850.00000	87.85538	-730.40494	87.85538
13900.00000	87.81839	-729.51913	87.81839
13950.00000	87.98056	-728.96002	87.98056
14000.00000	88.19355	-727.05314	88.19355
14050.00000	88.31757	-727.10116	88.31757
14100.00000	88.22176	-726.87543	88.22176
14150.00000	88.30140	-726.92577	88.30140
14200.00000	88.49227	-726.79682	88.49227
14250.00000	89.06773	-724.89370	89.06773
14300.00000	89.18633	-724.62862	89.18633
14350.00000	89.26993	-723.08143	89.26993
14400.00000	89.03536	-722.68967	89.03536
14450.00000	89.21030	-721.45527	89.21030
14500.00000	89.34951	-722.25851	89.34951
14550.00000	89.75334	-721.00072	89.75334
14600.00000	89.88013	-722.05229	89.88013
14650.00000	90.35228	-719.79009	90.35228
14700.00000	90.69382	-723.49160	90.69382
14750.00000	90.99628	-722.23195	90.99628
14800.00000	91.25313	-721.55513	91.25313
14850.00000	91.69252	-720.65237	91.69252
14900.00000	92.15473	-720.85476	92.15473
14950.00000	92.57153	-721.59961	92.57153
15000.00000	93.09860	-722.00061	93.09860
15050.00000	93.39557	-721.45458	93.39557
15100.00000	93.95061	-721.50026	93.95061
15150.00000	94.53635	-722.86428	94.53635
15200.00000	94.88175	-723.19416	94.88175
15250.00000	95.20914	-725.62587	95.20914
15300.00000	95.86851	-727.69177	95.86851
15350.00000	96.29714	-730.24655	96.29714
15400.00000	96.68112	-731.45832	96.68112
15450.00000	97.03702	-734.00235	97.03702
15500.00000	97.51684	-736.08981	97.51684
15550.00000	97.93515	-739.27364	97.93515
15600.00000	98.22536	-741.88954	98.22536
15650.00000	98.63546	-743.01477	98.63546
15700.00000	98.78859	-746.79240	98.78859
15750.00000	99.20431	-749.19812	99.20431
15800.00000	99.52908	-750.77395	99.52908
15850.00000	99.72934	-753.09587	99.72934
15900.00000	99.88706	-755.97622	99.88706
15950.00000	100.18645	-758.71016	100.18645
16000.00000	100.46571	-760.82022	100.46571
16050.00000	100.79008	-763.02469	100.79008
16100.00000	100.91601	-765.73619	100.91601
16150.00000	101.14859	-768.07629	101.14859
16200.00000	101.39403	-771.33349	101.39403
16250.00000	101.67096	-773.47708	101.67096
16300.00000	102.08307	-776.22966	102.08307
16350.00000	102.27389	-778.80067	102.27389
16400.00000	102.52607	-780.96401	102.52607
16450.00000	102.75615	-783.45220	102.75615
16500.00000	102.98495	-786.43204	102.98495
16550.00000	103.23975	-790.01198	103.23975
16600.00000	103.53432	-792.52449	103.53432
16650.00000	103.73457	-795.25617	103.73457
16700.00000	103.95435	-797.93331	103.95435
16750.00000	104.05303	-801.14319	104.05303
16800.00000	104.29896	-804.70561	104.29896
16850.00000	104.55485	-807.60529	104.55485
16900.00000	104.76003	-810.88154	104.76003
16950.00000	104.93413	-813.99438	104.93413
17000.00000	104.95313	-817.15876	104.95313
17050.00000	105.19646	-819.54778	105.19646
17100.00000	105.23862	-821.76908	105.23862
17150.00000	105.51438	-825.82112	105.51438
17200.00000	105.66581	-828.71561	105.66581
17250.00000	105.73769	-832.22342	105.73769
17300.00000	105.94006	-835.19786	105.94006
17350.00000	105.95092	-838.04087	105.95092
17400.00000	106.11863	-841.16578	106.11863
17450.00000	106.18612	-844.65971	106.18612
17500.00000	106.33777	-847.72133	106.33777
17550.00000	106.46785	-850.74050	106.46785
17600.00000	106.65529	-853.37888	106.65529
17650.00000	106.71732	-857.33221	106.71732
17700.00000	106.79743	-860.76265	106.79743
17750.00000	107.00400	-863.27004	107.00400
17800.00000	107.00549	-867.17177	107.00549
17850.00000	107.13092	-869.90491	107.13092
17900.00000	107.16780	-873.27608	107.16780
17950.00000	107.33537	-876.91782	107.33537
18000.00000	107.39837	-880.83349	107.39837
18050.00000	107.58770	-883.63934	107.58770
18100.00000	107.56563	-887.54421	107.56563
18150.00000	107.63086	-890.40583	107.63086
18200.00000	107.60699	-894.48813	107.60699
18250.00000	107.71411	-897.11965	107.71411
18300.00000	107.80801	-900.72608	107.80801
18350.00000	107.82556	-904.01950	107.82556
18400.00000	107.78854	-907.83489	107.78854
18450.00000	107.77164	-912.40039	107.77164
18500.00000	107.76438	-915.75158	107.76438
18550.00000	107.74414	-918.65394	107.74414
18600.00000	107.81969	-922.71929	107.81969
18650.00000	107.66444	-925.90524	107.66444
18700.00000	107.58579	-929.73225	107.58579
18750.00000	107.59190	-932.92392	107.59190
18800.00000	107.64776	-935.74593	107.64776
18850.00000	107.45989	-939.28173	107.45989
18900.00000	107.37205	-942.34195	107.37205
18950.00000	107.33643	-946.02415	107.33643
19000.00000	107.11948	-948.76084	107.11948
19050.00000	107.18135	-951.85125	107.18135
19100.00000	107.04672	-954.73905	107.04672
19150.00000	107.10981	-957.59373	107.10981
19200.00000	107.01003	-960.21410	107.01003
19250.00000	106.91168	-964.30919	106.91168
19300.00000	106.77417	-966.51027	106.77417
19350.00000	106.73877	-969.51241	106.73877
19400.00000	106.62078	-972.31203	106.62078
19450.00000	106.64394	-974.57710	106.64394
19500.00000	106.49357	-978.26631	106.49357
19550.00000	106.43629	-981.06208	106.43629
19600.00000	106.43026	-984.40608	106.43026
19650.00000	106.29254	-986.78404	106.29254
19700.00000	106.13158	-989.87528	106.13158
19750.00000	106.03041	-992.10758	106.03041
19800.00000	106.04588	-995.85700	106.04588
19850.00000	105.96743	-998.36103	105.96743
19900.00000	105.83481	-1001.92451	105.83481
19950.00000	105.71298	-1004.60062	105.71298
20000.00000	105.63006	-1007.47134	105.63006
20050.00000	105.54416	-1010.43522	105.54416
20100.00000	105.34124	-1013.35138	105.34124
20150.00000	105.29120	-1015.21539	105.29120
20200.00000	105.12487	-1018.92630	105.12487
20250.00000	104.94797	-1021.58003	104.94797
20300.00000	104.72919	-1024.36811	104.72919
20350.00000	104.65482	-1027.24271	104.65482
20400.00000	104.41964	-1029.23225	104.41964
20450.00000	104.16535	-1031.94113	104.16535
20500.00000	104.05449	-1034.82078	104.05449
20550.00000	103.61782	-1036.54800	103.61782
20600.00000	103.50107	-1038.44751	103.50107
20650.00000	103.28707	-1040.59533	103.28707
20700.00000	103.01653	-1042.51101	103.01653
20750.00000	102.85816	-1044.16393	102.85816
20800.00000	102.58734	-1045.47523	102.58734
20850.00000	102.44855	-1047.02471	102.44855
20900.00000	102.18711	-1048.30774	102.18711
20950.00000	102.00716	-1049.00791	102.00716
21000.00000	101.83031	-1049.71073	101.83031
21050.00000	101.83665	-1050.28934	101.83665
21100.00000	101.70424	-1050.83451	101.70424
21150.00000	101.69910	-1051.79733	101.69910
21200.00000	101.73845	-1052.24303	101.73845
21250.00000	101.70579	-1054.25771	101.70579
21300.00000	101.79273	-1054.74251	101.79273
21350.00000	101.80835	-1055.74829	101.80835
21400.00000	101.83109	-1057.36469	101.83109
21450.00000	101.89568	-1058.88843	101.89568
21500.00000	101.96576	-1060.87598	101.96576
21550.00000	101.90307	-1062.08570	101.90307
21600.00000	102.02125	-1063.98013	102.02125
21650.00000	102.01701	-1066.21755	102.01701
21700.00000	102.01296	-1067.82339	102.01296
21750.00000	102.02301	-1069.71657	102.02301
21800.00000	102.03474	-1071.80775	102.03474
21850.00000	101.96378	-1073.74323	101.96378
21900.00000	101.95724	-1075.51331	101.95724
21950.00000	101.91677	-1077.10862	101.91677
22000.00000	101.95240	-1078.94168	101.95240
22050.00000	101.87656	-1080.38983	101.87656
22100.00000	101.86906	-1082.25250	101.86906
22150.00000	101.83421	-1083.85861	101.83421
22200.00000	101.87509	-1085.52873	101.87509
22250.00000	101.81086	-1086.96146	101.81086
22300.00000	101.70726	-1088.74289	101.70726
22350.00000	101.82126	-1090.60906	101.82126
22400.00000	101.85632	-1092.45193	101.85632
22450.00000	101.74787	-1093.90913	101.74787
22500.00000	101.70805	-1094.83688	101.70805
22550.00000	101.69525	-1096.78971	101.69525
22600.00000	101.73939	-1099.27082	101.73939
22650.00000	101.66894	-1101.19384	101.66894
22700.00000	101.68819	-1102.55693	101.68819
22750.00000	101.59725	-1102.45394	101.59725
22800.00000	101.69414	-1106.43284	101.69414
22850.00000	101.70996	-1108.90346	101.70996
22900.00000	101.74927	-1109.04427	101.74927
22950.00000	101.78577	-1110.87297	101.78577
23000.00000	101.72509	-1112.00455	101.72509
23050.00000	101.61816	-1115.15282	101.61816
23100.00000	101.77024	-1115.79696	101.77024
23150.00000	101.58445	-1116.79815	101.58445
23200.00000	101.80927	-1119.84154	101.80927
23250.00000	101.54798	-1122.66998	101.54798
23300.00000	101.79838	-1124.28389	101.79838
23350.00000	101.50260	-1126.21311	101.50260
23400.00000	101.48202	-1127.54972	101.48202
23450.00000	101.58541	-1130.82452	101.58541
23500.00000	101.48234	-1131.31194	101.48234
23550.00000	101.43603	-1131.50388	101.43603
23600.00000	101.31486	-1135.18071	101.31486
23650.00000	101.34292	-1136.13196	101.34292
23700.00000	101.55723	-1139.90216	101.55723
23750.00000	101.44345	-1140.37604	101.44345
23800.00000	101.13974	-1141.51558	101.13974
23850.00000	101.28519	-1142.13738	101.28519
23900.00000	101.60477	-1144.41240	101.60477
23950.00000	101.26134	-1147.11192	101.26134
24000.00000	101.07519	-1149.28023	101.07519
24050.00000	101.23818	-1149.73240	101.23818
24100.00000	101.63615	-1153.17474	101.63615
24150.00000	101.60417	-1154.20748	101.60417
24200.00000	101.50049	-1156.87368	101.50049
24250.00000	101.14794	-1157.13730	101.14794
24300.00000	101.55215	-1158.95772	101.55215
24350.00000	101.41313	-1161.20717	101.41313
24400.00000	101.43377	-1164.18629	101.43377
24450.00000	101.16294	-1165.14998	101.16294
24500.00000	101.74567	-1166.34362	101.74567
24550.00000	101.61605	-1170.72312	101.61605
24600.00000	102.04501	-1171.16490	102.04501
24650.00000	101.77653	-815.46398	101.77653
24700.00000	101.64787	-814.67693	101.64787
24750.00000	101.81738	-458.91190	101.81738
24800.00000	101.86164	-100.67251	101.86164
24850.00000	101.59122	257.77955	101.59122
24900.00000	101.75714	617.23101	101.75714
24950.00000	101.96543	973.57225	101.96543
25000.00000	102.00544	966.83206	102.00544
25050.00000	101.73111	968.23087	101.73111
25100.00000	101.72971	962.76841	101.72971
25150.00000	102.06638	963.01257	102.06638
25200.00000	101.97573	958.68697	101.97573
25250.00000	102.17092	957.94644	102.17092
25300.00000	102.19590	956.10986	102.19590
25350.00000	102.08966	950.11220	102.08966
25400.00000	102.10403	946.96886	102.10403
25450.00000	102.35872	945.92246	102.35872
25500.00000	102.15936	943.36147	102.15936
25550.00000	102.18083	940.01307	102.18083
25600.00000	102.21670	938.01081	102.21670
25650.00000	102.20047	936.64004	102.20047
25700.00000	102.19890	932.83077	102.19890
25750.00000	102.00959	930.46971	102.00959
25800.00000	101.99799	926.50304	101.99799
25850.00000	101.97322	924.41345	101.97322
25900.00000	101.98043	920.58455	101.98043
25950.00000	101.76350	922.25963	101.76350
26000.00000	101.82217	916.79035	101.82217
26050.00000	101.76270	914.77702	101.76270
26100.00000	101.71113	912.75105	101.71113
26150.00000	101.69322	910.02217	101.69322
26200.00000	101.83089	908.41568	101.83089
26250.00000	101.69355	906.00950	101.69355
26300.00000	101.78707	902.34604	101.78707
26350.00000	101.26677	901.96480	101.26677
26400.00000	101.42869	899.23209	101.42869
26450.00000	101.70481	894.94924	101.70481
26500.00000	101.47809	893.42787	101.47809
26550.00000	101.39360	888.37105	101.39360
26600.00000	101.27846	886.97179	101.27846
26650.00000	101.41799	887.76296	101.41799
26700.00000	101.34076	883.93150	101.34076
26750.00000	101.18170	882.23135	101.18170
26800.00000	101.22245	876.87362	101.22245
26850.00000	101.43935	876.98922	101.43935
26900.00000	101.49750	875.18496	101.49750
26950.00000	101.57066	870.93601	101.57066
27000.00000	101.11325	869.78603	101.11325
27050.00000	101.50239	867.15676	101.50239
27100.00000	101.25664	866.07505	101.25664
27150.00000	101.24034	862.38843	101.24034
27200.00000	101.32404	860.71265	101.32404
27250.00000	101.11837	858.89443	101.11837
27300.00000	100.94606	855.49523	100.94606
27350.00000	101.05047	855.43208	101.05047
27400.00000	100.90512	851.92519	100.90512
27450.00000	100.86001	850.51652	100.86001
27500.00000	100.79212	847.65910	100.79212
27550.00000	100.85267	845.66900	100.85267
27600.00000	101.06491	841.28028	101.06491
27650.00000	100.57881	840.69781	100.57881
27700.00000	100.64907	835.83892	100.64907
27750.00000	100.73262	832.86182	100.73262
27800.00000	100.75526	828.34574	100.75526
27850.00000	100.92915	830.02184	100.92915
27900.00000	100.46049	827.76556	100.46049
27950.00000	99.89744	824.81372	99.89744
28000.00000	99.88550	822.96438	99.88550
28050.00000	100.44865	818.93726	100.44865
28100.00000	99.75151	817.50657	99.75151
28150.00000	99.82878	816.34198	99.82878
28200.00000	99.81788	811.10587	99.81788
28250.00000	99.33194	807.67018	99.33194
28300.00000	98.98268	808.89276	98.98268
28350.00000	99.14461	806.87774	99.14461
28400.00000	98.90178	806.21496	98.90178
28450.00000	99.21780	802.41288	99.21780
28500.00000	98.68704	801.52266	98.68704
28550.00000	98.41672	802.58275	98.41672
28600.00000	98.31466	800.32416	98.31466
28650.00000	98.36316	795.26985	98.36316
28700.00000	98.13232	797.25653	98.13232
28750.00000	98.72349	796.52542	98.72349
28800.00000	98.54160	795.14715	98.54160
28850.00000	97.69641	790.24954	97.69641
28900.00000	97.76147	790.65529	97.76147
28950.00000	97.52342	789.76346	97.52342
29000.00000	97.60846	789.70113	97.60846
29050.00000	97.36450	789.91776	97.36450
29100.00000	97.09549	789.06024	97.09549
29150.00000	96.91431	788.26174	96.91431
29200.00000	96.63344	785.78218	96.63344
29250.00000	96.99225	785.78095	96.99225
29300.00000	96.64822	784.60552	96.64822
29350.00000	96.80874	782.74898	96.80874
29400.00000	96.82703	783.65940	96.82703
29450.00000	96.61035	783.01132	96.61035
29500.00000	96.99873	783.05395	96.99873
29550.00000	96.69994	778.31499	96.69994
29600.00000	96.51722	780.58593	96.51722
29650.00000	96.73233	778.85684	96.73233
29700.00000	96.60220	780.24016	96.60220
29750.00000	96.56900	780.82062	96.56900
29800.00000	96.44174	777.96504	96.44174
29850.00000	96.55558	777.34255	96.55558
29900.00000	96.92880	778.08148	96.92880
29950.00000	96.17182	777.30328	96.17182
30000.00000	96.62939	779.14031	96.62939
30050.00000	96.67945	776.79261	96.67945
30100.00000	96.53468	778.33090	96.53468
30150.00000	96.69127	774.73537	96.69127
30200.00000	96.85559	774.03914	96.85559
30250.00000	96.67840	773.71377	96.67840
30300.00000	96.61314	773.93419	96.61314
30350.00000	96.74878	775.47683	96.74878
30400.00000	96.82446	773.67792	96.82446
30450.00000	96.59240	773.19760	96.59240
30500.00000	96.72841	772.77391	96.72841
30550.00000	96.72229	773.97211	96.72229
30600.00000	96.79175	774.39006	96.79175
30650.00000	97.07752	774.23575	97.07752
30700.00000	97.23438	773.91782	97.23438
30750.00000	97.18441	774.85766	97.18441
30800.00000	97.45092	774.72562	97.45092
30850.00000	97.80311	776.42886	97.80311
30900.00000	97.77665	777.78206	97.77665
30950.00000	98.38237	777.14763	98.38237
31000.00000	98.65145	776.08181	98.65145
31050.00000	99.13374	776.86285	99.13374
31100.00000	99.64915	777.16940	99.64915
31150.00000	99.79550	776.05549	99.79550
31200.00000	100.66660	775.03182	100.66660
31250.00000	100.99330	773.85043	100.99330
31300.00000	101.47012	772.15861	101.47012
31350.00000	102.01640	770.93212	102.01640
31400.00000	102.41529	767.60493	102.41529
31450.00000	102.90781	765.49642	102.90781
31500.00000	103.32909	762.36411	103.32909
31550.00000	103.73249	759.88364	103.73249
31600.00000	104.29756	755.40986	104.29756
31650.00000	104.62821	752.26722	104.62821
31700.00000	105.04601	749.43418	105.04601
31750.00000	105.42439	746.95749	105.42439
31800.00000	105.70174	742.38401	105.70174
31850.00000	106.01215	737.91476	106.01215
31900.00000	106.04900	734.62755	106.04900
31950.00000	106.48822	730.66446	106.48822
32000.00000	106.67914	726.53410	106.67914
32050.00000	106.96651	723.01931	106.96651
32100.00000	107.09911	718.72500	107.09911
32150.00000	107.24600	715.58084	107.24600
32200.00000	107.45434	711.44729	107.45434
32250.00000	107.54709	706.90298	107.54709
32300.00000	107.66751	703.77759	107.66751
32350.00000	107.76092	700.70042	107.76092
32400.00000	107.90253	696.38373	107.90253
32450.00000	107.94113	692.76168	107.94113
32500.00000	108.11331	689.60194	108.11331
32550.00000	108.29936	684.90926	108.29936
32600.00000	108.26604	681.84216	108.26604
32650.00000	108.39029	678.05435	108.39029
32700.00000	108.23031	674.33287	108.23031
32750.00000	108.31945	670.23125	108.31945
32800.00000	108.52135	667.79830	108.52135
32850.00000	108.54050	663.70713	108.54050
32900.00000	108.50152	659.09804	108.50152
32950.00000	108.37702	654.84512	108.37702
33000.00000	108.36340	652.93362	108.36340
33050.00000	108.33886	648.22436	108.33886
33100.00000	108.34082	645.36639	108.34082
33150.00000	108.27813	641.94777	108.27813
33200.00000	108.38136	639.79574	108.38136
33250.00000	108.19590	636.73308	108.19590
33300.00000	108.10649	631.77792	108.10649
33350.00000	107.98624	628.30990	107.98624
33400.00000	107.79162	627.11323	107.79162
33450.00000	107.78884	622.88661	107.78884
33500.00000	107.87555	622.00566	107.87555
33550.00000	107.43697	617.55811	107.43697
33600.00000	107.73449	615.90851	107.73449
33650.00000	107.41605	612.46682	107.41605
33700.00000	107.50532	610.34291	107.50532
33750.00000	107.15199	607.35755	107.15199
33800.00000	107.10042	604.40501	107.10042
33850.00000	106.81564	603.43118	106.81564
33900.00000	106.82692	600.27161	106.82692
33950.00000	106.74192	598.44942	106.74192
34000.00000	106.67175	596.34708	106.67175
34050.00000	106.50283	593.53118	106.50283
34100.00000	106.18675	593.62702	106.18675
34150.00000	106.30729	589.48948	106.30729
34200.00000	106.05115	590.76677	106.05115
34250.00000	106.31358	586.67387	106.31358
34300.00000	106.08324	584.98871	106.08324
34350.00000	105.97953	584.33572	105.97953
34400.00000	105.65868	583.32515	105.65868
34450.00000	105.69448	579.55749	105.69448
34500.00000	105.67960	578.37930	105.67960
34550.00000	105.83685	578.46259	105.83685
34600.00000	105.54018	575.92938	105.54018
34650.00000	105.75663	575.83985	105.75663
34700.00000	105.38008	575.81422	105.38008
34750.00000	105.50400	570.97970	105.50400
34800.00000	105.72211	571.43835	105.72211
34850.00000	105.66519	572.83019	105.66519
34900.00000	105.76812	569.09613	105.76812
34950.00000	105.73770	568.91985	105.73770
35000.00000	105.77354	566.63268	105.77354
35050.00000	105.83705	566.50815	105.83705
35100.00000	106.00242	564.34739	106.00242
35150.00000	105.71498	564.77808	105.71498
35200.00000	105.80363	562.67635	105.80363
35250.00000	105.83016	561.09611	105.83016
35300.00000	105.98203	560.22183	105.98203
35350.00000	106.27279	558.65763	106.27279
35400.00000	106.10184	556.79454	106.10184
35450.00000	106.15169	555.88702	106.15169
35500.00000	105.92473	554.26398	105.92473
35550.00000	106.46766	554.45887	106.46766
35600.00000	106.29723	552.58362	106.29723
35650.00000	106.51338	549.59224	106.51338
35700.00000	106.68531	548.90245	106.68531
35750.00000	106.40422	548.54991	106.40422
35800.00000	106.61019	548.58459	106.61019
35850.00000	106.73329	545.37748	106.73329
35900.00000	106.78218	543.78337	106.78218
35950.00000	106.86412	542.97455	106.86412
36000.00000	106.89122	543.22088	106.89122
36050.00000	107.09962	543.03256	107.09962
36100.00000	107.17265	539.62939	107.17265
36150.00000	106.94918	538.47565	106.94918
36200.00000	107.17827	538.74529	107.17827
36250.00000	107.29670	536.75668	107.29670
36300.00000	107.09446	536.55881	107.09446
36350.00000	107.30844	536.10787	107.30844
36400.00000	107.63312	535.51645	107.63312
36450.00000	107.55084	533.88457	107.55084
36500.00000	107.83900	534.17621	107.83900
36550.00000	107.86915	531.42187	107.86915
36600.00000	108.10168	531.89072	108.10168
36650.00000	108.45438	530.43281	108.45438
36700.00000	108.61923	528.61827	108.61923
36750.00000	108.84239	527.84293	108.84239
36800.00000	109.06028	526.49079	109.06028
36850.00000	109.13544	524.30497	109.13544
36900.00000	109.56066	522.67704	109.56066
36950.00000	109.52860	521.16352	109.52860
37000.00000	109.61886	519.45796	109.61886
37050.00000	109.92568	518.25270	109.92568
37100.00000	110.24855	515.45293	110.24855
37150.00000	110.59001	512.98436	110.59001
37200.00000	111.00745	513.02414	111.00745
37250.00000	110.85570	509.76837	110.85570
37300.00000	111.23274	506.63343	111.23274
37350.00000	111.75685	503.93275	111.75685
37400.00000	111.75263	502.06547	111.75263
37450.00000	111.87184	499.70874	111.87184
37500.00000	112.45902	495.31796	112.45902
37550.00000	112.36305	493.15057	112.36305
37600.00000	112.70004	490.30076	112.70004
37650.00000	112.90274	486.86274	112.90274
37700.00000	113.21770	482.89947	113.21770
37750.00000	113.42955	480.72848	113.42955
37800.00000	113.43595	476.68143	113.43595
37850.00000	113.81965	471.55773	113.81965
37900.00000	113.99389	468.83470	113.99389
37950.00000	114.28781	465.95729	114.28781
38000.00000	114.30913	462.14727	114.30913
38050.00000	114.66643	458.05663	114.66643
38100.00000	114.97943	454.09487	114.97943
38150.00000	115.05618	449.28758	115.05618
38200.00000	115.42125	444.99718	115.42125
38250.00000	115.58227	441.26852	115.58227
38300.00000	115.92177	435.98902	115.92177
38350.00000	116.02889	432.21665	116.02889
38400.00000	116.21543	427.54728	116.21543
38450.00000	116.44510	422.22759	116.44510
38500.00000	116.65595	417.35070	116.65595
38550.00000	116.93165	412.94174	116.93165
38600.00000	117.12145	407.81703	117.12145
38650.00000	117.34990	402.44985	117.34990
38700.00000	117.46724	397.10187	117.46724
38750.00000	117.66812	392.25540	117.66812
38800.00000	117.86192	386.69789	117.86192
38850.00000	117.97235	380.84868	117.97235
38900.00000	118.14625	375.58163	118.14625
38950.00000	118.18741	369.88358	118.18741
39000.00000	118.31227	364.05120	118.31227
39050.00000	118.41484	358.40178	118.41484
39100.00000	118.33181	352.60470	118.33181
39150.00000	118.29557	346.51630	118.29557
39200.00000	118.32954	340.90445	118.32954
39250.00000	118.28332	334.93900	118.28332
39300.00000	118.16873	329.03137	118.16873
39350.00000	118.04642	323.93497	118.04642
39400.00000	117.86250	318.01688	117.86250
39450.00000	117.64345	312.98607	117.64345
39500.00000	117.50926	307.68988	117.50926
39550.00000	117.21497	302.06537	117.21497
39600.00000	116.90212	297.19678	116.90212
39650.00000	116.70329	292.92950	116.70329
39700.00000	116.37302	288.20382	116.37302
39750.00000	116.10340	283.34211	116.10340
39800.00000	115.79381	279.00031	115.79381
39850.00000	115.40489	274.73304	115.40489
39900.00000	115.11439	270.84318	115.11439
39950.00000	114.73907	267.22048	114.73907
40000.00000	114.26723	264.90918	114.26723
40050.00000	114.02832	259.85099	114.02832
40100.00000	113.67765	256.56242	113.67765
40150.00000	113.24419	253.13105	113.24419
40200.00000	112.97512	250.20474	112.97512
40250.00000	112.49716	247.00049	112.49716
40300.00000	112.29261	244.33505	112.29261
40350.00000	111.68822	241.66508	111.68822
40400.00000	111.31393	239.19329	111.31393
40450.00000	110.92485	237.06909	110.92485
40500.00000	110.64630	235.09897	110.64630
40550.00000	110.18863	232.51306	110.18863
40600.00000	109.82033	231.13477	109.82033
40650.00000	109.42334	229.60517	109.42334
40700.00000	108.92225	228.68582	108.92225
40750.00000	108.77231	227.22509	108.77231
40800.00000	108.34031	225.52234	108.34031
40850.00000	107.84216	224.51200	107.84216
40900.00000	107.50726	223.08498	107.50726
40950.00000	106.82486	223.57824	106.82486
41000.00000	106.37592	222.96813	106.37592
41050.00000	106.20445	222.19398	106.20445
41100.00000	105.93620	221.68248	105.93620
41150.00000	105.58541	223.58369	105.58541
41200.00000	105.38440	223.64080	105.38440
41250.00000	104.76475	222.33952	104.76475
41300.00000	104.40157	223.30090	104.40157
41350.00000	104.36584	224.25039	104.36584
41400.00000	103.98658	221.25299	103.98658
41450.00000	103.95192	224.31194	103.95192
41500.00000	103.64316	225.04060	103.64316
41550.00000	102.85632	230.12019	102.85632
41600.00000	102.45709	228.27411	102.45709
41650.00000	102.82345	229.10131	102.82345
41700.00000	102.34304	227.77755	102.34304
41750.00000	101.92291	233.18130	101.92291
41800.00000	100.96833	230.60296	100.96833
41850.00000	100.57481	235.18331	100.57481
41900.00000	100.34053	235.22505	100.34053
41950.00000	101.49648	242.74005	101.49648
42000.00000	100.03968	234.69592	100.03968
42050.00000	98.57749	239.68096	98.57749
42100.00000	99.26655	237.99331	99.26655
42150.00000	98.12689	236.44387	98.12689
42200.00000	98.03612	246.70665	98.03612
42250.00000	97.21777	249.74568	97.21777
42300.00000	96.07846	240.37286	96.07846
42350.00000	97.04430	238.12817	97.04430
42400.00000	96.08747	253.27751	96.08747
42450.00000	96.91119	250.70153	96.91119
42500.00000	95.96307	253.77534	95.96307
42550.00000	95.48174	257.69668	95.48174
42600.00000	95.35730	259.82685	95.35730
42650.00000	93.39600	260.92843	93.39600
42700.00000	96.04731	253.18853	96.04731
42750.00000	94.51892	256.39502	94.51892
42800.00000	93.64751	246.93445	93.64751
42850.00000	94.10617	240.28404	94.10617
42900.00000	94.98871	243.50604	94.98871
42950.00000	93.80776	242.39690	93.80776
43000.00000	93.81194	235.62335	93.81194
43050.00000	93.74152	231.61710	93.74152
43100.00000	93.80913	224.73523	93.80913
43150.00000	93.61108	228.10337	93.61108
43200.00000	93.22415	211.89142	93.22415
43250.00000	95.42468	210.92429	95.42468
43300.00000	95.07068	204.35195	95.07068
43350.00000	96.72260	191.62937	96.72260
43400.00000	96.73296	187.56104	96.73296
43450.00000	97.31465	186.25532	97.31465
43500.00000	97.40291	177.61448	97.40291
43550.00000	98.51496	173.48304	98.51496
43600.00000	99.14018	163.89370	99.14018
43650.00000	99.93317	157.17568	99.93317
43700.00000	100.48220	158.12032	100.48220
43750.00000	100.27686	157.75040	100.27686
43800.00000	100.65675	147.84115	100.65675
43850.00000	102.15430	140.18021	102.15430
43900.00000	102.86595	135.48835	102.86595
43950.00000	103.42088	130.43848	103.42088
44000.00000	103.28044	123.51357	103.28044
44050.00000	103.73513	121.31449	103.73513
44100.00000	104.33943	110.01166	104.33943
44150.00000	104.64589	108.65546	104.64589
44200.00000	104.06059	106.96950	104.06059
44250.00000	104.93765	100.89469	104.93765
44300.00000	105.48297	91.62858	105.48297
44350.00000	104.57643	87.32037	104.57643
44400.00000	105.77805	84.42284	105.77805
44450.00000	106.18653	80.85053	106.18653
44500.00000	105.70835	78.45192	105.70835
44550.00000	108.59215	65.33515	108.59215
44600.00000	105.84519	66.87600	105.84519
44650.00000	105.83589	60.46721	105.83589
44700.00000	106.00831	55.49454	106.00831
44750.00000	106.12061	54.12802	106.12061
44800.00000	106.69290	45.57399	106.69290
44850.00000	106.28135	40.05218	106.28135
44900.00000	106.22701	39.69499	106.22701
44950.00000	106.27370	34.60557	106.27370
45000.00000	106.61710	25.67609	106.61710
45050.00000	105.31444	30.60380	105.31444
45100.00000	105.89261	21.75792	105.89261
45150.00000	105.97340	 9.96990	105.97340
45200.00000	105.49705	16.54225	105.49705
45250.00000	105.56254	10.43761	105.56254
45300.00000	105.35203	 5.25931	105.35203
45350.00000	105.07360	-1.99314	105.07360
45400.00000	105.29365	-1.09856	105.29365
45450.00000	104.90449	-7.42197	104.90449
45500.00000	103.74259	-18.23438	103.74259
45550.00000	103.57869	-9.32960	103.57869
45600.00000	104.64454	-20.32575	104.64454
45650.00000	103.00302	-24.74488	103.00302
45700.00000	102.90849	-26.96358	102.90849
45750.00000	103.71930	-23.76569	103.71930
45800.00000	102.96503	-32.51764	102.96503
45850.00000	102.54135	-33.97483	102.54135
45900.00000	102.10420	-35.95735	102.10420
45950.00000	101.89228	-32.15031	101.89228
46000.00000	100.50858	-49.60073	100.50858
46050.00000	100.51590	-49.06868	100.51590
46100.00000	99.84385	-48.61978	99.84385
46150.00000	99.34824	-46.36262	99.34824
46200.00000	97.37815	-55.35977	97.37815
46250.00000	98.77269	-56.38300	98.77269
46300.00000	97.68107	-56.00179	97.68107
46350.00000	99.03504	-59.38174	99.03504
46400.00000	97.59292	-64.38066	97.59292
46450.00000	95.79190	-63.32893	95.79190
46500.00000	96.74347	-62.44988	96.74347
46550.00000	96.28497	-57.83492	96.28497
46600.00000	95.72742	-56.18018	95.72742
46650.00000	93.57416	-59.95740	93.57416
46700.00000	93.70239	-51.09455	93.70239
46750.00000	94.95536	-46.30381	94.95536
46800.00000	92.42355	-52.81074	92.42355
46850.00000	94.06633	-396.97511	94.06633
46900.00000	94.19532	-406.38756	94.19532
46950.00000	94.65184	-405.22316	94.65184
47000.00000	94.36834	-402.62560	94.36834
47050.00000	95.55523	-413.86952	95.55523
47100.00000	94.92836	-411.59326	94.92836
47150.00000	95.56508	-409.60252	95.56508
47200.00000	94.68053	-408.80393	94.68053
47250.00000	96.11468	-412.48792	96.11468
47300.00000	95.34663	-420.97810	95.34663
47350.00000	94.97416	-769.95299	94.97416
47400.00000	94.44480	-771.02287	94.44480
47450.00000	95.83839	-768.96788	95.83839
47500.00000	94.24380	-782.46082	94.24380
47550.00000	93.74333	-1132.77511	93.74333
47600.00000	94.20229	-1134.41085	94.20229
47650.00000	96.09832	-1143.01354	96.09832
47700.00000	95.55904	-1140.54174	95.55904
47750.00000	93.04319	-1138.00133	93.04319
47800.00000	94.12705	-1153.35044	94.12705
47850.00000	94.26887	-1504.49062	94.26887
47900.00000	94.68008	-1854.79236	94.68008
47950.00000	93.96809	-1857.31307	93.96809
48000.00000	93.63318	-1853.31978	93.63318
48050.00000	95.15196	-1863.69190	95.15196
48100.00000	93.63242	-1869.42850	93.63242
48150.00000	94.41872	-2219.26851	94.41872
48200.00000	94.24094	-2215.40689	94.24094
48250.00000	94.02353	-2223.20658	94.02353
48300.00000	94.77896	-2221.65049	94.77896
48350.00000	94.15191	-2229.50452	94.15191
48400.00000	95.40715	-2574.55792	95.40715
48450.00000	96.11144	-2578.38034	96.11144
48500.00000	95.44658	-2585.52899	95.44658
48550.00000	94.20027	-2593.84189	94.20027
48600.00000	96.49514	-2942.02005	96.49514
48650.00000	96.84373	-2943.78572	96.84373
48700.00000	96.82449	-2953.93818	96.82449
48750.00000	95.99745	-3304.02041	95.99745
48800.00000	96.75948	-3316.16315	96.75948
48850.00000	96.69497	-3317.45799	96.69497
48900.00000	96.08075	-3668.67953	96.08075
48950.00000	96.81280	-3685.66428	96.81280
49000.00000	97.34644	-3684.09452	97.34644
49050.00000	96.70181	-3690.56127	96.70181
49100.00000	96.72208	-4052.54446	96.72208
49150.00000	97.61981	-4406.08728	97.61981
49200.00000	96.99176	-4416.41134	96.99176
49250.00000	96.55355	-4763.50246	96.55355
49300.00000	97.78893	-4421.83397	97.78893
49350.00000	95.26778	-4408.69827	95.26778
49400.00000	95.62691	-4060.98600	95.62691
49450.00000	95.51704	-3706.23021	95.51704
49500.00000	94.93385	-3349.48811	94.93385
49550.00000	96.74272	-2993.41083	96.74272
49600.00000	94.79356	-2987.43399	94.79356
49650.00000	96.61103	-2974.11454	96.61103
49700.00000	95.46836	-2644.29012	95.46836
49750.00000	96.66396	-2637.22536	96.66396
49800.00000	94.20049	-2640.48092	94.20049
49850.00000	95.11133	-2617.66081	95.11133
49900.00000	92.84960	-2272.50918	92.84960
49950.00000	95.69918	-1921.75291	95.69918
