---ACOUSTIC CALIBRATION---
Filename: C:\Data\AZH DATA\AZH82\RightPrimary.calib
Date: 8/27/2019 4:50:20 PM
Format: 4
Probe Tube Correction File: C:\Data\Probe Tube Calibrations\50_ProbeTube.calib
Experiment VIs: 850
EPL_CFTS.exe V12.0.1 (2012)
DAQmx V9.6

Attenuation (dB): 40.000000
Min Freq (Hz): 50.000000
Max Freq (Hz): 49950.000000
Freq Step (Hz): 50.000000
Sample Rate (Hz): 100000.000000
[Smoothing]
Method=None
MA.Iterations=0
MA.Length=0
Loess.Length=0
Loess.Type=Linear
Loess.Robust=FALSE


Freq(Hz)	Mag(dB)	Phase(deg)	Unsmoothed(dB)

50.00000	101.58083	363.38593	101.58083
100.00000	79.48772	351.54164	79.48772
150.00000	78.75205	511.36057	78.75205
200.00000	80.95038	454.10736	80.95038
250.00000	90.69864	445.43019	90.69864
300.00000	83.82807	394.57230	83.82807
350.00000	84.55497	331.74688	84.55497
400.00000	86.24247	369.10590	86.24247
450.00000	86.32677	370.68902	86.32677
500.00000	90.05543	382.10649	90.05543
550.00000	90.74577	371.27436	90.74577
600.00000	93.84738	370.71529	93.84738
650.00000	97.22113	355.18404	97.22113
700.00000	99.09252	336.07334	99.09252
750.00000	101.10897	318.88469	101.10897
800.00000	101.84036	291.61860	101.84036
850.00000	101.26933	277.58123	101.26933
900.00000	99.55797	259.89521	99.55797
950.00000	97.81517	257.78622	97.81517
1000.00000	96.28919	258.66785	96.28919
1050.00000	94.22510	271.99451	94.22510
1100.00000	96.11334	296.13116	96.11334
1150.00000	98.82631	300.10264	98.82631
1200.00000	101.79319	299.18648	101.79319
1250.00000	103.37448	290.42263	103.37448
1300.00000	105.10427	284.92515	105.10427
1350.00000	106.29832	275.18245	106.29832
1400.00000	107.17521	268.67616	107.17521
1450.00000	108.11742	261.13087	108.11742
1500.00000	109.21733	254.07310	109.21733
1550.00000	109.98521	245.82694	109.98521
1600.00000	111.33569	236.88973	111.33569
1650.00000	112.40175	219.36667	112.40175
1700.00000	111.10389	209.79746	111.10389
1750.00000	110.87175	203.84811	110.87175
1800.00000	110.57342	199.08877	110.57342
1850.00000	110.72566	198.53235	110.72566
1900.00000	111.87153	194.72736	111.87153
1950.00000	112.58209	181.42711	112.58209
2000.00000	111.65299	169.65783	111.65299
2050.00000	110.39519	174.64888	110.39519
2100.00000	112.24234	173.28681	112.24234
2150.00000	112.84531	162.09770	112.84531
2200.00000	112.76030	152.13280	112.76030
2250.00000	112.14522	145.11169	112.14522
2300.00000	112.30673	139.53938	112.30673
2350.00000	112.02194	132.86167	112.02194
2400.00000	111.74713	127.61553	111.74713
2450.00000	111.45924	121.13221	111.45924
2500.00000	111.08866	116.24869	111.08866
2550.00000	110.64012	110.30826	110.64012
2600.00000	110.13163	106.27726	110.13163
2650.00000	109.65351	102.34699	109.65351
2700.00000	109.14251	98.46453	109.14251
2750.00000	108.54635	95.20364	108.54635
2800.00000	107.96978	92.48305	107.96978
2850.00000	107.40183	90.18921	107.40183
2900.00000	106.78084	88.06489	106.78084
2950.00000	106.14370	87.21086	106.14370
3000.00000	105.44923	85.72408	105.44923
3050.00000	104.68924	84.84959	104.68924
3100.00000	104.04070	85.32501	104.04070
3150.00000	102.86505	86.02297	102.86505
3200.00000	101.53320	91.88115	101.53320
3250.00000	100.56264	101.62952	100.56264
3300.00000	99.99709	113.11481	99.99709
3350.00000	100.12480	130.15870	100.12480
3400.00000	101.93482	147.37428	101.93482
3450.00000	104.54075	154.85699	104.54075
3500.00000	107.11216	156.32494	107.11216
3550.00000	109.16633	153.50866	109.16633
3600.00000	110.95165	149.82647	110.95165
3650.00000	112.40215	144.39089	112.40215
3700.00000	113.69283	139.59611	113.69283
3750.00000	115.00282	134.30321	115.00282
3800.00000	116.21094	127.95651	116.21094
3850.00000	117.25559	121.19680	117.25559
3900.00000	118.21635	114.44751	118.21635
3950.00000	119.16364	107.25437	119.16364
4000.00000	119.98135	99.81604	119.98135
4050.00000	120.78456	92.48299	120.78456
4100.00000	121.61402	84.99560	121.61402
4150.00000	122.62087	76.64277	122.62087
4200.00000	123.36696	66.67594	123.36696
4250.00000	124.06077	55.58494	124.06077
4300.00000	124.51307	43.45033	124.51307
4350.00000	124.63668	30.94531	124.63668
4400.00000	124.50833	19.19772	124.50833
4450.00000	124.19274	 8.41319	124.19274
4500.00000	123.79493	-1.38814	123.79493
4550.00000	123.34640	-10.53579	123.34640
4600.00000	122.84748	-19.02464	122.84748
4650.00000	122.39705	-26.96667	122.39705
4700.00000	121.89531	-35.34549	121.89531
4750.00000	121.27213	-43.91469	121.27213
4800.00000	120.45381	-52.61417	120.45381
4850.00000	119.35563	-60.41673	119.35563
4900.00000	118.02535	-66.30573	118.02535
4950.00000	116.63324	-69.59082	116.63324
5000.00000	115.35498	-70.21558	115.35498
5050.00000	114.21703	-70.13073	114.21703
5100.00000	113.01132	-66.30478	113.01132
5150.00000	112.94547	-60.83635	112.94547
5200.00000	112.11596	-56.28210	112.11596
5250.00000	113.44801	-42.88873	113.44801
5300.00000	115.93874	-50.35773	115.93874
5350.00000	116.22075	-63.59601	116.22075
5400.00000	115.68283	-71.63089	115.68283
5450.00000	115.15418	-76.13772	115.15418
5500.00000	114.72946	-79.47396	114.72946
5550.00000	114.41375	-82.14610	114.41375
5600.00000	114.13919	-84.63937	114.13919
5650.00000	113.93541	-87.02323	113.93541
5700.00000	113.73822	-89.61617	113.73822
5750.00000	113.57892	-91.91280	113.57892
5800.00000	113.41954	-94.42812	113.41954
5850.00000	113.26830	-96.75605	113.26830
5900.00000	113.13929	-99.24802	113.13929
5950.00000	113.02658	-101.61605	113.02658
6000.00000	112.90409	-103.80630	112.90409
6050.00000	112.81192	-106.10147	112.81192
6100.00000	112.74078	-108.39203	112.74078
6150.00000	112.67632	-110.72469	112.67632
6200.00000	112.60579	-113.26127	112.60579
6250.00000	112.58783	-115.86302	112.58783
6300.00000	112.52203	-118.63573	112.52203
6350.00000	112.45845	-121.45920	112.45845
6400.00000	112.37736	-124.08947	112.37736
6450.00000	112.31806	-126.96587	112.31806
6500.00000	112.22363	-129.71030	112.22363
6550.00000	112.13939	-132.34587	112.13939
6600.00000	112.07450	-134.98106	112.07450
6650.00000	112.00097	-137.51997	112.00097
6700.00000	111.95428	-140.36394	111.95428
6750.00000	111.88964	-142.94292	111.88964
6800.00000	111.82858	-145.49945	111.82858
6850.00000	111.79489	-148.21106	111.79489
6900.00000	111.75925	-150.93142	111.75925
6950.00000	111.73630	-153.53771	111.73630
7000.00000	111.71578	-156.22956	111.71578
7050.00000	111.69651	-159.22581	111.69651
7100.00000	111.66963	-162.24483	111.66963
7150.00000	111.64856	-165.17207	111.64856
7200.00000	111.63856	-168.29001	111.63856
7250.00000	111.56366	-171.57848	111.56366
7300.00000	111.55476	-174.95924	111.55476
7350.00000	111.49924	-178.06688	111.49924
7400.00000	111.47070	-181.53456	111.47070
7450.00000	111.38467	-185.08791	111.38467
7500.00000	111.36032	-188.48665	111.36032
7550.00000	111.23467	-192.29085	111.23467
7600.00000	111.11217	-195.69877	111.11217
7650.00000	110.98747	-199.24933	110.98747
7700.00000	110.89604	-202.76521	110.89604
7750.00000	110.72303	-206.31318	110.72303
7800.00000	110.57774	-209.86685	110.57774
7850.00000	110.42093	-213.28591	110.42093
7900.00000	110.24500	-216.59925	110.24500
7950.00000	110.08815	-220.20440	110.08815
8000.00000	109.92323	-223.63429	109.92323
8050.00000	109.69978	-227.36078	109.69978
8100.00000	109.49526	-230.17758	109.49526
8150.00000	109.25017	-233.40635	109.25017
8200.00000	109.02990	-236.43817	109.02990
8250.00000	108.75877	-239.85260	108.75877
8300.00000	108.48413	-242.94977	108.48413
8350.00000	108.20039	-245.75952	108.20039
8400.00000	107.91270	-249.13531	107.91270
8450.00000	107.57967	-252.25462	107.57967
8500.00000	107.28786	-255.47691	107.28786
8550.00000	107.03233	-258.38874	107.03233
8600.00000	106.71726	-261.71493	106.71726
8650.00000	106.40026	-264.68099	106.40026
8700.00000	106.14206	-267.91871	106.14206
8750.00000	105.77878	-269.72259	105.77878
8800.00000	105.50640	-272.58485	105.50640
8850.00000	105.12004	-274.88141	105.12004
8900.00000	104.78287	-276.64297	104.78287
8950.00000	104.43774	-278.92554	104.43774
9000.00000	103.97061	-281.07278	103.97061
9050.00000	103.59332	-283.33672	103.59332
9100.00000	103.21640	-285.40776	103.21640
9150.00000	102.88258	-287.59643	102.88258
9200.00000	102.57259	-290.02621	102.57259
9250.00000	102.29185	-292.23813	102.29185
9300.00000	102.09664	-294.34487	102.09664
9350.00000	101.94164	-295.88879	101.94164
9400.00000	101.65631	-297.13087	101.65631
9450.00000	101.47993	-297.93046	101.47993
9500.00000	101.32677	-297.76276	101.32677
9550.00000	101.24027	-297.70711	101.24027
9600.00000	101.16590	-299.06153	101.16590
9650.00000	100.93250	-300.66796	100.93250
9700.00000	100.67708	-301.50752	100.67708
9750.00000	100.51832	-303.98995	100.51832
9800.00000	100.26748	-305.24293	100.26748
9850.00000	100.10373	-306.94337	100.10373
9900.00000	99.85409	-309.02356	99.85409
9950.00000	99.77380	-310.29963	99.77380
10000.00000	99.72159	-312.23455	99.72159
10050.00000	99.63599	-313.52264	99.63599
10100.00000	99.46362	-314.64217	99.46362
10150.00000	99.21347	-316.39655	99.21347
10200.00000	99.02596	-317.85151	99.02596
10250.00000	98.78113	-319.85823	98.78113
10300.00000	98.68183	-321.80103	98.68183
10350.00000	98.45668	-324.01238	98.45668
10400.00000	98.22127	-326.79640	98.22127
10450.00000	98.18653	-329.67292	98.18653
10500.00000	98.14253	-332.00762	98.14253
10550.00000	98.08432	-334.48892	98.08432
10600.00000	97.99146	-336.26792	97.99146
10650.00000	97.83195	-337.68628	97.83195
10700.00000	97.70349	-340.37034	97.70349
10750.00000	97.54255	-342.27130	97.54255
10800.00000	97.23796	-344.42907	97.23796
10850.00000	96.96579	-347.59234	96.96579
10900.00000	96.73887	-349.89015	96.73887
10950.00000	96.51546	-352.01131	96.51546
11000.00000	96.27408	-354.53696	96.27408
11050.00000	95.90500	-356.79827	95.90500
11100.00000	95.63985	-359.16451	95.63985
11150.00000	95.26269	-360.87045	95.26269
11200.00000	94.97700	-362.52610	94.97700
11250.00000	94.51939	-364.73758	94.51939
11300.00000	94.07562	-366.95953	94.07562
11350.00000	93.58357	-368.54802	93.58357
11400.00000	93.00188	-370.32162	93.00188
11450.00000	92.60572	-371.98681	92.60572
11500.00000	92.27990	-372.45752	92.27990
11550.00000	91.77027	-372.82577	91.77027
11600.00000	91.50149	-374.16477	91.50149
11650.00000	91.05374	-373.52750	91.05374
11700.00000	90.66753	-373.55914	90.66753
11750.00000	90.35628	-373.60187	90.35628
11800.00000	89.99206	-373.39503	89.99206
11850.00000	89.70651	-371.77236	89.70651
11900.00000	89.24621	-371.61248	89.24621
11950.00000	89.07193	-370.36861	89.07193
12000.00000	88.75175	-368.75611	88.75175
12050.00000	88.57087	-367.76024	88.57087
12100.00000	88.47758	-368.20004	88.47758
12150.00000	88.28744	-368.14533	88.28744
12200.00000	88.31327	-367.45990	88.31327
12250.00000	88.25004	-366.69333	88.25004
12300.00000	89.35282	-365.70106	89.35282
12350.00000	88.22523	-365.26841	88.22523
12400.00000	88.22609	-364.15383	88.22609
12450.00000	88.19109	-363.01364	88.19109
12500.00000	88.05078	-363.14784	88.05078
12550.00000	88.08634	-363.14819	88.08634
12600.00000	88.05840	-364.18787	88.05840
12650.00000	88.32606	-365.01486	88.32606
12700.00000	88.28244	-364.96820	88.28244
12750.00000	88.35237	-365.78014	88.35237
12800.00000	88.44852	-365.44026	88.44852
12850.00000	88.14979	-365.39289	88.14979
12900.00000	88.20129	-366.16446	88.20129
12950.00000	88.16814	-366.82743	88.16814
13000.00000	88.10778	-367.94778	88.10778
13050.00000	88.10625	-367.72008	88.10625
13100.00000	87.94692	-369.48914	87.94692
13150.00000	88.12752	-370.38606	88.12752
13200.00000	88.16830	-369.54051	88.16830
13250.00000	88.10784	-369.87796	88.10784
13300.00000	87.99795	-367.89206	87.99795
13350.00000	87.90665	-368.69200	87.90665
13400.00000	88.09356	-369.25641	88.09356
13450.00000	87.89296	-368.50624	87.89296
13500.00000	88.06064	-368.26692	88.06064
13550.00000	87.86288	-368.94181	87.86288
13600.00000	88.00001	-368.27976	88.00001
13650.00000	87.93797	-367.61269	87.93797
13700.00000	87.92657	-368.10573	87.92657
13750.00000	87.76990	-368.01551	87.76990
13800.00000	87.70353	-369.81996	87.70353
13850.00000	87.76467	-371.18803	87.76467
13900.00000	87.78902	-370.95755	87.78902
13950.00000	87.97075	-369.99551	87.97075
14000.00000	88.21350	-368.40992	88.21350
14050.00000	88.29693	-368.62389	88.29693
14100.00000	88.20436	-367.52115	88.20436
14150.00000	88.36050	-368.60738	88.36050
14200.00000	88.61826	-367.98298	88.61826
14250.00000	89.11476	-366.52623	89.11476
14300.00000	89.12660	-365.90876	89.12660
14350.00000	89.30483	-363.92419	89.30483
14400.00000	89.12750	-364.08018	89.12750
14450.00000	89.26622	-362.37399	89.26622
14500.00000	89.36232	-363.44852	89.36232
14550.00000	89.72546	-363.27924	89.72546
14600.00000	89.88479	-363.36250	89.88479
14650.00000	90.43822	-361.59334	90.43822
14700.00000	90.69969	-365.27715	90.69969
14750.00000	91.00083	-364.21705	91.00083
14800.00000	91.22904	-363.15050	91.22904
14850.00000	91.67694	-363.12581	91.67694
14900.00000	92.14095	-362.76913	92.14095
14950.00000	92.54919	-363.29794	92.54919
15000.00000	93.01664	-364.36974	93.01664
15050.00000	93.37736	-363.16216	93.37736
15100.00000	93.87671	-363.29581	93.87671
15150.00000	94.44601	-365.06886	94.44601
15200.00000	94.73576	-365.60127	94.73576
15250.00000	95.05358	-367.61308	95.05358
15300.00000	95.71007	-369.66869	95.71007
15350.00000	96.06430	-372.41306	96.06430
15400.00000	96.44365	-372.94561	96.44365
15450.00000	96.85823	-375.63829	96.85823
15500.00000	97.26742	-377.89679	97.26742
15550.00000	97.65498	-380.60488	97.65498
15600.00000	97.86995	-383.19486	97.86995
15650.00000	98.33863	-384.02979	98.33863
15700.00000	98.45110	-387.69874	98.45110
15750.00000	98.91814	-389.47599	98.91814
15800.00000	99.20334	-391.39523	99.20334
15850.00000	99.46675	-393.52261	99.46675
15900.00000	99.61634	-396.21082	99.61634
15950.00000	99.91444	-398.61143	99.91444
16000.00000	100.21294	-400.79213	100.21294
16050.00000	100.58328	-402.77675	100.58328
16100.00000	100.69816	-405.68504	100.69816
16150.00000	100.91094	-407.90280	100.91094
16200.00000	101.23280	-411.00201	101.23280
16250.00000	101.47182	-413.39625	101.47182
16300.00000	101.90779	-415.92439	101.90779
16350.00000	102.13291	-418.48960	102.13291
16400.00000	102.38888	-420.68238	102.38888
16450.00000	102.66329	-423.45896	102.66329
16500.00000	102.85648	-426.29422	102.85648
16550.00000	103.14384	-429.71448	103.14384
16600.00000	103.44996	-432.33982	103.44996
16650.00000	103.61651	-435.09356	103.61651
16700.00000	103.83291	-437.89999	103.83291
16750.00000	103.98663	-441.46216	103.98663
16800.00000	104.21545	-444.59064	104.21545
16850.00000	104.49142	-447.61541	104.49142
16900.00000	104.69149	-450.97981	104.69149
16950.00000	104.86949	-454.08568	104.86949
17000.00000	104.91596	-457.40027	104.91596
17050.00000	105.12106	-459.61109	105.12106
17100.00000	105.15276	-461.92831	105.15276
17150.00000	105.44157	-465.82719	105.44157
17200.00000	105.57756	-468.85546	105.57756
17250.00000	105.66321	-472.43761	105.66321
17300.00000	105.88457	-475.48602	105.88457
17350.00000	105.87937	-478.13496	105.87937
17400.00000	106.06259	-481.26840	106.06259
17450.00000	106.11688	-484.96385	106.11688
17500.00000	106.29684	-487.87703	106.29684
17550.00000	106.38960	-490.95773	106.38960
17600.00000	106.60295	-493.74609	106.60295
17650.00000	106.66145	-497.55000	106.66145
17700.00000	106.72809	-500.97797	106.72809
17750.00000	106.94675	-503.57587	106.94675
17800.00000	106.93966	-507.33883	106.93966
17850.00000	107.07136	-510.17190	107.07136
17900.00000	107.13468	-513.58092	107.13468
17950.00000	107.26764	-517.20100	107.26764
18000.00000	107.32879	-520.89815	107.32879
18050.00000	107.53583	-523.71909	107.53583
18100.00000	107.50844	-527.80197	107.50844
18150.00000	107.56977	-530.69624	107.56977
18200.00000	107.54742	-534.59701	107.54742
18250.00000	107.65154	-537.48462	107.65154
18300.00000	107.74271	-540.90950	107.74271
18350.00000	107.77117	-544.26339	107.77117
18400.00000	107.73156	-548.03610	107.73156
18450.00000	107.70077	-552.65679	107.70077
18500.00000	107.71665	-555.96637	107.71665
18550.00000	107.70505	-558.94601	107.70505
18600.00000	107.76807	-562.86746	107.76807
18650.00000	107.60698	-566.01218	107.60698
18700.00000	107.53467	-569.76399	107.53467
18750.00000	107.55422	-573.19193	107.55422
18800.00000	107.58835	-575.91539	107.58835
18850.00000	107.41487	-579.44916	107.41487
18900.00000	107.34587	-582.51698	107.34587
18950.00000	107.30990	-586.14807	107.30990
19000.00000	107.07789	-588.80145	107.07789
19050.00000	107.15649	-592.11100	107.15649
19100.00000	107.02943	-594.96941	107.02943
19150.00000	107.08748	-597.78777	107.08748
19200.00000	106.98965	-600.44511	106.98965
19250.00000	106.90154	-604.45428	106.90154
19300.00000	106.76753	-606.65894	106.76753
19350.00000	106.71471	-609.76242	106.71471
19400.00000	106.60612	-612.58519	106.60612
19450.00000	106.62458	-614.92221	106.62458
19500.00000	106.48336	-618.47611	106.48336
19550.00000	106.43397	-621.35512	106.43397
19600.00000	106.42087	-624.74497	106.42087
19650.00000	106.29726	-627.13823	106.29726
19700.00000	106.13975	-630.25023	106.13975
19750.00000	106.03383	-632.48813	106.03383
19800.00000	106.05126	-636.19594	106.05126
19850.00000	105.98493	-638.73386	105.98493
19900.00000	105.84254	-642.40386	105.84254
19950.00000	105.72221	-645.22178	105.72221
20000.00000	105.64090	-648.05317	105.64090
20050.00000	105.54519	-650.95952	105.54519
20100.00000	105.35576	-653.91965	105.35576
20150.00000	105.28791	-656.02090	105.28791
20200.00000	105.13372	-659.61071	105.13372
20250.00000	104.95315	-662.28915	104.95315
20300.00000	104.72768	-665.13720	104.72768
20350.00000	104.62094	-668.07494	104.62094
20400.00000	104.40914	-669.97487	104.40914
20450.00000	104.14683	-672.70559	104.14683
20500.00000	104.00961	-675.58790	104.00961
20550.00000	103.58859	-677.16248	103.58859
20600.00000	103.46693	-679.30630	103.46693
20650.00000	103.25650	-681.31985	103.25650
20700.00000	102.98069	-683.18531	102.98069
20750.00000	102.81458	-684.87655	102.81458
20800.00000	102.56368	-686.16157	102.56368
20850.00000	102.40005	-687.83739	102.40005
20900.00000	102.14594	-689.02763	102.14594
20950.00000	101.95384	-689.72506	101.95384
21000.00000	101.79517	-690.54852	101.79517
21050.00000	101.78691	-691.01242	101.78691
21100.00000	101.66709	-691.60959	101.66709
21150.00000	101.65619	-692.53168	101.65619
21200.00000	101.65085	-693.01464	101.65085
21250.00000	101.63792	-694.87875	101.63792
21300.00000	101.71425	-695.36565	101.71425
21350.00000	101.74481	-696.30463	101.74481
21400.00000	101.75579	-698.05124	101.75579
21450.00000	101.82022	-699.49255	101.82022
21500.00000	101.89029	-701.33961	101.89029
21550.00000	101.84323	-702.66631	101.84323
21600.00000	101.95737	-704.65659	101.95737
21650.00000	101.94866	-706.77710	101.94866
21700.00000	101.95919	-708.27274	101.95919
21750.00000	101.95233	-710.38706	101.95233
21800.00000	101.99201	-712.37060	101.99201
21850.00000	101.90185	-714.14897	101.90185
21900.00000	101.91930	-716.17563	101.91930
21950.00000	101.85882	-717.70902	101.85882
22000.00000	101.91302	-719.64336	101.91302
22050.00000	101.84408	-720.89196	101.84408
22100.00000	101.82142	-723.04849	101.82142
22150.00000	101.77312	-724.44296	101.77312
22200.00000	101.82964	-726.12913	101.82964
22250.00000	101.76507	-727.40788	101.76507
22300.00000	101.66927	-729.40138	101.66927
22350.00000	101.76491	-731.15519	101.76491
22400.00000	101.80185	-732.93834	101.80185
22450.00000	101.74016	-734.49271	101.74016
22500.00000	101.64007	-735.34490	101.64007
22550.00000	101.67169	-737.30720	101.67169
22600.00000	101.66342	-739.69563	101.66342
22650.00000	101.65608	-741.59166	101.65608
22700.00000	101.66619	-742.80664	101.66619
22750.00000	101.62191	-743.27585	101.62191
22800.00000	101.67572	-746.83377	101.67572
22850.00000	101.78441	-749.40606	101.78441
22900.00000	101.75069	-749.28121	101.75069
22950.00000	101.71758	-751.51061	101.71758
23000.00000	101.69788	-752.81490	101.69788
23050.00000	101.64015	-755.53927	101.64015
23100.00000	101.79820	-756.26590	101.79820
23150.00000	101.66314	-757.50024	101.66314
23200.00000	101.80198	-760.55848	101.80198
23250.00000	101.58045	-762.89858	101.58045
23300.00000	101.88094	-764.91579	101.88094
23350.00000	101.55409	-767.03591	101.55409
23400.00000	101.60517	-768.64351	101.60517
23450.00000	101.66961	-771.06067	101.66961
23500.00000	101.56357	-772.68232	101.56357
23550.00000	101.49637	-772.32901	101.49637
23600.00000	101.41223	-776.36503	101.41223
23650.00000	101.52651	-777.30589	101.52651
23700.00000	101.73254	-781.98838	101.73254
23750.00000	101.53050	-781.67677	101.53050
23800.00000	101.29744	-782.28637	101.29744
23850.00000	101.46420	-783.58983	101.46420
23900.00000	101.81542	-786.27006	101.81542
23950.00000	101.45376	-788.61586	101.45376
24000.00000	101.23008	-790.67982	101.23008
24050.00000	101.40389	-791.78444	101.40389
24100.00000	101.64275	-794.56484	101.64275
24150.00000	101.56802	-795.99474	101.56802
24200.00000	101.52875	-799.99074	101.52875
24250.00000	101.16296	-799.93703	101.16296
24300.00000	101.70035	-802.08069	101.70035
24350.00000	101.45447	-804.35925	101.45447
24400.00000	101.39449	-806.99426	101.39449
24450.00000	101.21977	-807.70170	101.21977
24500.00000	101.57523	-809.36110	101.57523
24550.00000	101.48078	-813.10207	101.48078
24600.00000	101.85599	-813.63238	101.85599
24650.00000	101.65828	-457.58012	101.65828
24700.00000	101.46365	-97.61889	101.46365
24750.00000	101.73602	258.58903	101.73602
24800.00000	101.59171	616.62741	101.59171
24850.00000	101.31518	975.82154	101.31518
24900.00000	101.48291	1334.96910	101.48291
24950.00000	101.86127	1690.12678	101.86127
25000.00000	101.69345	1683.75959	101.69345
25050.00000	101.99046	1685.99974	101.99046
25100.00000	101.43988	1681.12892	101.43988
25150.00000	101.94325	1681.66858	101.94325
25200.00000	101.63374	1677.60093	101.63374
25250.00000	102.02559	1676.67405	102.02559
25300.00000	102.02509	1675.17624	102.02509
25350.00000	101.91355	1668.72496	101.91355
25400.00000	101.99226	1665.70815	101.99226
25450.00000	101.99514	1664.61046	101.99514
25500.00000	101.92264	1662.73619	101.92264
25550.00000	102.00038	1658.68608	102.00038
25600.00000	102.05745	1656.88463	102.05745
25650.00000	102.07391	1654.93321	102.07391
25700.00000	102.04130	1651.82757	102.04130
25750.00000	101.88128	1649.40503	101.88128
25800.00000	101.83282	1645.47784	101.83282
25850.00000	101.86458	1643.61442	101.86458
25900.00000	101.87319	1639.71576	101.87319
25950.00000	101.62686	1641.04742	101.62686
26000.00000	101.73766	1636.07031	101.73766
26050.00000	101.62450	1634.10523	101.62450
26100.00000	101.65068	1631.26276	101.65068
26150.00000	101.51982	1629.41895	101.51982
26200.00000	101.67005	1627.40259	101.67005
26250.00000	101.58392	1624.94396	101.58392
26300.00000	101.65488	1621.16848	101.65488
26350.00000	101.18912	1621.10805	101.18912
26400.00000	101.32178	1618.40026	101.32178
26450.00000	101.56405	1614.61523	101.56405
26500.00000	101.33082	1612.84421	101.33082
26550.00000	101.19920	1607.71449	101.19920
26600.00000	101.16383	1605.85529	101.16383
26650.00000	101.31022	1606.37656	101.31022
26700.00000	101.30806	1603.25420	101.30806
26750.00000	101.09319	1600.97820	101.09319
26800.00000	101.01634	1596.13225	101.01634
26850.00000	101.36479	1595.14797	101.36479
26900.00000	101.35872	1594.09475	101.35872
26950.00000	101.46467	1590.14954	101.46467
27000.00000	100.97033	1588.98639	100.97033
27050.00000	101.35861	1586.15122	101.35861
27100.00000	101.09119	1584.75526	101.09119
27150.00000	101.10347	1581.07859	101.10347
27200.00000	101.25699	1579.77787	101.25699
27250.00000	100.82788	1577.78803	100.82788
27300.00000	100.68972	1574.66622	100.68972
27350.00000	100.89162	1573.99090	100.89162
27400.00000	100.61389	1570.80393	100.61389
27450.00000	100.67124	1568.69860	100.67124
27500.00000	100.62528	1566.60563	100.62528
27550.00000	100.54624	1564.32417	100.54624
27600.00000	100.96138	1560.44277	100.96138
27650.00000	100.44938	1559.77371	100.44938
27700.00000	100.51929	1554.39810	100.51929
27750.00000	100.54292	1551.34453	100.54292
27800.00000	100.54898	1548.01444	100.54898
27850.00000	100.72441	1549.85497	100.72441
27900.00000	100.24890	1546.64373	100.24890
27950.00000	99.65496	1543.74491	99.65496
28000.00000	99.77152	1541.42563	99.77152
28050.00000	100.17870	1538.11277	100.17870
28100.00000	99.52505	1536.66009	99.52505
28150.00000	99.54334	1534.84186	99.54334
28200.00000	99.57896	1529.68913	99.57896
28250.00000	99.15982	1527.89467	99.15982
28300.00000	98.73526	1527.48104	98.73526
28350.00000	98.92492	1525.58136	98.92492
28400.00000	98.71904	1525.20789	98.71904
28450.00000	99.08517	1521.17832	99.08517
28500.00000	98.44267	1520.61761	98.44267
28550.00000	98.23294	1522.06359	98.23294
28600.00000	98.10558	1518.96546	98.10558
28650.00000	98.22768	1514.11202	98.22768
28700.00000	97.99062	1515.53513	97.99062
28750.00000	98.39107	1515.31800	98.39107
28800.00000	98.12149	1513.54478	98.12149
28850.00000	97.36252	1509.74470	97.36252
28900.00000	97.48730	1509.21294	97.48730
28950.00000	97.20176	1509.40591	97.20176
29000.00000	97.21757	1508.10857	97.21757
29050.00000	96.91723	1508.45731	96.91723
29100.00000	96.79233	1508.24664	96.79233
29150.00000	96.61687	1508.19700	96.61687
29200.00000	96.35875	1505.53103	96.35875
29250.00000	96.71886	1505.59884	96.71886
29300.00000	96.23838	1503.29822	96.23838
29350.00000	96.41380	1502.96152	96.41380
29400.00000	96.53030	1502.76243	96.53030
29450.00000	96.24028	1502.94842	96.24028
29500.00000	96.64946	1503.13605	96.64946
29550.00000	96.32379	1499.17508	96.32379
29600.00000	96.02042	1500.62973	96.02042
29650.00000	96.31130	1499.54165	96.31130
29700.00000	96.19784	1500.65850	96.19784
29750.00000	96.22694	1501.06736	96.22694
29800.00000	96.14225	1498.39997	96.14225
29850.00000	96.17941	1497.82150	96.17941
29900.00000	96.59321	1498.49805	96.59321
29950.00000	95.74690	1497.82084	95.74690
30000.00000	96.31752	1499.11839	96.31752
30050.00000	96.44353	1496.54087	96.44353
30100.00000	96.18314	1498.02432	96.18314
30150.00000	96.52475	1494.96120	96.52475
30200.00000	96.52549	1493.37990	96.52549
30250.00000	96.49092	1493.97965	96.49092
30300.00000	96.40396	1494.69950	96.40396
30350.00000	96.49860	1495.23016	96.49860
30400.00000	96.62267	1493.47177	96.62267
30450.00000	96.39073	1492.96769	96.39073
30500.00000	96.50921	1492.26321	96.50921
30550.00000	96.67350	1493.36041	96.67350
30600.00000	96.73168	1493.33291	96.73168
30650.00000	96.78563	1493.60211	96.78563
30700.00000	97.09827	1493.09663	97.09827
30750.00000	96.96117	1494.43773	96.96117
30800.00000	97.12439	1494.38184	97.12439
30850.00000	97.54379	1495.68231	97.54379
30900.00000	97.52542	1496.93319	97.52542
30950.00000	98.10393	1496.30362	98.10393
31000.00000	98.40955	1494.82397	98.40955
31050.00000	98.86299	1495.85171	98.86299
31100.00000	99.43367	1496.23686	99.43367
31150.00000	99.49416	1495.15572	99.49416
31200.00000	100.30235	1494.06058	100.30235
31250.00000	100.65882	1492.28907	100.65882
31300.00000	101.13217	1490.86913	101.13217
31350.00000	101.73793	1489.18910	101.73793
31400.00000	102.03524	1486.27147	102.03524
31450.00000	102.57353	1484.25122	102.57353
31500.00000	103.04644	1480.55562	103.04644
31550.00000	103.45748	1477.88711	103.45748
31600.00000	103.94895	1473.90697	103.94895
31650.00000	104.31202	1470.57074	104.31202
31700.00000	104.66922	1467.52975	104.66922
31750.00000	105.05995	1465.27514	105.05995
31800.00000	105.32135	1460.36433	105.32135
31850.00000	105.65363	1456.17467	105.65363
31900.00000	105.73418	1452.87539	105.73418
31950.00000	106.00774	1449.40598	106.00774
32000.00000	106.20683	1445.15534	106.20683
32050.00000	106.45484	1441.45665	106.45484
32100.00000	106.69329	1437.04561	106.69329
32150.00000	106.70297	1434.63446	106.70297
32200.00000	107.03201	1429.92121	107.03201
32250.00000	107.15667	1425.35379	107.15667
32300.00000	107.12749	1422.53291	107.12749
32350.00000	107.18669	1419.26127	107.18669
32400.00000	107.48884	1415.46505	107.48884
32450.00000	107.39278	1411.57817	107.39278
32500.00000	107.55690	1409.09236	107.55690
32550.00000	107.75331	1404.46637	107.75331
32600.00000	107.66894	1401.59450	107.66894
32650.00000	107.82388	1398.12448	107.82388
32700.00000	107.82195	1393.91142	107.82195
32750.00000	107.78043	1390.17467	107.78043
32800.00000	108.03835	1387.78675	108.03835
32850.00000	108.07466	1383.42875	108.07466
32900.00000	107.87300	1379.63496	107.87300
32950.00000	107.83269	1375.16555	107.83269
33000.00000	107.86350	1373.43896	107.86350
33050.00000	107.77931	1369.19197	107.77931
33100.00000	107.94082	1365.92159	107.94082
33150.00000	107.82929	1363.09212	107.82929
33200.00000	107.88030	1360.83339	107.88030
33250.00000	107.73220	1357.68020	107.73220
33300.00000	107.60122	1353.48513	107.60122
33350.00000	107.44869	1350.20354	107.44869
33400.00000	107.47368	1347.81877	107.47368
33450.00000	107.48537	1344.20845	107.48537
33500.00000	107.49309	1342.87096	107.49309
33550.00000	107.20457	1338.80275	107.20457
33600.00000	107.34496	1336.10199	107.34496
33650.00000	107.19900	1333.41337	107.19900
33700.00000	107.06521	1331.31473	107.06521
33750.00000	106.92695	1328.48224	106.92695
33800.00000	106.86340	1325.84206	106.86340
33850.00000	106.51328	1324.15846	106.51328
33900.00000	106.71550	1320.54607	106.71550
33950.00000	106.52949	1319.37948	106.52949
34000.00000	106.41592	1316.29980	106.41592
34050.00000	106.33390	1314.26799	106.33390
34100.00000	106.10020	1313.30625	106.10020
34150.00000	105.94151	1310.54861	105.94151
34200.00000	106.02693	1310.59851	106.02693
34250.00000	105.85518	1306.20578	105.85518
34300.00000	105.70507	1305.43602	105.70507
34350.00000	105.72287	1304.95989	105.72287
34400.00000	105.25335	1304.71488	105.25335
34450.00000	105.41621	1299.66374	105.41621
34500.00000	105.43090	1300.15346	105.43090
34550.00000	105.43347	1298.26197	105.43347
34600.00000	105.16804	1295.67709	105.16804
34650.00000	105.48462	1297.17209	105.48462
34700.00000	105.02306	1296.62062	105.02306
34750.00000	105.35265	1291.30362	105.35265
34800.00000	105.37386	1292.31070	105.37386
34850.00000	105.30346	1292.78377	105.30346
34900.00000	105.52823	1288.97191	105.52823
34950.00000	105.24185	1290.33203	105.24185
35000.00000	105.32612	1288.84698	105.32612
35050.00000	105.40458	1287.69807	105.40458
35100.00000	105.55171	1286.23637	105.55171
35150.00000	105.32742	1286.52670	105.32742
35200.00000	105.30618	1282.71615	105.30618
35250.00000	105.58652	1283.07536	105.58652
35300.00000	105.67443	1280.73537	105.67443
35350.00000	105.87752	1279.83207	105.87752
35400.00000	105.92771	1277.75707	105.92771
35450.00000	105.75950	1276.98101	105.75950
35500.00000	105.62621	1276.51337	105.62621
35550.00000	106.10339	1276.60175	106.10339
35600.00000	105.99900	1273.94669	105.99900
35650.00000	106.01228	1271.85011	106.01228
35700.00000	105.99236	1271.53426	105.99236
35750.00000	105.96853	1270.12434	105.96853
35800.00000	106.29945	1271.21601	106.29945
35850.00000	106.20256	1269.23597	106.20256
35900.00000	106.40383	1267.84479	106.40383
35950.00000	106.51304	1264.58683	106.51304
36000.00000	106.53990	1266.04977	106.53990
36050.00000	106.81889	1263.56683	106.81889
36100.00000	106.76706	1263.40865	106.76706
36150.00000	106.61134	1261.62384	106.61134
36200.00000	106.82402	1262.10524	106.82402
36250.00000	106.95276	1259.80773	106.95276
36300.00000	106.93213	1260.76696	106.93213
36350.00000	107.18799	1259.74909	107.18799
36400.00000	107.34257	1259.74658	107.34257
36450.00000	107.32663	1258.31394	107.32663
36500.00000	107.70106	1257.30583	107.70106
36550.00000	107.57225	1255.74032	107.57225
36600.00000	107.91381	1255.43898	107.91381
36650.00000	108.37317	1253.67712	108.37317
36700.00000	108.55273	1252.16523	108.55273
36750.00000	108.66374	1250.80136	108.66374
36800.00000	108.85685	1250.10433	108.85685
36850.00000	108.96940	1248.01646	108.96940
36900.00000	109.38391	1246.51778	109.38391
36950.00000	109.43614	1244.34204	109.43614
37000.00000	109.47017	1243.06201	109.47017
37050.00000	109.73513	1242.43117	109.73513
37100.00000	110.16555	1238.90916	110.16555
37150.00000	110.44895	1236.92338	110.44895
37200.00000	110.78261	1235.97956	110.78261
37250.00000	110.77532	1232.83420	110.77532
37300.00000	111.04593	1230.68268	111.04593
37350.00000	111.60800	1228.03098	111.60800
37400.00000	111.64525	1226.17134	111.64525
37450.00000	111.78392	1223.32373	111.78392
37500.00000	112.39492	1219.13841	112.39492
37550.00000	112.29535	1217.15643	112.29535
37600.00000	112.55237	1213.80018	112.55237
37650.00000	112.76952	1210.83152	112.76952
37700.00000	113.05937	1206.64530	113.05937
37750.00000	113.27613	1204.31846	113.27613
37800.00000	113.42106	1200.01137	113.42106
37850.00000	113.64854	1195.49025	113.64854
37900.00000	113.90913	1193.13517	113.90913
37950.00000	114.13484	1189.59993	114.13484
38000.00000	114.25068	1186.25510	114.25068
38050.00000	114.58898	1182.13218	114.58898
38100.00000	114.85935	1177.92192	114.85935
38150.00000	115.01122	1173.49484	115.01122
38200.00000	115.30979	1169.13801	115.30979
38250.00000	115.56265	1164.90859	115.56265
38300.00000	115.88913	1160.24043	115.88913
38350.00000	116.03881	1156.01204	116.03881
38400.00000	116.18515	1151.39109	116.18515
38450.00000	116.44609	1146.03325	116.44609
38500.00000	116.69337	1140.87291	116.69337
38550.00000	116.94613	1136.70069	116.94613
38600.00000	117.20024	1131.39597	117.20024
38650.00000	117.36622	1125.86552	117.36622
38700.00000	117.49626	1120.43875	117.49626
38750.00000	117.70173	1115.44793	117.70173
38800.00000	117.89922	1110.20259	117.89922
38850.00000	118.02815	1103.82345	118.02815
38900.00000	118.10529	1098.45907	118.10529
38950.00000	118.21719	1092.60299	118.21719
39000.00000	118.33374	1087.07054	118.33374
39050.00000	118.42363	1080.91458	118.42363
39100.00000	118.33498	1075.16607	118.33498
39150.00000	118.32574	1069.24259	118.32574
39200.00000	118.32753	1063.71132	118.32753
39250.00000	118.27289	1057.67028	118.27289
39300.00000	118.19762	1051.67376	118.19762
39350.00000	118.04514	1046.50301	118.04514
39400.00000	117.88345	1040.46796	117.88345
39450.00000	117.63378	1035.28214	117.63378
39500.00000	117.54675	1030.20147	117.54675
39550.00000	117.22965	1024.44245	117.22965
39600.00000	116.93985	1019.30448	116.93985
39650.00000	116.67343	1015.07945	116.67343
39700.00000	116.34553	1010.53969	116.34553
39750.00000	116.12261	1005.64852	116.12261
39800.00000	115.82257	1000.96065	115.82257
39850.00000	115.42321	996.85387	115.42321
39900.00000	115.11312	993.26533	115.11312
39950.00000	114.81429	989.34032	114.81429
40000.00000	114.27844	986.64614	114.27844
40050.00000	114.06996	981.70878	114.06996
40100.00000	113.69033	978.30431	113.69033
40150.00000	113.35194	975.07089	113.35194
40200.00000	112.95116	971.46755	112.95116
40250.00000	112.60103	969.17068	112.60103
40300.00000	112.35108	966.23510	112.35108
40350.00000	111.71542	963.48139	111.71542
40400.00000	111.37752	960.92229	111.37752
40450.00000	110.94311	959.05092	110.94311
40500.00000	110.64196	956.90776	110.64196
40550.00000	110.28949	954.46810	110.28949
40600.00000	109.94566	952.90463	109.94566
40650.00000	109.49038	951.64012	109.49038
40700.00000	108.89395	951.16800	108.89395
40750.00000	108.76156	949.21327	108.76156
40800.00000	108.30743	947.05119	108.30743
40850.00000	107.76059	946.53370	107.76059
40900.00000	107.53722	944.86909	107.53722
40950.00000	106.90154	945.30720	106.90154
41000.00000	106.51261	944.67771	106.51261
41050.00000	106.18753	945.22872	106.18753
41100.00000	105.86432	945.26704	105.86432
41150.00000	105.66022	946.29025	105.66022
41200.00000	105.51166	946.31443	105.51166
41250.00000	105.04681	943.78235	105.04681
41300.00000	104.44419	947.00400	104.44419
41350.00000	104.41263	947.49626	104.41263
41400.00000	103.98626	943.98563	103.98626
41450.00000	103.85941	948.23121	103.85941
41500.00000	103.38527	948.07638	103.38527
41550.00000	103.28121	952.29211	103.28121
41600.00000	102.80898	950.24441	102.80898
41650.00000	102.85101	953.12166	102.85101
41700.00000	102.69776	952.11563	102.69776
41750.00000	102.26676	957.13255	102.26676
41800.00000	100.67680	953.56556	100.67680
41850.00000	100.97468	955.17201	100.97468
41900.00000	100.42543	959.90816	100.42543
41950.00000	101.44103	965.67371	101.44103
42000.00000	100.06276	961.77416	100.06276
42050.00000	99.08627	960.56353	99.08627
42100.00000	98.88670	965.00345	98.88670
42150.00000	98.50816	963.17869	98.50816
42200.00000	98.24372	970.10557	98.24372
42250.00000	98.20981	973.10350	98.20981
42300.00000	97.76571	968.21738	97.76571
42350.00000	98.26042	973.89345	98.26042
42400.00000	96.37938	970.29963	96.37938
42450.00000	97.79731	963.63117	97.79731
42500.00000	96.64467	972.32007	96.64467
42550.00000	95.36716	975.65586	95.36716
42600.00000	95.90748	973.24656	95.90748
42650.00000	95.56993	978.52914	95.56993
42700.00000	94.65114	979.62022	94.65114
42750.00000	96.32305	974.80389	96.32305
42800.00000	94.49949	968.97090	94.49949
42850.00000	94.78739	967.49255	94.78739
42900.00000	95.44330	973.48030	95.44330
42950.00000	93.49613	964.16851	93.49613
43000.00000	95.24365	949.94447	95.24365
43050.00000	93.74025	949.07409	93.74025
43100.00000	95.31590	945.15496	95.31590
43150.00000	95.54175	944.57232	95.54175
43200.00000	95.55852	943.64851	95.55852
43250.00000	96.13598	931.62971	96.13598
43300.00000	96.22825	925.69786	96.22825
43350.00000	97.84399	917.42662	97.84399
43400.00000	97.35573	911.60123	97.35573
43450.00000	98.63397	914.50056	98.63397
43500.00000	98.36738	900.55350	98.36738
43550.00000	98.46333	897.83376	98.46333
43600.00000	98.91393	890.60348	98.91393
43650.00000	100.24119	881.37286	100.24119
43700.00000	100.16421	881.72744	100.16421
43750.00000	100.68068	879.08512	100.68068
43800.00000	101.35500	866.03911	101.35500
43850.00000	102.10183	861.78954	102.10183
43900.00000	102.72557	859.26722	102.72557
43950.00000	102.99285	852.98760	102.99285
44000.00000	103.04538	846.94103	103.04538
44050.00000	103.43144	843.23009	103.43144
44100.00000	103.98701	831.66946	103.98701
44150.00000	104.51447	832.80653	104.51447
44200.00000	104.47121	828.52353	104.47121
44250.00000	104.96176	821.39963	104.96176
44300.00000	105.24854	814.61792	105.24854
44350.00000	104.92810	807.81993	104.92810
44400.00000	105.52197	804.01074	105.52197
44450.00000	105.90667	801.55649	105.90667
44500.00000	105.57476	799.93948	105.57476
44550.00000	106.55038	785.77805	106.55038
44600.00000	106.35763	789.90721	106.35763
44650.00000	105.85946	781.07441	105.85946
44700.00000	106.24982	775.36220	106.24982
44750.00000	106.18287	774.91600	106.18287
44800.00000	106.76602	768.16393	106.76602
44850.00000	106.31440	759.62041	106.31440
44900.00000	106.06142	759.73873	106.06142
44950.00000	106.31849	754.80338	106.31849
45000.00000	106.50699	745.61548	106.50699
45050.00000	105.49564	753.15884	105.49564
45100.00000	105.76556	743.84990	105.76556
45150.00000	105.69852	732.18565	105.69852
45200.00000	105.59313	735.34670	105.59313
45250.00000	105.31204	730.37688	105.31204
45300.00000	105.36280	725.42039	105.36280
45350.00000	105.02114	718.36090	105.02114
45400.00000	105.43572	718.67788	105.43572
45450.00000	105.05174	711.23876	105.05174
45500.00000	103.31709	706.28262	103.31709
45550.00000	103.56244	708.58224	103.56244
45600.00000	104.88721	700.97743	104.88721
45650.00000	102.60207	695.40842	102.60207
45700.00000	102.85681	693.40036	102.85681
45750.00000	103.91185	698.20523	103.91185
45800.00000	102.55256	688.26325	102.55256
45850.00000	102.39182	689.10042	102.39182
45900.00000	102.27092	686.84687	102.27092
45950.00000	101.82095	685.02818	101.82095
46000.00000	100.50956	668.88226	100.50956
46050.00000	100.56306	670.01119	100.56306
46100.00000	99.57255	673.54796	99.57255
46150.00000	98.59132	673.28363	98.59132
46200.00000	97.84663	662.29689	97.84663
46250.00000	98.85986	663.86270	98.85986
46300.00000	97.78450	666.59990	97.78450
46350.00000	99.11737	658.98962	99.11737
46400.00000	97.32155	654.89554	97.32155
46450.00000	95.01019	655.44397	95.01019
46500.00000	96.97446	657.32282	96.97446
46550.00000	96.04239	664.79947	96.04239
46600.00000	97.40298	668.65257	97.40298
46650.00000	93.44438	663.72482	93.44438
46700.00000	93.49779	669.71300	93.49779
46750.00000	94.54447	677.89465	94.54447
46800.00000	92.28562	667.80728	92.28562
46850.00000	94.06387	321.13415	94.06387
46900.00000	94.03607	313.37405	94.03607
46950.00000	94.66598	314.47957	94.66598
47000.00000	94.28076	318.59503	94.28076
47050.00000	95.69133	309.09559	95.69133
47100.00000	94.58816	309.66320	94.58816
47150.00000	95.57863	311.26354	95.57863
47200.00000	94.27920	312.92889	94.27920
47250.00000	95.64427	312.62951	95.64427
47300.00000	95.22348	297.32638	95.22348
47350.00000	95.26465	-46.74318	95.26465
47400.00000	94.58533	-50.36926	94.58533
47450.00000	96.35779	-46.78475	96.35779
47500.00000	94.26424	-63.67810	94.26424
47550.00000	94.38925	-411.11374	94.38925
47600.00000	94.36501	-417.71655	94.36501
47650.00000	95.95051	-418.61145	95.95051
47700.00000	94.43538	-419.86734	94.43538
47750.00000	93.25115	-416.81761	93.25115
47800.00000	94.20414	-434.72632	94.20414
47850.00000	93.89262	-784.26417	93.89262
47900.00000	94.30304	-1134.66234	94.30304
47950.00000	93.59571	-1134.53252	93.59571
48000.00000	94.11825	-1130.41200	94.11825
48050.00000	95.14221	-1144.85294	95.14221
48100.00000	93.98685	-1144.02069	93.98685
48150.00000	93.88868	-1496.77405	93.88868
48200.00000	94.82514	-1496.53752	94.82514
48250.00000	94.45539	-1503.34464	94.45539
48300.00000	94.58496	-1502.65981	94.58496
48350.00000	94.40111	-1504.69912	94.40111
48400.00000	95.64307	-1855.37884	95.64307
48450.00000	96.31769	-1860.02218	96.31769
48500.00000	95.05689	-1864.34870	95.05689
48550.00000	94.12488	-1869.69860	94.12488
48600.00000	96.67847	-2222.05514	96.67847
48650.00000	96.46484	-2226.07162	96.46484
48700.00000	96.85812	-2237.61616	96.85812
48750.00000	95.38576	-2584.72983	95.38576
48800.00000	96.40107	-2590.59220	96.40107
48850.00000	97.16123	-2594.82235	97.16123
48900.00000	96.16758	-2947.61599	96.16758
48950.00000	97.51274	-2966.78344	97.51274
49000.00000	97.55921	-2966.26581	97.55921
49050.00000	96.75879	-2966.38057	96.75879
49100.00000	96.07303	-3323.36738	96.07303
49150.00000	98.73701	-3684.26938	98.73701
49200.00000	97.49254	-3697.29211	97.49254
49250.00000	97.39286	-4043.78693	97.39286
49300.00000	98.61736	-3702.00697	98.61736
49350.00000	96.02786	-3683.99060	96.02786
49400.00000	96.11004	-3339.11933	96.11004
49450.00000	94.71431	-2982.75306	94.71431
49500.00000	95.45843	-2639.73317	95.45843
49550.00000	95.35583	-2279.18655	95.35583
49600.00000	95.08974	-2267.49932	95.08974
49650.00000	95.18594	-2261.86874	95.18594
49700.00000	95.60910	-1923.17308	95.60910
49750.00000	96.72160	-1913.10431	96.72160
49800.00000	94.66629	-1920.27759	94.66629
49850.00000	94.49907	-1904.27346	94.49907
49900.00000	94.90744	-1548.40178	94.90744
49950.00000	97.04359	-1214.17373	97.04359
