---ACOUSTIC CALIBRATION---
Filename: C:\Data\AZH DATA\AZH82\RightPrimary.calib
Date: 8/27/2019 4:50:38 PM
Format: 4
Probe Tube Correction File: C:\Data\Probe Tube Calibrations\50_ProbeTube.calib
Experiment VIs: 850
EPL_CFTS.exe V12.0.1 (2012)
DAQmx V9.6

Attenuation (dB): 40.000000
Min Freq (Hz): 50.000000
Max Freq (Hz): 49950.000000
Freq Step (Hz): 50.000000
Sample Rate (Hz): 100000.000000
[Smoothing]
Method=None
MA.Iterations=0
MA.Length=0
Loess.Length=0
Loess.Type=Linear
Loess.Robust=FALSE


Freq(Hz)	Mag(dB)	Phase(deg)	Unsmoothed(dB)

50.00000	104.88079	372.14023	104.88079
100.00000	82.96481	451.51281	82.96481
150.00000	79.79843	505.45083	79.79843
200.00000	85.55723	451.41402	85.55723
250.00000	89.92228	459.76371	89.92228
300.00000	89.70711	414.33319	89.70711
350.00000	85.28568	385.55647	85.28568
400.00000	87.10006	393.12063	87.10006
450.00000	88.83706	369.85493	88.83706
500.00000	90.31987	378.41717	90.31987
550.00000	92.57142	364.60667	92.57142
600.00000	95.51509	364.61163	95.51509
650.00000	97.95802	352.85961	97.95802
700.00000	99.91721	332.86714	99.91721
750.00000	102.04801	316.54633	102.04801
800.00000	102.76012	290.53345	102.76012
850.00000	102.29931	276.07396	102.29931
900.00000	100.93250	256.78508	100.93250
950.00000	98.68872	256.23481	98.68872
1000.00000	97.34413	257.51838	97.34413
1050.00000	95.09389	273.92522	95.09389
1100.00000	96.99210	294.06347	96.99210
1150.00000	99.78488	299.82924	99.78488
1200.00000	102.65405	298.42593	102.65405
1250.00000	104.23478	289.86380	104.23478
1300.00000	105.91256	284.56064	105.91256
1350.00000	107.17653	274.42642	107.17653
1400.00000	108.10282	268.04678	108.10282
1450.00000	108.98148	260.19170	108.98148
1500.00000	109.79175	251.13449	109.79175
1550.00000	110.86940	245.44521	110.86940
1600.00000	112.20253	235.88749	112.20253
1650.00000	113.27793	218.77110	113.27793
1700.00000	112.00425	208.52373	112.00425
1750.00000	111.77532	203.01263	111.77532
1800.00000	111.49850	197.81645	111.49850
1850.00000	111.69087	197.52975	111.69087
1900.00000	112.83084	193.24442	112.83084
1950.00000	113.49668	179.99763	113.49668
2000.00000	112.55419	168.29892	112.55419
2050.00000	111.27132	172.64203	111.27132
2100.00000	113.21217	170.84191	113.21217
2150.00000	113.69513	160.59762	113.69513
2200.00000	113.61112	150.71709	113.61112
2250.00000	113.01779	143.55650	113.01779
2300.00000	113.12313	138.17218	113.12313
2350.00000	112.83491	131.60544	112.83491
2400.00000	112.59251	126.23416	112.59251
2450.00000	112.30034	119.39938	112.30034
2500.00000	111.89347	114.67191	111.89347
2550.00000	111.49207	109.01256	111.49207
2600.00000	110.93927	104.70980	110.93927
2650.00000	110.45853	100.60539	110.45853
2700.00000	110.05364	97.24588	110.05364
2750.00000	109.44959	93.89219	109.44959
2800.00000	108.83576	91.30720	108.83576
2850.00000	108.26490	89.06567	108.26490
2900.00000	107.62591	86.91149	107.62591
2950.00000	106.96084	85.73326	106.96084
3000.00000	106.38415	84.70087	106.38415
3050.00000	105.58570	84.22178	105.58570
3100.00000	104.84621	84.45410	104.84621
3150.00000	103.90029	84.04781	103.90029
3200.00000	102.66153	89.43731	102.66153
3250.00000	101.68463	97.93917	101.68463
3300.00000	100.93047	109.64157	100.93047
3350.00000	100.90906	124.79095	100.90906
3400.00000	102.64193	142.83346	102.64193
3450.00000	105.08759	151.65920	105.08759
3500.00000	107.68813	153.49292	107.68813
3550.00000	109.72695	150.72166	109.72695
3600.00000	111.52285	147.53283	111.52285
3650.00000	113.01739	142.07058	113.01739
3700.00000	114.33535	137.49702	114.33535
3750.00000	115.63899	132.12949	115.63899
3800.00000	116.86771	125.83912	116.86771
3850.00000	117.89773	119.01084	117.89773
3900.00000	118.88606	112.37374	118.88606
3950.00000	119.83137	105.16857	119.83137
4000.00000	120.66297	97.64479	120.66297
4050.00000	121.45439	90.30977	121.45439
4100.00000	122.27953	82.86950	122.27953
4150.00000	123.28431	74.50737	123.28431
4200.00000	124.02508	64.63109	124.02508
4250.00000	124.72713	53.57697	124.72713
4300.00000	125.19881	41.38110	125.19881
4350.00000	125.33622	28.81501	125.33622
4400.00000	125.20908	16.97357	125.20908
4450.00000	124.89722	 6.07081	124.89722
4500.00000	124.47755	-3.70102	124.47755
4550.00000	124.03358	-13.08158	124.03358
4600.00000	123.52777	-21.55757	123.52777
4650.00000	123.04971	-29.69853	123.04971
4700.00000	122.52729	-38.03808	122.52729
4750.00000	121.88153	-46.60069	121.88153
4800.00000	121.05696	-55.21012	121.05696
4850.00000	119.94189	-62.95933	119.94189
4900.00000	118.60799	-68.76093	118.60799
4950.00000	117.22283	-72.00883	117.22283
5000.00000	115.90336	-72.83953	115.90336
5050.00000	114.80627	-72.52197	114.80627
5100.00000	113.58996	-68.54574	113.58996
5150.00000	113.50152	-63.39793	113.50152
5200.00000	112.65856	-58.87662	112.65856
5250.00000	113.89298	-44.97610	113.89298
5300.00000	116.48870	-51.77018	116.48870
5350.00000	116.83943	-65.19344	116.83943
5400.00000	116.33015	-73.38454	116.33015
5450.00000	115.78440	-78.08317	115.78440
5500.00000	115.35393	-81.55458	115.35393
5550.00000	115.02877	-84.20692	115.02877
5600.00000	114.77934	-86.73540	114.77934
5650.00000	114.56631	-89.11978	114.56631
5700.00000	114.36664	-91.60003	114.36664
5750.00000	114.21233	-94.09551	114.21233
5800.00000	114.05657	-96.55911	114.05657
5850.00000	113.90765	-98.96959	113.90765
5900.00000	113.79213	-101.57038	113.79213
5950.00000	113.68094	-103.88707	113.68094
6000.00000	113.56849	-106.17573	113.56849
6050.00000	113.45946	-108.54952	113.45946
6100.00000	113.40156	-110.78634	113.40156
6150.00000	113.33426	-113.33056	113.33426
6200.00000	113.27610	-115.69685	113.27610
6250.00000	113.23215	-118.47550	113.23215
6300.00000	113.20427	-121.06185	113.20427
6350.00000	113.12542	-123.98847	113.12542
6400.00000	113.05944	-126.74917	113.05944
6450.00000	113.00340	-129.73754	113.00340
6500.00000	112.92121	-132.46299	112.92121
6550.00000	112.83794	-135.14901	112.83794
6600.00000	112.76911	-137.91256	112.76911
6650.00000	112.69659	-140.60985	112.69659
6700.00000	112.66186	-143.52078	112.66186
6750.00000	112.59256	-146.23787	112.59256
6800.00000	112.56800	-149.02138	112.56800
6850.00000	112.52717	-151.67134	112.52717
6900.00000	112.50842	-154.29189	112.50842
6950.00000	112.44857	-157.25121	112.44857
7000.00000	112.44329	-160.18857	112.44329
7050.00000	112.42276	-163.21738	112.42276
7100.00000	112.41417	-166.45285	112.41417
7150.00000	112.38392	-169.50049	112.38392
7200.00000	112.34401	-172.93119	112.34401
7250.00000	112.29726	-176.38715	112.29726
7300.00000	112.28453	-179.75127	112.28453
7350.00000	112.21179	-183.20244	112.21179
7400.00000	112.16505	-186.95082	112.16505
7450.00000	112.08202	-190.75727	112.08202
7500.00000	111.97356	-194.66946	111.97356
7550.00000	111.89814	-198.20755	111.89814
7600.00000	111.74268	-202.16561	111.74268
7650.00000	111.61693	-206.03108	111.61693
7700.00000	111.48686	-209.82871	111.48686
7750.00000	111.28264	-213.69555	111.28264
7800.00000	111.08506	-217.39017	111.08506
7850.00000	110.86913	-221.21420	110.86913
7900.00000	110.63571	-224.60449	110.63571
7950.00000	110.41593	-228.47323	110.41593
8000.00000	110.14171	-232.16199	110.14171
8050.00000	109.88304	-235.99601	109.88304
8100.00000	109.64045	-238.64147	109.64045
8150.00000	109.25474	-242.05592	109.25474
8200.00000	108.95960	-245.07476	108.95960
8250.00000	108.59193	-248.37414	108.59193
8300.00000	108.23793	-251.37887	108.23793
8350.00000	107.86830	-254.01367	107.86830
8400.00000	107.52306	-257.14886	107.52306
8450.00000	107.10121	-259.83166	107.10121
8500.00000	106.74956	-262.77677	106.74956
8550.00000	106.41200	-265.64087	106.41200
8600.00000	106.06433	-268.59013	106.06433
8650.00000	105.72452	-270.92791	105.72452
8700.00000	105.43615	-273.95577	105.43615
8750.00000	105.06705	-274.90486	105.06705
8800.00000	104.76461	-277.48719	104.76461
8850.00000	104.39964	-278.97142	104.39964
8900.00000	104.04558	-280.38975	104.04558
8950.00000	103.67036	-282.05494	103.67036
9000.00000	103.19735	-283.85693	103.19735
9050.00000	102.81647	-285.93046	102.81647
9100.00000	102.42054	-287.39602	102.42054
9150.00000	102.08459	-289.47614	102.08459
9200.00000	101.80085	-291.86605	101.80085
9250.00000	101.48759	-293.66746	101.48759
9300.00000	101.29177	-296.07404	101.29177
9350.00000	101.19920	-297.48000	101.19920
9400.00000	100.93018	-298.20921	100.93018
9450.00000	100.82791	-298.88017	100.82791
9500.00000	100.65427	-298.35902	100.65427
9550.00000	100.61275	-297.91501	100.61275
9600.00000	100.55924	-298.98427	100.55924
9650.00000	100.31926	-300.30595	100.31926
9700.00000	100.06830	-301.00640	100.06830
9750.00000	99.84979	-303.10314	99.84979
9800.00000	99.58901	-304.54189	99.58901
9850.00000	99.48159	-306.15431	99.48159
9900.00000	99.22939	-308.03666	99.22939
9950.00000	99.19075	-309.60370	99.19075
10000.00000	99.17869	-311.43298	99.17869
10050.00000	99.12547	-312.52064	99.12547
10100.00000	99.01193	-313.43594	99.01193
10150.00000	98.75859	-315.08101	98.75859
10200.00000	98.58313	-316.30464	98.58313
10250.00000	98.33892	-318.07472	98.33892
10300.00000	98.18531	-320.21070	98.18531
10350.00000	98.00729	-322.30289	98.00729
10400.00000	97.77151	-325.21619	97.77151
10450.00000	97.73474	-328.46858	97.73474
10500.00000	97.66941	-330.79081	97.66941
10550.00000	97.65182	-333.01139	97.65182
10600.00000	97.56124	-334.68827	97.56124
10650.00000	97.43172	-336.02625	97.43172
10700.00000	97.27873	-338.66467	97.27873
10750.00000	97.09839	-340.52042	97.09839
10800.00000	96.78632	-342.50011	96.78632
10850.00000	96.51546	-345.53215	96.51546
10900.00000	96.26062	-347.95173	96.26062
10950.00000	96.00462	-349.76113	96.00462
11000.00000	95.75501	-352.44595	95.75501
11050.00000	95.38429	-354.69991	95.38429
11100.00000	95.11091	-357.03030	95.11091
11150.00000	94.69686	-358.30856	94.69686
11200.00000	94.41308	-359.76503	94.41308
11250.00000	93.96246	-361.57459	93.96246
11300.00000	93.43181	-363.55242	93.43181
11350.00000	92.99048	-364.58513	92.99048
11400.00000	92.37046	-366.37195	92.37046
11450.00000	92.04069	-367.70272	92.04069
11500.00000	91.73656	-367.83117	91.73656
11550.00000	91.19638	-367.91882	91.19638
11600.00000	90.97165	-368.98592	90.97165
11650.00000	90.56510	-368.36729	90.56510
11700.00000	90.21414	-368.30011	90.21414
11750.00000	89.93117	-367.55589	89.93117
11800.00000	89.64626	-367.18876	89.64626
11850.00000	89.36777	-365.88728	89.36777
11900.00000	89.01847	-365.29702	89.01847
11950.00000	88.82900	-364.30570	88.82900
12000.00000	88.58569	-362.40866	88.58569
12050.00000	88.37912	-362.11499	88.37912
12100.00000	88.25431	-362.06018	88.25431
12150.00000	88.08561	-362.04991	88.08561
12200.00000	88.03317	-362.48072	88.03317
12250.00000	88.01101	-361.18328	88.01101
12300.00000	89.45790	-360.72259	89.45790
12350.00000	88.21696	-360.12462	88.21696
12400.00000	88.07313	-358.35927	88.07313
12450.00000	88.08486	-357.82284	88.08486
12500.00000	88.13492	-357.47672	88.13492
12550.00000	87.96210	-357.28206	87.96210
12600.00000	87.92346	-358.85828	87.92346
12650.00000	88.14104	-359.36314	88.14104
12700.00000	88.04318	-358.81229	88.04318
12750.00000	88.23502	-359.86528	88.23502
12800.00000	88.18535	-359.96694	88.18535
12850.00000	87.96540	-359.70834	87.96540
12900.00000	87.95643	-360.11601	87.95643
12950.00000	88.01536	-360.52160	88.01536
13000.00000	87.84688	-361.27921	87.84688
13050.00000	87.95751	-361.17387	87.95751
13100.00000	87.80997	-362.09702	87.80997
13150.00000	87.98286	-362.29749	87.98286
13200.00000	87.85065	-362.58249	87.85065
13250.00000	87.93356	-362.56007	87.93356
13300.00000	87.79849	-360.26729	87.79849
13350.00000	87.80178	-360.37618	87.80178
13400.00000	87.87752	-361.34476	87.87752
13450.00000	87.65543	-360.37330	87.65543
13500.00000	87.71074	-358.78391	87.71074
13550.00000	87.78195	-360.25910	87.78195
13600.00000	87.91565	-358.80355	87.91565
13650.00000	87.95812	-357.02273	87.95812
13700.00000	87.64309	-357.86086	87.64309
13750.00000	87.71720	-358.44268	87.71720
13800.00000	87.69045	-359.35093	87.69045
13850.00000	87.72222	-360.19648	87.72222
13900.00000	87.82224	-359.68318	87.82224
13950.00000	88.13664	-358.56029	88.13664
14000.00000	88.48582	-356.05905	88.48582
14050.00000	88.59829	-355.03699	88.59829
14100.00000	88.50554	-354.08294	88.50554
14150.00000	88.67575	-354.14672	88.67575
14200.00000	88.89639	-354.38719	88.89639
14250.00000	89.43836	-352.74434	89.43836
14300.00000	89.76490	-352.59229	89.76490
14350.00000	90.06709	-350.09961	90.06709
14400.00000	90.03263	-349.22002	90.03263
14450.00000	90.15568	-348.03799	90.15568
14500.00000	90.40372	-348.75399	90.40372
14550.00000	90.77571	-347.78538	90.77571
14600.00000	90.87739	-349.17769	90.87739
14650.00000	91.59560	-347.70253	91.59560
14700.00000	91.76812	-350.60661	91.76812
14750.00000	92.37235	-350.33412	92.37235
14800.00000	92.70628	-349.71763	92.70628
14850.00000	93.24829	-348.87331	93.24829
14900.00000	93.73174	-349.52248	93.73174
14950.00000	94.18329	-350.73122	94.18329
15000.00000	94.69683	-352.16027	94.69683
15050.00000	95.06579	-351.12565	95.06579
15100.00000	95.53372	-351.73139	95.53372
15150.00000	96.28226	-353.43993	96.28226
15200.00000	96.60434	-353.07630	96.60434
15250.00000	96.95074	-355.56459	96.95074
15300.00000	97.55945	-357.89337	97.55945
15350.00000	98.10590	-360.45720	98.10590
15400.00000	98.56117	-361.87560	98.56117
15450.00000	99.05543	-364.24269	99.05543
15500.00000	99.60996	-366.76314	99.60996
15550.00000	100.12561	-369.45394	100.12561
15600.00000	100.55207	-372.82362	100.55207
15650.00000	101.07188	-374.13624	101.07188
15700.00000	101.30289	-378.68851	101.30289
15750.00000	101.78369	-381.55370	101.78369
15800.00000	102.20350	-383.81311	102.20350
15850.00000	102.48192	-386.89853	102.48192
15900.00000	102.79898	-391.01253	102.79898
15950.00000	103.02883	-394.07596	103.02883
16000.00000	103.31138	-397.00872	103.31138
16050.00000	103.68962	-400.39530	103.68962
16100.00000	103.77085	-403.88034	103.77085
16150.00000	103.96589	-407.07862	103.96589
16200.00000	104.18543	-410.98839	104.18543
16250.00000	104.45773	-413.87080	104.45773
16300.00000	104.81547	-417.12939	104.81547
16350.00000	104.94140	-420.35328	104.94140
16400.00000	105.15577	-423.30276	105.15577
16450.00000	105.32322	-426.15138	105.32322
16500.00000	105.39881	-429.75608	105.39881
16550.00000	105.72032	-433.35627	105.72032
16600.00000	105.90498	-436.13741	105.90498
16650.00000	106.03969	-439.40433	106.03969
16700.00000	106.24184	-442.22973	106.24184
16750.00000	106.29612	-445.88054	106.29612
16800.00000	106.48323	-449.19802	106.48323
16850.00000	106.68440	-452.39772	106.68440
16900.00000	106.83653	-455.87902	106.83653
16950.00000	106.97033	-459.20435	106.97033
17000.00000	106.95912	-462.43900	106.95912
17050.00000	107.12388	-464.95691	107.12388
17100.00000	107.18077	-466.85529	107.18077
17150.00000	107.40227	-471.11520	107.40227
17200.00000	107.47786	-474.15098	107.47786
17250.00000	107.57540	-477.79960	107.57540
17300.00000	107.73076	-480.80943	107.73076
17350.00000	107.72376	-483.63798	107.72376
17400.00000	107.91894	-487.00544	107.91894
17450.00000	107.93704	-490.60057	107.93704
17500.00000	108.09161	-493.68082	108.09161
17550.00000	108.17393	-496.86030	108.17393
17600.00000	108.35126	-499.72232	108.35126
17650.00000	108.42682	-503.73569	108.42682
17700.00000	108.54796	-506.89089	108.54796
17750.00000	108.67958	-510.05065	108.67958
17800.00000	108.64072	-514.06859	108.64072
17850.00000	108.72580	-516.92130	108.72580
17900.00000	108.75488	-520.58016	108.75488
17950.00000	108.88920	-524.26051	108.88920
18000.00000	108.88478	-528.25877	108.88478
18050.00000	109.07788	-531.34125	109.07788
18100.00000	109.03233	-535.27965	109.03233
18150.00000	109.03466	-538.42101	109.03466
18200.00000	108.99259	-542.44520	108.99259
18250.00000	109.06247	-545.34546	109.06247
18300.00000	109.17983	-548.96024	109.17983
18350.00000	109.09455	-552.38191	109.09455
18400.00000	109.01092	-556.19182	109.01092
18450.00000	108.94836	-560.92396	108.94836
18500.00000	108.94420	-564.18571	108.94420
18550.00000	108.86793	-567.10943	108.86793
18600.00000	108.91646	-571.10692	108.91646
18650.00000	108.70761	-574.21185	108.70761
18700.00000	108.62379	-578.19658	108.62379
18750.00000	108.59315	-581.29725	108.59315
18800.00000	108.59174	-584.09164	108.59174
18850.00000	108.40174	-587.85845	108.40174
18900.00000	108.29630	-590.29567	108.29630
18950.00000	108.18359	-594.46954	108.18359
19000.00000	107.94298	-597.06271	107.94298
19050.00000	107.97886	-600.21063	107.97886
19100.00000	107.80438	-603.14312	107.80438
19150.00000	107.83008	-605.90207	107.83008
19200.00000	107.69424	-608.42124	107.69424
19250.00000	107.57466	-612.34471	107.57466
19300.00000	107.41195	-614.45250	107.41195
19350.00000	107.32985	-617.55452	107.32985
19400.00000	107.19878	-620.07177	107.19878
19450.00000	107.18918	-622.32631	107.18918
19500.00000	106.95902	-625.69792	106.95902
19550.00000	106.93607	-628.37923	106.93607
19600.00000	106.93389	-631.81388	106.93389
19650.00000	106.79242	-633.93451	106.79242
19700.00000	106.59416	-636.89921	106.59416
19750.00000	106.52442	-639.06635	106.52442
19800.00000	106.51282	-642.53503	106.51282
19850.00000	106.42164	-645.13202	106.42164
19900.00000	106.28804	-648.59715	106.28804
19950.00000	106.17729	-651.32188	106.17729
20000.00000	106.07687	-654.09672	106.07687
20050.00000	105.96717	-656.97198	105.96717
20100.00000	105.80892	-660.03632	105.80892
20150.00000	105.72228	-661.80379	105.72228
20200.00000	105.55246	-665.48780	105.55246
20250.00000	105.36908	-668.10119	105.36908
20300.00000	105.13124	-670.98603	105.13124
20350.00000	105.05480	-673.94488	105.05480
20400.00000	104.80609	-675.99688	104.80609
20450.00000	104.56516	-678.76395	104.56516
20500.00000	104.42381	-681.62339	104.42381
20550.00000	103.98860	-683.40104	103.98860
20600.00000	103.84505	-685.52057	103.84505
20650.00000	103.60528	-687.69629	103.60528
20700.00000	103.27154	-689.73687	103.27154
20750.00000	103.11993	-691.54254	103.11993
20800.00000	102.82904	-692.91574	102.82904
20850.00000	102.64463	-694.53112	102.64463
20900.00000	102.34054	-695.94196	102.34054
20950.00000	102.10314	-696.65003	102.10314
21000.00000	101.88692	-697.51087	101.88692
21050.00000	101.83997	-697.94285	101.83997
21100.00000	101.64154	-698.28318	101.64154
21150.00000	101.58802	-699.25409	101.58802
21200.00000	101.54759	-699.38625	101.54759
21250.00000	101.48009	-701.25631	101.48009
21300.00000	101.52137	-701.10810	101.52137
21350.00000	101.48349	-702.05637	101.48349
21400.00000	101.48393	-703.43725	101.48393
21450.00000	101.52693	-704.59808	101.52693
21500.00000	101.56249	-706.08526	101.56249
21550.00000	101.49810	-707.01450	101.49810
21600.00000	101.58083	-708.83793	101.58083
21650.00000	101.59507	-710.37093	101.59507
21700.00000	101.59303	-711.95643	101.59303
21750.00000	101.62019	-713.40753	101.62019
21800.00000	101.60369	-715.19235	101.60369
21850.00000	101.55214	-716.94159	101.55214
21900.00000	101.55797	-717.94301	101.55797
21950.00000	101.53935	-719.91338	101.53935
22000.00000	101.53914	-721.28074	101.53914
22050.00000	101.53579	-722.82740	101.53579
22100.00000	101.49717	-724.15634	101.49717
22150.00000	101.47654	-725.94653	101.47654
22200.00000	101.58562	-727.29404	101.58562
22250.00000	101.48780	-728.89572	101.48780
22300.00000	101.41817	-730.23203	101.41817
22350.00000	101.52049	-731.77932	101.52049
22400.00000	101.60815	-733.63973	101.60815
22450.00000	101.48762	-735.21945	101.48762
22500.00000	101.49158	-735.50853	101.49158
22550.00000	101.49646	-737.41801	101.49646
22600.00000	101.47514	-740.04222	101.47514
22650.00000	101.49412	-741.17346	101.49412
22700.00000	101.48666	-743.29363	101.48666
22750.00000	101.50356	-742.86505	101.50356
22800.00000	101.57548	-746.44442	101.57548
22850.00000	101.61756	-748.58418	101.61756
22900.00000	101.57831	-749.41048	101.57831
22950.00000	101.65489	-750.92339	101.65489
23000.00000	101.58501	-752.26648	101.58501
23050.00000	101.62032	-754.08205	101.62032
23100.00000	101.63026	-754.65519	101.63026
23150.00000	101.60898	-756.36507	101.60898
23200.00000	101.70701	-759.26529	101.70701
23250.00000	101.59559	-762.21521	101.59559
23300.00000	101.89109	-763.93480	101.89109
23350.00000	101.54083	-765.82841	101.54083
23400.00000	101.48839	-767.28204	101.48839
23450.00000	101.77323	-769.61803	101.77323
23500.00000	101.62216	-769.98406	101.62216
23550.00000	101.59785	-770.83853	101.59785
23600.00000	101.49764	-773.82360	101.49764
23650.00000	101.59180	-775.83418	101.59180
23700.00000	101.67129	-779.31405	101.67129
23750.00000	101.68826	-780.22528	101.68826
23800.00000	101.38496	-780.22319	101.38496
23850.00000	101.51933	-782.05539	101.51933
23900.00000	101.98144	-784.23359	101.98144
23950.00000	101.63293	-786.53777	101.63293
24000.00000	101.55555	-788.65722	101.55555
24050.00000	101.59698	-789.65065	101.59698
24100.00000	101.89721	-792.94372	101.89721
24150.00000	101.94274	-794.04287	101.94274
24200.00000	101.97329	-797.42019	101.97329
24250.00000	101.53528	-797.26921	101.53528
24300.00000	101.92153	-799.83625	101.92153
24350.00000	101.73861	-802.32212	101.73861
24400.00000	101.88168	-805.34128	101.88168
24450.00000	101.54750	-806.10064	101.54750
24500.00000	102.10190	-807.45351	102.10190
24550.00000	101.89179	-811.47130	101.89179
24600.00000	102.40347	-812.38563	102.40347
24650.00000	102.04510	-456.27028	102.04510
24700.00000	102.18919	-95.75345	102.18919
24750.00000	102.16039	259.59510	102.16039
24800.00000	102.21490	617.96365	102.21490
24850.00000	101.95478	976.84555	101.95478
24900.00000	102.02092	1336.00952	102.02092
24950.00000	101.82696	1691.96197	101.82696
25000.00000	102.39614	1685.08391	102.39614
25050.00000	102.51274	1687.57669	102.51274
25100.00000	102.05556	1682.35642	102.05556
25150.00000	102.39831	1681.95332	102.39831
25200.00000	102.28428	1677.52941	102.28428
25250.00000	102.27622	1676.76878	102.27622
25300.00000	102.53494	1675.81459	102.53494
25350.00000	102.42369	1669.18532	102.42369
25400.00000	102.37536	1666.22606	102.37536
25450.00000	102.50116	1664.17111	102.50116
25500.00000	102.47038	1662.64665	102.47038
25550.00000	102.36226	1658.60829	102.36226
25600.00000	102.52057	1657.17022	102.52057
25650.00000	102.48393	1654.63492	102.48393
25700.00000	102.42627	1652.06869	102.42627
25750.00000	102.24350	1649.17230	102.24350
25800.00000	102.24906	1645.35023	102.24906
25850.00000	102.21356	1642.84489	102.21356
25900.00000	102.21939	1639.95293	102.21939
25950.00000	101.98827	1641.08740	101.98827
26000.00000	101.96560	1636.16892	101.96560
26050.00000	102.04870	1633.60205	102.04870
26100.00000	101.94389	1631.72827	101.94389
26150.00000	101.95833	1628.85302	101.95833
26200.00000	101.84886	1627.41139	101.84886
26250.00000	101.79167	1624.73439	101.79167
26300.00000	101.89731	1620.81873	101.89731
26350.00000	101.50773	1620.78292	101.50773
26400.00000	101.53343	1618.68693	101.53343
26450.00000	101.84441	1615.23546	101.84441
26500.00000	101.52328	1613.28921	101.52328
26550.00000	101.50029	1608.37917	101.50029
26600.00000	101.33116	1606.12221	101.33116
26650.00000	101.49082	1606.66358	101.49082
26700.00000	101.51016	1603.08083	101.51016
26750.00000	101.35423	1601.18832	101.35423
26800.00000	101.32949	1596.34440	101.32949
26850.00000	101.56848	1596.40818	101.56848
26900.00000	101.63218	1595.10031	101.63218
26950.00000	101.66406	1590.40678	101.66406
27000.00000	101.37691	1589.42950	101.37691
27050.00000	101.58210	1586.55628	101.58210
27100.00000	101.37141	1585.94256	101.37141
27150.00000	101.36398	1581.37683	101.36398
27200.00000	101.51408	1579.82909	101.51408
27250.00000	101.08176	1578.54812	101.08176
27300.00000	101.04562	1574.90694	101.04562
27350.00000	101.16736	1574.18725	101.16736
27400.00000	100.89801	1571.04918	100.89801
27450.00000	100.91136	1569.18836	100.91136
27500.00000	100.87571	1566.48330	100.87571
27550.00000	101.00789	1564.29971	101.00789
27600.00000	101.21173	1560.15668	101.21173
27650.00000	100.55747	1561.23481	100.55747
27700.00000	100.86926	1554.53806	100.86926
27750.00000	100.68309	1552.32727	100.68309
27800.00000	100.74389	1548.35299	100.74389
27850.00000	100.90919	1549.61069	100.90919
27900.00000	100.49946	1547.42046	100.49946
27950.00000	99.74875	1543.34934	99.74875
28000.00000	99.84349	1542.35181	99.84349
28050.00000	100.33332	1538.78498	100.33332
28100.00000	99.56029	1537.13741	99.56029
28150.00000	99.70406	1535.83648	99.70406
28200.00000	99.62471	1531.07488	99.62471
28250.00000	99.20200	1529.10754	99.20200
28300.00000	98.82578	1528.60935	98.82578
28350.00000	98.92852	1528.08682	98.92852
28400.00000	98.75266	1526.66128	98.75266
28450.00000	99.10100	1524.35748	99.10100
28500.00000	98.60929	1523.41204	98.60929
28550.00000	98.17480	1524.45448	98.17480
28600.00000	98.27236	1523.22330	98.27236
28650.00000	98.34513	1518.93462	98.34513
28700.00000	98.14738	1520.07059	98.14738
28750.00000	98.74832	1520.12456	98.74832
28800.00000	98.34453	1517.42750	98.34453
28850.00000	97.71254	1514.63799	97.71254
28900.00000	97.92819	1513.84188	97.92819
28950.00000	97.64245	1514.91939	97.64245
29000.00000	97.89839	1512.64383	97.89839
29050.00000	97.44621	1514.47677	97.44621
29100.00000	97.64359	1515.31537	97.64359
29150.00000	97.28648	1511.89174	97.28648
29200.00000	97.25007	1510.83482	97.25007
29250.00000	97.55032	1509.83952	97.55032
29300.00000	97.17801	1508.81962	97.17801
29350.00000	97.62461	1507.36944	97.62461
29400.00000	97.46150	1506.89324	97.46150
29450.00000	97.43085	1506.08639	97.43085
29500.00000	97.94150	1506.16528	97.94150
29550.00000	97.58120	1502.39846	97.58120
29600.00000	97.68678	1503.37530	97.68678
29650.00000	97.56853	1501.16767	97.56853
29700.00000	97.45894	1502.30229	97.45894
29750.00000	97.68342	1502.08580	97.68342
29800.00000	97.49512	1500.21656	97.49512
29850.00000	97.74603	1497.89702	97.74603
29900.00000	98.01626	1498.18879	98.01626
29950.00000	97.29131	1497.16827	97.29131
30000.00000	97.81709	1497.89029	97.81709
30050.00000	97.89262	1495.59194	97.89262
30100.00000	97.63402	1495.97146	97.63402
30150.00000	97.84171	1492.02860	97.84171
30200.00000	97.91715	1490.85410	97.91715
30250.00000	97.72084	1490.89231	97.72084
30300.00000	97.59614	1489.51186	97.59614
30350.00000	97.69627	1492.16710	97.69627
30400.00000	97.70971	1489.18064	97.70971
30450.00000	97.37583	1489.49687	97.37583
30500.00000	97.57799	1488.08160	97.57799
30550.00000	97.58253	1489.11333	97.58253
30600.00000	97.60755	1489.58869	97.60755
30650.00000	97.74429	1489.13332	97.74429
30700.00000	97.77416	1488.41622	97.77416
30750.00000	97.80675	1490.39729	97.80675
30800.00000	97.93496	1489.85408	97.93496
30850.00000	98.23042	1492.05806	98.23042
30900.00000	98.20075	1492.69008	98.20075
30950.00000	98.77865	1491.50341	98.77865
31000.00000	99.07412	1491.48554	99.07412
31050.00000	99.45987	1491.39333	99.45987
31100.00000	99.96549	1492.13845	99.96549
31150.00000	100.03271	1491.49065	100.03271
31200.00000	100.94725	1490.25789	100.94725
31250.00000	101.17994	1489.13636	101.17994
31300.00000	101.75524	1487.29240	101.75524
31350.00000	102.23601	1485.39096	102.23601
31400.00000	102.55310	1482.66470	102.55310
31450.00000	103.07660	1480.43556	103.07660
31500.00000	103.53146	1477.00440	103.53146
31550.00000	103.86532	1474.43058	103.86532
31600.00000	104.43282	1470.39084	104.43282
31650.00000	104.68958	1467.08224	104.68958
31700.00000	105.01497	1463.84307	105.01497
31750.00000	105.34281	1461.55464	105.34281
31800.00000	105.61994	1457.21321	105.61994
31850.00000	105.93051	1452.99065	105.93051
31900.00000	105.95410	1449.15539	105.95410
31950.00000	106.23564	1445.30192	106.23564
32000.00000	106.49563	1441.46996	106.49563
32050.00000	106.66620	1437.74658	106.66620
32100.00000	106.74287	1433.96918	106.74287
32150.00000	106.87606	1430.59369	106.87606
32200.00000	107.04566	1425.88134	107.04566
32250.00000	107.08200	1421.51277	107.08200
32300.00000	107.20742	1418.80896	107.20742
32350.00000	107.11173	1415.19860	107.11173
32400.00000	107.29761	1412.11334	107.29761
32450.00000	107.30756	1408.08182	107.30756
32500.00000	107.32763	1404.78005	107.32763
32550.00000	107.43621	1401.06061	107.43621
32600.00000	107.50796	1397.70668	107.50796
32650.00000	107.50103	1394.13858	107.50103
32700.00000	107.40941	1390.77314	107.40941
32750.00000	107.43593	1386.74332	107.43593
32800.00000	107.55497	1384.33512	107.55497
32850.00000	107.51660	1380.77530	107.51660
32900.00000	107.45860	1376.52305	107.45860
32950.00000	107.34030	1372.86686	107.34030
33000.00000	107.17957	1371.32306	107.17957
33050.00000	107.19224	1366.80219	107.19224
33100.00000	107.18786	1363.43694	107.18786
33150.00000	107.09954	1361.61050	107.09954
33200.00000	107.31033	1359.36525	107.31033
33250.00000	106.92124	1356.25050	106.92124
33300.00000	106.90432	1352.75175	106.90432
33350.00000	106.79971	1349.18213	106.79971
33400.00000	106.61177	1347.76176	106.61177
33450.00000	106.63680	1345.20919	106.63680
33500.00000	106.72788	1343.93227	106.72788
33550.00000	106.15439	1339.16522	106.15439
33600.00000	106.31756	1337.97376	106.31756
33650.00000	106.28539	1336.10694	106.28539
33700.00000	106.09126	1332.60213	106.09126
33750.00000	105.90602	1330.83066	105.90602
33800.00000	105.94944	1328.37772	105.94944
33850.00000	105.58287	1327.04126	105.58287
33900.00000	105.62017	1325.37882	105.62017
33950.00000	105.58226	1323.33866	105.58226
34000.00000	105.57733	1320.53257	105.57733
34050.00000	105.31309	1318.79951	105.31309
34100.00000	105.07904	1318.63366	105.07904
34150.00000	105.16156	1315.84194	105.16156
34200.00000	105.07712	1314.36106	105.07712
34250.00000	104.98913	1312.62211	104.98913
34300.00000	105.00038	1311.94698	105.00038
34350.00000	104.97081	1310.68645	104.97081
34400.00000	104.53314	1312.10672	104.53314
34450.00000	104.79281	1307.57778	104.79281
34500.00000	104.88712	1308.38831	104.88712
34550.00000	104.70144	1306.55052	104.70144
34600.00000	104.44747	1304.96804	104.44747
34650.00000	104.67863	1306.35662	104.67863
34700.00000	104.31125	1305.20380	104.31125
34750.00000	104.47012	1300.31655	104.47012
34800.00000	104.52015	1302.02416	104.52015
34850.00000	104.62982	1303.26872	104.62982
34900.00000	104.81059	1299.91970	104.81059
34950.00000	104.85688	1301.13751	104.85688
35000.00000	104.73348	1299.39905	104.73348
35050.00000	104.72258	1300.58240	104.72258
35100.00000	105.42871	1297.69981	105.42871
35150.00000	105.01605	1299.02472	105.01605
35200.00000	104.99949	1297.13333	104.99949
35250.00000	105.29215	1297.73289	105.29215
35300.00000	105.62813	1294.85293	105.62813
35350.00000	105.59161	1294.30181	105.59161
35400.00000	105.59164	1293.18516	105.59164
35450.00000	106.01834	1293.50838	106.01834
35500.00000	105.88755	1292.26634	105.88755
35550.00000	106.15605	1292.77082	106.15605
35600.00000	106.37668	1291.18145	106.37668
35650.00000	106.64311	1290.13737	106.64311
35700.00000	106.87094	1287.97424	106.87094
35750.00000	106.68017	1289.37792	106.68017
35800.00000	107.06796	1289.75828	107.06796
35850.00000	107.43185	1287.55461	107.43185
35900.00000	107.64180	1286.00919	107.64180
35950.00000	107.87500	1285.14387	107.87500
36000.00000	108.01033	1284.14227	108.01033
36050.00000	108.43862	1283.81721	108.43862
36100.00000	108.67795	1282.34884	108.67795
36150.00000	108.89302	1282.05232	108.89302
36200.00000	109.12739	1280.96019	109.12739
36250.00000	109.37684	1277.64096	109.37684
36300.00000	109.69927	1278.26622	109.69927
36350.00000	110.00923	1276.36906	110.00923
36400.00000	110.45456	1274.94838	110.45456
36450.00000	110.49011	1272.87677	110.49011
36500.00000	111.01433	1272.42205	111.01433
36550.00000	111.17219	1268.67308	111.17219
36600.00000	111.41802	1267.60397	111.41802
36650.00000	111.76870	1265.12717	111.76870
36700.00000	112.21427	1262.61976	112.21427
36750.00000	112.49003	1260.27419	112.49003
36800.00000	112.62592	1258.05580	112.62592
36850.00000	112.78654	1255.47781	112.78654
36900.00000	113.19543	1253.13954	113.19543
36950.00000	113.33048	1250.29982	113.33048
37000.00000	113.31432	1247.71112	113.31432
37050.00000	113.52348	1246.03042	113.52348
37100.00000	113.97691	1242.30396	113.97691
37150.00000	114.22676	1238.91340	114.22676
37200.00000	114.61056	1236.97397	114.61056
37250.00000	114.38603	1233.57524	114.38603
37300.00000	114.65259	1231.01965	114.65259
37350.00000	115.15866	1227.82413	115.15866
37400.00000	115.04810	1225.00455	115.04810
37450.00000	115.11535	1222.32069	115.11535
37500.00000	115.70678	1218.42737	115.70678
37550.00000	115.57081	1215.67628	115.57081
37600.00000	115.78262	1211.95120	115.78262
37650.00000	115.86353	1208.81356	115.86353
37700.00000	116.06831	1204.69430	116.06831
37750.00000	116.21069	1202.44526	116.21069
37800.00000	116.35143	1198.39375	116.35143
37850.00000	116.44082	1193.69219	116.44082
37900.00000	116.53416	1190.68897	116.53416
37950.00000	116.72076	1188.38115	116.72076
38000.00000	116.80630	1184.81573	116.80630
38050.00000	116.99393	1180.78247	116.99393
38100.00000	117.18251	1176.62105	117.18251
38150.00000	117.24084	1172.58889	117.24084
38200.00000	117.53928	1168.45679	117.53928
38250.00000	117.67315	1164.83746	117.67315
38300.00000	117.87326	1159.96035	117.87326
38350.00000	117.94176	1156.77588	117.94176
38400.00000	118.14308	1152.53150	118.14308
38450.00000	118.28890	1147.33260	118.28890
38500.00000	118.52172	1142.35838	118.52172
38550.00000	118.68916	1138.58847	118.68916
38600.00000	118.90133	1133.94092	118.90133
38650.00000	119.03798	1128.69445	119.03798
38700.00000	119.19931	1123.77653	119.19931
38750.00000	119.32556	1118.74975	119.32556
38800.00000	119.48523	1113.82312	119.48523
38850.00000	119.61358	1108.14242	119.61358
38900.00000	119.73802	1102.87923	119.73802
38950.00000	119.76723	1097.36645	119.76723
39000.00000	119.86013	1091.59832	119.86013
39050.00000	119.95561	1086.37159	119.95561
39100.00000	119.90651	1080.79084	119.90651
39150.00000	119.84418	1075.13830	119.84418
39200.00000	119.91577	1069.85183	119.91577
39250.00000	119.85073	1064.08180	119.85073
39300.00000	119.78112	1058.11008	119.78112
39350.00000	119.66793	1053.46944	119.66793
39400.00000	119.55043	1047.39008	119.55043
39450.00000	119.38672	1042.43980	119.38672
39500.00000	119.29045	1037.22511	119.29045
39550.00000	119.05163	1031.67367	119.05163
39600.00000	118.78023	1026.70370	118.78023
39650.00000	118.63790	1022.25650	118.63790
39700.00000	118.32151	1017.36739	118.32151
39750.00000	118.14097	1012.33016	118.14097
39800.00000	117.85653	1007.79259	117.85653
39850.00000	117.53541	1003.37829	117.53541
39900.00000	117.23471	998.95678	117.23471
39950.00000	116.93505	994.91576	116.93505
40000.00000	116.46174	992.26778	116.46174
40050.00000	116.23188	986.82702	116.23188
40100.00000	115.91323	983.07991	115.91323
40150.00000	115.53023	979.50200	115.53023
40200.00000	115.17217	975.78425	115.17217
40250.00000	114.84347	972.78138	114.84347
40300.00000	114.50781	969.55702	114.50781
40350.00000	113.94115	966.76348	113.94115
40400.00000	113.51381	963.77433	113.51381
40450.00000	113.21990	961.59519	113.21990
40500.00000	112.80476	959.21911	112.80476
40550.00000	112.45367	956.74012	112.45367
40600.00000	112.04421	954.78181	112.04421
40650.00000	111.60438	953.33863	111.60438
40700.00000	111.05911	952.36333	111.05911
40750.00000	110.91844	950.72464	110.91844
40800.00000	110.41240	949.08975	110.41240
40850.00000	110.04677	948.39720	110.04677
40900.00000	109.53725	947.33730	109.53725
40950.00000	109.07223	947.60732	109.07223
41000.00000	108.54305	946.88325	108.54305
41050.00000	108.53419	947.20814	108.53419
41100.00000	108.17865	946.28126	108.17865
41150.00000	107.99046	948.71854	107.99046
41200.00000	107.88512	948.11802	107.88512
41250.00000	107.42610	946.61744	107.42610
41300.00000	107.03982	949.31147	107.03982
41350.00000	107.12590	950.87998	107.12590
41400.00000	106.67229	947.79500	106.67229
41450.00000	106.81419	949.91889	106.81419
41500.00000	106.37602	951.06102	106.37602
41550.00000	106.10385	954.62545	106.10385
41600.00000	105.57198	953.63870	105.57198
41650.00000	106.19888	953.76832	106.19888
41700.00000	106.31181	956.59555	106.31181
41750.00000	105.86684	960.50576	105.86684
41800.00000	105.31331	957.52825	105.31331
41850.00000	104.88913	958.62687	104.88913
41900.00000	104.78512	960.60059	104.78512
41950.00000	106.08166	966.53959	106.08166
42000.00000	104.70540	961.27237	104.70540
42050.00000	103.91718	960.58788	103.91718
42100.00000	104.30206	964.02395	104.30206
42150.00000	103.91144	957.36703	103.91144
42200.00000	103.69111	964.50833	103.69111
42250.00000	104.07745	965.87679	104.07745
42300.00000	102.89264	967.24088	102.89264
42350.00000	103.34611	964.83598	103.34611
42400.00000	103.14802	972.53798	103.14802
42450.00000	103.45938	960.70846	103.45938
42500.00000	103.16304	965.93438	103.16304
42550.00000	102.89062	975.90801	102.89062
42600.00000	102.53915	965.72481	102.53915
42650.00000	102.77596	971.12965	102.77596
42700.00000	102.23539	967.85573	102.23539
42750.00000	103.84627	962.24862	103.84627
42800.00000	103.30507	953.37254	103.30507
42850.00000	102.66343	956.53062	102.66343
42900.00000	103.69132	958.08107	103.69132
42950.00000	102.90770	953.14776	102.90770
43000.00000	103.21861	941.83855	103.21861
43050.00000	103.19649	941.18276	103.19649
43100.00000	103.87034	942.10544	103.87034
43150.00000	102.67521	937.62174	102.67521
43200.00000	103.69563	932.14619	103.69563
43250.00000	103.80381	926.79659	103.80381
43300.00000	103.91722	920.79174	103.91722
43350.00000	104.74040	916.27724	104.74040
43400.00000	103.85032	912.31489	103.85032
43450.00000	105.38513	908.27291	105.38513
43500.00000	104.16734	900.62825	104.16734
43550.00000	105.02881	895.28263	105.02881
43600.00000	105.36717	888.00394	105.36717
43650.00000	105.40440	879.26497	105.40440
43700.00000	105.50421	878.00191	105.50421
43750.00000	105.09641	875.97911	105.09641
43800.00000	105.67897	865.17672	105.67897
43850.00000	106.40375	860.83261	106.40375
43900.00000	106.63698	857.48822	106.63698
43950.00000	107.05560	851.79244	107.05560
44000.00000	106.70381	846.09250	106.70381
44050.00000	107.02666	840.14910	107.02666
44100.00000	107.27152	829.04734	107.27152
44150.00000	107.19883	828.70091	107.19883
44200.00000	106.84891	827.21621	106.84891
44250.00000	107.63400	819.56770	107.63400
44300.00000	107.77250	812.37875	107.77250
44350.00000	106.89924	807.72585	106.89924
44400.00000	107.48749	804.25576	107.48749
44450.00000	108.12533	802.26182	108.12533
44500.00000	107.73734	797.59284	107.73734
44550.00000	109.39065	787.22927	109.39065
44600.00000	107.81030	786.94835	107.81030
44650.00000	107.48701	778.09621	107.48701
44700.00000	107.61663	774.99619	107.61663
44750.00000	107.70097	774.16407	107.70097
44800.00000	108.35380	767.81664	108.35380
44850.00000	107.87255	761.46969	107.87255
44900.00000	107.38113	760.82543	107.38113
44950.00000	107.77241	752.84833	107.77241
45000.00000	107.75843	744.62458	107.75843
45050.00000	106.42606	750.41173	106.42606
45100.00000	106.97069	741.41280	106.97069
45150.00000	107.07873	731.21646	107.07873
45200.00000	106.46597	734.40544	106.46597
45250.00000	106.16916	729.30176	106.16916
45300.00000	106.22036	728.68721	106.22036
45350.00000	105.76576	717.95841	105.76576
45400.00000	105.93552	717.00405	105.93552
45450.00000	106.11163	710.00228	106.11163
45500.00000	104.93050	704.87730	104.93050
45550.00000	104.59553	709.80848	104.59553
45600.00000	105.55928	698.49873	105.55928
45650.00000	103.60535	694.81860	103.60535
45700.00000	103.60027	692.57289	103.60027
45750.00000	104.85272	693.86461	104.85272
45800.00000	103.24317	684.58142	103.24317
45850.00000	103.28009	686.76667	103.28009
45900.00000	103.14195	686.77981	103.14195
45950.00000	102.31064	685.53670	102.31064
46000.00000	100.78051	668.02069	100.78051
46050.00000	101.19183	668.11964	101.19183
46100.00000	100.23018	671.14311	100.23018
46150.00000	100.12843	671.44152	100.12843
46200.00000	98.53386	660.59575	98.53386
46250.00000	99.01544	662.64649	99.01544
46300.00000	98.15732	661.47930	98.15732
46350.00000	99.35648	656.59002	99.35648
46400.00000	97.89718	653.92422	97.89718
46450.00000	96.22381	654.34673	96.22381
46500.00000	97.04749	654.29832	97.04749
46550.00000	96.37461	663.19726	96.37461
46600.00000	97.30956	655.81660	97.30956
46650.00000	93.18056	659.66910	93.18056
46700.00000	93.58783	668.85013	93.58783
46750.00000	94.65119	676.05496	94.65119
46800.00000	92.78082	666.86160	92.78082
46850.00000	94.23282	322.79713	94.23282
46900.00000	94.19238	313.83938	94.19238
46950.00000	95.04735	312.37410	95.04735
47000.00000	94.53139	318.70200	94.53139
47050.00000	96.60822	310.11293	96.60822
47100.00000	95.59129	305.09174	95.59129
47150.00000	95.70281	310.87893	95.70281
47200.00000	94.60041	309.06217	94.60041
47250.00000	95.73896	308.59662	95.73896
47300.00000	95.34605	299.89800	95.34605
47350.00000	95.35460	-48.60969	95.35460
47400.00000	94.85311	-49.45938	94.85311
47450.00000	96.34983	-49.12779	96.34983
47500.00000	94.51122	-62.94168	94.51122
47550.00000	94.35330	-413.50005	94.35330
47600.00000	94.57652	-416.43485	94.57652
47650.00000	96.56706	-419.53102	96.56706
47700.00000	95.29688	-421.15829	95.29688
47750.00000	93.60550	-416.52869	93.60550
47800.00000	94.55726	-434.14977	94.55726
47850.00000	94.27326	-785.27658	94.27326
47900.00000	94.91429	-1136.59397	94.91429
47950.00000	94.21126	-1138.94946	94.21126
48000.00000	94.38658	-1135.72362	94.38658
48050.00000	95.36019	-1144.70605	95.36019
48100.00000	94.00109	-1146.05337	94.00109
48150.00000	95.09831	-1502.06192	95.09831
48200.00000	95.66233	-1494.71845	95.66233
48250.00000	94.33102	-1504.25271	94.33102
48300.00000	95.22570	-1504.54140	95.22570
48350.00000	95.24834	-1510.75544	95.24834
48400.00000	96.09688	-1854.68659	96.09688
48450.00000	96.91951	-1862.51576	96.91951
48500.00000	96.03723	-1866.67284	96.03723
48550.00000	94.61602	-1868.57032	94.61602
48600.00000	97.22141	-2225.92095	97.22141
48650.00000	97.31417	-2225.80779	97.31417
48700.00000	97.56891	-2236.38494	97.56891
48750.00000	96.51549	-2585.00590	96.51549
48800.00000	97.64827	-2596.12139	97.64827
48850.00000	97.44157	-2597.05039	97.44157
48900.00000	95.85056	-2959.12900	95.85056
48950.00000	97.69705	-2970.45203	97.69705
49000.00000	98.10183	-2969.47496	98.10183
49050.00000	97.06231	-2970.86033	97.06231
49100.00000	96.63829	-3333.31109	96.63829
49150.00000	98.39542	-3691.16707	98.39542
49200.00000	97.64477	-3706.11616	97.64477
49250.00000	97.21778	-4052.05601	97.21778
49300.00000	97.84644	-3710.08362	97.84644
49350.00000	96.25027	-3698.65153	96.25027
49400.00000	97.02991	-3348.14235	97.02991
49450.00000	95.26779	-3000.71191	95.26779
49500.00000	96.36841	-2651.42365	96.36841
49550.00000	96.02790	-2297.02497	96.02790
49600.00000	95.25145	-2288.42147	95.25145
49650.00000	95.77097	-2284.61664	95.77097
49700.00000	95.02150	-1950.28631	95.02150
49750.00000	95.21999	-1946.63858	95.21999
49800.00000	91.80684	-1937.98652	91.80684
49850.00000	89.22330	-1924.96522	89.22330
49900.00000	87.54893	-1585.81468	87.54893
49950.00000	89.97725	-1205.48307	89.97725
