---ACOUSTIC CALIBRATION---
Filename: C:\Data\AZH DATA\AZH41\RightPrimary.calib
Date: 8/27/2019 2:04:07 PM
Format: 4
Probe Tube Correction File: C:\Data\Probe Tube Calibrations\50_ProbeTube.calib
Experiment VIs: 850
EPL_CFTS.exe V12.0.1 (2012)
DAQmx V9.6

Attenuation (dB): 40.000000
Min Freq (Hz): 50.000000
Max Freq (Hz): 49950.000000
Freq Step (Hz): 50.000000
Sample Rate (Hz): 100000.000000
[Smoothing]
Method=None
MA.Iterations=0
MA.Length=0
Loess.Length=0
Loess.Type=Linear
Loess.Robust=FALSE


Freq(Hz)	Mag(dB)	Phase(deg)	Unsmoothed(dB)

50.00000	105.19542	356.32319	105.19542
100.00000	83.94252	213.27456	83.94252
150.00000	75.92255	122.13626	75.92255
200.00000	83.43638	133.79621	83.43638
250.00000	83.31629	86.26901	83.31629
300.00000	82.56202	160.61699	82.56202
350.00000	77.17816	33.48722	77.17816
400.00000	85.11053	41.71641	85.11053
450.00000	88.09785	 7.49421	88.09785
500.00000	88.95198	32.08534	88.95198
550.00000	89.46869	24.62718	89.46869
600.00000	95.24008	13.01947	95.24008
650.00000	96.17109	-5.05894	96.17109
700.00000	98.49776	-14.67420	98.49776
750.00000	99.60592	-34.97390	99.60592
800.00000	101.22267	-56.79312	101.22267
850.00000	100.46600	-74.48369	100.46600
900.00000	99.21799	-91.57290	99.21799
950.00000	97.02112	-95.71146	97.02112
1000.00000	95.89958	-97.57645	95.89958
1050.00000	93.98261	-84.33314	93.98261
1100.00000	94.93578	-63.83676	94.93578
1150.00000	97.64639	-57.49759	97.64639
1200.00000	100.31416	-60.09333	100.31416
1250.00000	102.10123	-64.76409	102.10123
1300.00000	103.83677	-70.82399	103.83677
1350.00000	105.16336	-79.98507	105.16336
1400.00000	106.15112	-89.01785	106.15112
1450.00000	106.95157	-94.37689	106.95157
1500.00000	108.02478	-100.79863	108.02478
1550.00000	108.90342	-108.96952	108.90342
1600.00000	110.50694	-117.78132	110.50694
1650.00000	111.46240	-134.33784	111.46240
1700.00000	110.36085	-145.31354	110.36085
1750.00000	110.15266	-150.95263	110.15266
1800.00000	110.02658	-156.74740	110.02658
1850.00000	110.05240	-158.30199	110.05240
1900.00000	111.10227	-161.89273	111.10227
1950.00000	111.75637	-174.34878	111.75637
2000.00000	111.07322	-186.91384	111.07322
2050.00000	109.47023	-184.81781	109.47023
2100.00000	111.16024	-182.42074	111.16024
2150.00000	112.00397	-192.76696	112.00397
2200.00000	112.01181	-203.31468	112.01181
2250.00000	111.48076	-210.26085	111.48076
2300.00000	111.62577	-216.43989	111.62577
2350.00000	111.36972	-222.75419	111.36972
2400.00000	111.19809	-228.66158	111.19809
2450.00000	110.81547	-234.76086	110.81547
2500.00000	110.55507	-240.13180	110.55507
2550.00000	110.03143	-246.04340	110.03143
2600.00000	109.53385	-250.14833	109.53385
2650.00000	109.02809	-254.28585	109.02809
2700.00000	108.57112	-258.01825	108.57112
2750.00000	107.95833	-261.81868	107.95833
2800.00000	107.33852	-264.39065	107.33852
2850.00000	106.75203	-266.68917	106.75203
2900.00000	106.15481	-268.58285	106.15481
2950.00000	105.49219	-269.91253	105.49219
3000.00000	104.80268	-271.10643	104.80268
3050.00000	103.93158	-272.01096	103.93158
3100.00000	103.15618	-270.98936	103.15618
3150.00000	102.00958	-269.36882	102.00958
3200.00000	100.70775	-262.67384	100.70775
3250.00000	99.95729	-252.27662	99.95729
3300.00000	99.75480	-238.83713	99.75480
3350.00000	100.30919	-223.38983	100.30919
3400.00000	102.05439	-208.31730	102.05439
3450.00000	104.57347	-201.23339	104.57347
3500.00000	107.06664	-200.39374	107.06664
3550.00000	109.11787	-204.34976	109.11787
3600.00000	110.96768	-208.18949	110.96768
3650.00000	112.43463	-214.32422	112.43463
3700.00000	113.68704	-219.83927	113.68704
3750.00000	114.93779	-225.88396	114.93779
3800.00000	116.05765	-232.74740	116.05765
3850.00000	116.98379	-239.70035	116.98379
3900.00000	117.87222	-246.33610	117.87222
3950.00000	118.76479	-253.18827	118.76479
4000.00000	119.58356	-260.58934	119.58356
4050.00000	120.35602	-267.87662	120.35602
4100.00000	121.18921	-275.49876	121.18921
4150.00000	122.16580	-284.08641	122.16580
4200.00000	122.84742	-294.31143	122.84742
4250.00000	123.45023	-305.56602	123.45023
4300.00000	123.81228	-317.40294	123.81228
4350.00000	123.86557	-329.56577	123.86557
4400.00000	123.68785	-340.75573	123.68785
4450.00000	123.36241	-351.05815	123.36241
4500.00000	122.96204	-360.35764	122.96204
4550.00000	122.54247	-369.02949	122.54247
4600.00000	122.07212	-377.10755	122.07212
4650.00000	121.65574	-384.82505	121.65574
4700.00000	121.20288	-392.98486	121.20288
4750.00000	120.62005	-401.39185	120.62005
4800.00000	119.84545	-409.97606	119.84545
4850.00000	118.79445	-417.70491	118.79445
4900.00000	117.51385	-423.69893	117.51385
4950.00000	116.15980	-426.90545	116.15980
5000.00000	114.92240	-427.76102	114.92240
5050.00000	113.88182	-427.67075	113.88182
5100.00000	112.77146	-424.71555	112.77146
5150.00000	112.57319	-418.74605	112.57319
5200.00000	112.03012	-416.21896	112.03012
5250.00000	112.96702	-404.34581	112.96702
5300.00000	115.29529	-410.68060	115.29529
5350.00000	115.54037	-423.29466	115.54037
5400.00000	114.99381	-430.62526	114.99381
5450.00000	114.45547	-434.76992	114.45547
5500.00000	114.07298	-437.82702	114.07298
5550.00000	113.76517	-440.12670	113.76517
5600.00000	113.54348	-442.60743	113.54348
5650.00000	113.35510	-444.82977	113.35510
5700.00000	113.17293	-447.37026	113.17293
5750.00000	113.03189	-449.56942	113.03189
5800.00000	112.88839	-452.06998	112.88839
5850.00000	112.74774	-454.37092	112.74774
5900.00000	112.65475	-456.64109	112.65475
5950.00000	112.55412	-458.80573	112.55412
6000.00000	112.47735	-460.94066	112.47735
6050.00000	112.41159	-463.26314	112.41159
6100.00000	112.40459	-465.58507	112.40459
6150.00000	112.37993	-468.14919	112.37993
6200.00000	112.34823	-470.75986	112.34823
6250.00000	112.31824	-473.72279	112.31824
6300.00000	112.27845	-476.53946	112.27845
6350.00000	112.19246	-479.51353	112.19246
6400.00000	112.09192	-482.28184	112.09192
6450.00000	112.04060	-485.11403	112.04060
6500.00000	111.95633	-487.86145	111.95633
6550.00000	111.87429	-490.49930	111.87429
6600.00000	111.80161	-493.22648	111.80161
6650.00000	111.73319	-495.77885	111.73319
6700.00000	111.67223	-498.50301	111.67223
6750.00000	111.61937	-501.11170	111.61937
6800.00000	111.59182	-503.75493	111.59182
6850.00000	111.54402	-506.38675	111.54402
6900.00000	111.51439	-509.08363	111.51439
6950.00000	111.49160	-511.59121	111.49160
7000.00000	111.48827	-514.38523	111.48827
7050.00000	111.46076	-517.29422	111.46076
7100.00000	111.45038	-520.32881	111.45038
7150.00000	111.44536	-523.08457	111.44536
7200.00000	111.42951	-526.20250	111.42951
7250.00000	111.39896	-529.48824	111.39896
7300.00000	111.40880	-532.67533	111.40880
7350.00000	111.36707	-535.90243	111.36707
7400.00000	111.35336	-539.37068	111.35336
7450.00000	111.30782	-542.91034	111.30782
7500.00000	111.25493	-546.30759	111.25493
7550.00000	111.19217	-550.03564	111.19217
7600.00000	111.11270	-553.66865	111.11270
7650.00000	111.01278	-557.26370	111.01278
7700.00000	110.94406	-560.86012	110.94406
7750.00000	110.79811	-564.66392	110.79811
7800.00000	110.66635	-568.36275	110.66635
7850.00000	110.50653	-571.91428	110.50653
7900.00000	110.36198	-575.40548	110.36198
7950.00000	110.19552	-578.99744	110.19552
8000.00000	110.00756	-582.54058	110.00756
8050.00000	109.80478	-586.34452	109.80478
8100.00000	109.60147	-589.33569	109.60147
8150.00000	109.33855	-592.59120	109.33855
8200.00000	109.11715	-595.54103	109.11715
8250.00000	108.85242	-598.95198	108.85242
8300.00000	108.61322	-602.02366	108.61322
8350.00000	108.34290	-604.92415	108.34290
8400.00000	108.06885	-608.46162	108.06885
8450.00000	107.72000	-611.62285	107.72000
8500.00000	107.41779	-614.81950	107.41779
8550.00000	107.12391	-617.66086	107.12391
8600.00000	106.84006	-620.91257	106.84006
8650.00000	106.52709	-623.68250	106.52709
8700.00000	106.26475	-626.82337	106.26475
8750.00000	105.93765	-628.24728	105.93765
8800.00000	105.67223	-630.86669	105.67223
8850.00000	105.33098	-633.14546	105.33098
8900.00000	105.06730	-634.94065	105.06730
8950.00000	104.75725	-637.26269	104.75725
9000.00000	104.33802	-639.54949	104.33802
9050.00000	104.00558	-642.24439	104.00558
9100.00000	103.65553	-644.41916	103.65553
9150.00000	103.34542	-646.95940	103.34542
9200.00000	103.09008	-649.55070	103.09008
9250.00000	102.81848	-652.01197	102.81848
9300.00000	102.64047	-654.30420	102.64047
9350.00000	102.52170	-656.29874	102.52170
9400.00000	102.25897	-657.77141	102.25897
9450.00000	102.08059	-658.88062	102.08059
9500.00000	101.88588	-659.10148	101.88588
9550.00000	101.76453	-659.13205	101.76453
9600.00000	101.68761	-660.52154	101.68761
9650.00000	101.43323	-662.15453	101.43323
9700.00000	101.15015	-663.23434	101.15015
9750.00000	100.94140	-665.69380	100.94140
9800.00000	100.68092	-667.01290	100.68092
9850.00000	100.50829	-668.54232	100.50829
9900.00000	100.22531	-670.46692	100.22531
9950.00000	100.14880	-671.65108	100.14880
10000.00000	100.06732	-673.31416	100.06732
10050.00000	99.94839	-674.47222	99.94839
10100.00000	99.82305	-675.29240	99.82305
10150.00000	99.59939	-676.86824	99.59939
10200.00000	99.43350	-678.28031	99.43350
10250.00000	99.19027	-679.91363	99.19027
10300.00000	99.09870	-681.63739	99.09870
10350.00000	98.88152	-683.52866	98.88152
10400.00000	98.67597	-685.91556	98.67597
10450.00000	98.66721	-688.39733	98.66721
10500.00000	98.65743	-690.48608	98.65743
10550.00000	98.62703	-692.60404	98.62703
10600.00000	98.58316	-694.37811	98.58316
10650.00000	98.51389	-695.58784	98.51389
10700.00000	98.44908	-698.10902	98.44908
10750.00000	98.38307	-699.97505	98.38307
10800.00000	98.20588	-701.69472	98.20588
10850.00000	98.05581	-704.60826	98.05581
10900.00000	97.92075	-706.80280	97.92075
10950.00000	97.81344	-708.83901	97.81344
11000.00000	97.69068	-711.12667	97.69068
11050.00000	97.42034	-713.19794	97.42034
11100.00000	97.26756	-715.68248	97.26756
11150.00000	97.00787	-717.54028	97.00787
11200.00000	96.85244	-719.33810	96.85244
11250.00000	96.57367	-721.64943	96.57367
11300.00000	96.27159	-723.88084	96.27159
11350.00000	96.02711	-725.60405	96.02711
11400.00000	95.69781	-727.66303	95.69781
11450.00000	95.50202	-730.15463	95.50202
11500.00000	95.40438	-731.54058	95.40438
11550.00000	95.11233	-733.14211	95.11233
11600.00000	95.01081	-735.51257	95.01081
11650.00000	94.77294	-736.13913	94.77294
11700.00000	94.64475	-737.74489	94.64475
11750.00000	94.47735	-739.52280	94.47735
11800.00000	94.30053	-741.74771	94.30053
11850.00000	94.16001	-742.61164	94.16001
11900.00000	93.81911	-745.13662	93.81911
11950.00000	93.59930	-746.69135	93.59930
12000.00000	93.27256	-748.26853	93.27256
12050.00000	92.95242	-749.71154	92.95242
12100.00000	92.70269	-752.31120	92.70269
12150.00000	92.42160	-754.68351	92.42160
12200.00000	92.22851	-756.60152	92.22851
12250.00000	91.92300	-758.09748	91.92300
12300.00000	92.77305	-759.29666	92.77305
12350.00000	91.35264	-760.49371	91.35264
12400.00000	90.94208	-760.30926	90.94208
12450.00000	90.54983	-760.58761	90.54983
12500.00000	90.17369	-762.40058	90.17369
12550.00000	89.81369	-763.19027	89.81369
12600.00000	89.38765	-764.67787	89.38765
12650.00000	89.25948	-765.21578	89.25948
12700.00000	88.95657	-765.74046	88.95657
12750.00000	88.69809	-765.97196	88.69809
12800.00000	88.38627	-765.75780	88.38627
12850.00000	87.74462	-765.76791	87.74462
12900.00000	87.42036	-766.07337	87.42036
12950.00000	87.10769	-766.68582	87.10769
13000.00000	86.69129	-766.37696	86.69129
13050.00000	86.72507	-765.55810	86.72507
13100.00000	86.34319	-765.59138	86.34319
13150.00000	86.11978	-764.82995	86.11978
13200.00000	85.93861	-762.08097	85.93861
13250.00000	85.66880	-761.75554	85.66880
13300.00000	85.31548	-759.15978	85.31548
13350.00000	85.16635	-759.02698	85.16635
13400.00000	85.13727	-758.24652	85.13727
13450.00000	84.95946	-755.17551	84.95946
13500.00000	85.08813	-752.60729	85.08813
13550.00000	84.89183	-752.02480	84.89183
13600.00000	85.02285	-749.27555	85.02285
13650.00000	84.88674	-748.26872	84.88674
13700.00000	84.83263	-746.65723	84.83263
13750.00000	84.80077	-745.70838	84.80077
13800.00000	84.86549	-747.61495	84.86549
13850.00000	85.00217	-746.57063	85.00217
13900.00000	85.05705	-744.48389	85.05705
13950.00000	85.15441	-743.35011	85.15441
14000.00000	85.48064	-741.30894	85.48064
14050.00000	85.67075	-740.41509	85.67075
14100.00000	85.82806	-739.59206	85.82806
14150.00000	86.14508	-738.46850	86.14508
14200.00000	86.45374	-737.72899	86.45374
14250.00000	86.93552	-735.13773	86.93552
14300.00000	87.14586	-734.58494	87.14586
14350.00000	87.34389	-733.03392	87.34389
14400.00000	87.40105	-733.05153	87.40105
14450.00000	87.57322	-731.87553	87.57322
14500.00000	87.93970	-732.07682	87.93970
14550.00000	88.36842	-731.39650	88.36842
14600.00000	88.56541	-733.10460	88.56541
14650.00000	89.16986	-731.57873	89.16986
14700.00000	89.54834	-735.50413	89.54834
14750.00000	89.89560	-736.07450	89.89560
14800.00000	90.11773	-735.05558	90.11773
14850.00000	90.64375	-735.42000	90.64375
14900.00000	91.12553	-737.07248	91.12553
14950.00000	91.55510	-737.76343	91.55510
15000.00000	91.96377	-739.41228	91.96377
15050.00000	92.24582	-739.11240	92.24582
15100.00000	92.48797	-739.31209	92.48797
15150.00000	92.91379	-741.71655	92.91379
15200.00000	93.11269	-742.16128	93.11269
15250.00000	93.35430	-744.85150	93.35430
15300.00000	93.91909	-746.82795	93.91909
15350.00000	94.25595	-748.97797	94.25595
15400.00000	94.47177	-749.21900	94.47177
15450.00000	94.72071	-750.64112	94.72071
15500.00000	95.08057	-752.70949	95.08057
15550.00000	95.36992	-755.07978	95.36992
15600.00000	95.66825	-757.51750	95.66825
15650.00000	96.14627	-757.75526	96.14627
15700.00000	96.34377	-760.79472	96.34377
15750.00000	96.68770	-761.80944	96.68770
15800.00000	96.95241	-762.98522	96.95241
15850.00000	97.26500	-765.03464	97.26500
15900.00000	97.47960	-767.77956	97.47960
15950.00000	97.87178	-770.02952	97.87178
16000.00000	98.18551	-772.09501	98.18551
16050.00000	98.60464	-774.69271	98.60464
16100.00000	98.72424	-776.98373	98.72424
16150.00000	98.90923	-779.26870	98.90923
16200.00000	99.18101	-782.76724	99.18101
16250.00000	99.42273	-785.55101	99.42273
16300.00000	99.84171	-788.41371	99.84171
16350.00000	100.02130	-790.97775	100.02130
16400.00000	100.25037	-793.14034	100.25037
16450.00000	100.44189	-795.66403	100.44189
16500.00000	100.58139	-798.43003	100.58139
16550.00000	100.79508	-801.79386	100.79508
16600.00000	101.03743	-804.46117	101.03743
16650.00000	101.17528	-806.81229	101.17528
16700.00000	101.41184	-809.22767	101.41184
16750.00000	101.46248	-812.27044	101.46248
16800.00000	101.70067	-815.24011	101.70067
16850.00000	101.92277	-817.87692	101.92277
16900.00000	102.13306	-820.90769	102.13306
16950.00000	102.28960	-823.40905	102.28960
17000.00000	102.38391	-826.35172	102.38391
17050.00000	102.56078	-828.54315	102.56078
17100.00000	102.61963	-830.57326	102.61963
17150.00000	102.93080	-834.40190	102.93080
17200.00000	103.09087	-836.95736	103.09087
17250.00000	103.16951	-840.38913	103.16951
17300.00000	103.41080	-843.15055	103.41080
17350.00000	103.41319	-845.91238	103.41319
17400.00000	103.62476	-849.06229	103.62476
17450.00000	103.68499	-852.42382	103.68499
17500.00000	103.81436	-855.46205	103.81436
17550.00000	103.96571	-858.54688	103.96571
17600.00000	104.16236	-861.06671	104.16236
17650.00000	104.24233	-865.06268	104.24233
17700.00000	104.29031	-868.24857	104.29031
17750.00000	104.53200	-870.85697	104.53200
17800.00000	104.48634	-874.60151	104.48634
17850.00000	104.59510	-877.45719	104.59510
17900.00000	104.60642	-880.60336	104.60642
17950.00000	104.76433	-884.17933	104.76433
18000.00000	104.80395	-887.86437	104.80395
18050.00000	104.99437	-890.64530	104.99437
18100.00000	104.95493	-894.33641	104.95493
18150.00000	104.97296	-896.98153	104.97296
18200.00000	104.95521	-900.92315	104.95521
18250.00000	105.02574	-903.50446	105.02574
18300.00000	105.11032	-906.68939	105.11032
18350.00000	105.09878	-909.94517	105.09878
18400.00000	105.05041	-913.31055	105.05041
18450.00000	104.99896	-917.59644	104.99896
18500.00000	105.03625	-920.60583	105.03625
18550.00000	104.98572	-923.39548	104.98572
18600.00000	105.04873	-926.94127	105.04873
18650.00000	104.87800	-929.90042	104.87800
18700.00000	104.82945	-933.14109	104.82945
18750.00000	104.81939	-936.18354	104.81939
18800.00000	104.88728	-938.62478	104.88728
18850.00000	104.71747	-941.77394	104.71747
18900.00000	104.62951	-944.58321	104.62951
18950.00000	104.60941	-947.91049	104.60941
19000.00000	104.41617	-950.22084	104.41617
19050.00000	104.50219	-952.98727	104.50219
19100.00000	104.39842	-955.50569	104.39842
19150.00000	104.44416	-958.03778	104.44416
19200.00000	104.40032	-960.18396	104.40032
19250.00000	104.31948	-963.91622	104.31948
19300.00000	104.23519	-965.89861	104.23519
19350.00000	104.19628	-968.64947	104.19628
19400.00000	104.11379	-971.06712	104.11379
19450.00000	104.18713	-973.16985	104.18713
19500.00000	104.03902	-976.42555	104.03902
19550.00000	104.06161	-978.85828	104.06161
19600.00000	104.09456	-981.96251	104.09456
19650.00000	103.98559	-984.12991	103.98559
19700.00000	103.84966	-986.79168	103.84966
19750.00000	103.80648	-988.83037	103.80648
19800.00000	103.84463	-992.30892	103.84463
19850.00000	103.84560	-994.65446	103.84560
19900.00000	103.73496	-998.02780	103.73496
19950.00000	103.65822	-1000.52576	103.65822
20000.00000	103.62556	-1003.11472	103.62556
20050.00000	103.58193	-1005.79401	103.58193
20100.00000	103.42946	-1008.59981	103.42946
20150.00000	103.40769	-1010.32910	103.40769
20200.00000	103.27923	-1013.64551	103.27923
20250.00000	103.14533	-1015.98981	103.14533
20300.00000	102.96814	-1018.59620	102.96814
20350.00000	102.94068	-1021.15981	102.94068
20400.00000	102.74657	-1022.74689	102.74657
20450.00000	102.54061	-1025.01703	102.54061
20500.00000	102.48503	-1027.52255	102.48503
20550.00000	102.14716	-1028.90981	102.14716
20600.00000	102.08514	-1030.47135	102.08514
20650.00000	101.96570	-1032.27683	101.96570
20700.00000	101.77632	-1033.78978	101.77632
20750.00000	101.70942	-1035.04525	101.70942
20800.00000	101.55428	-1035.97198	101.55428
20850.00000	101.51507	-1037.19922	101.51507
20900.00000	101.40186	-1038.18379	101.40186
20950.00000	101.32974	-1038.54355	101.32974
21000.00000	101.32694	-1039.26589	101.32694
21050.00000	101.47986	-1039.66377	101.47986
21100.00000	101.53031	-1040.16749	101.53031
21150.00000	101.69954	-1041.24843	101.69954
21200.00000	101.88815	-1041.95901	101.88815
21250.00000	102.05081	-1044.28061	102.05081
21300.00000	102.30246	-1045.33377	102.30246
21350.00000	102.48004	-1046.90881	102.48004
21400.00000	102.63954	-1049.47227	102.63954
21450.00000	102.86411	-1051.74171	102.86411
21500.00000	103.01112	-1054.50671	103.01112
21550.00000	103.06854	-1056.85163	103.06854
21600.00000	103.26173	-1059.75981	103.26173
21650.00000	103.30651	-1062.73025	103.30651
21700.00000	103.35779	-1065.33814	103.35779
21750.00000	103.42937	-1068.29868	103.42937
21800.00000	103.45494	-1071.11107	103.45494
21850.00000	103.38329	-1073.77126	103.38329
21900.00000	103.40817	-1076.25504	103.40817
21950.00000	103.37316	-1078.68844	103.37316
22000.00000	103.42344	-1081.34101	103.42344
22050.00000	103.38815	-1083.37105	103.38815
22100.00000	103.32957	-1085.87765	103.32957
22150.00000	103.30673	-1088.13581	103.30673
22200.00000	103.35267	-1090.52699	103.35267
22250.00000	103.27426	-1092.36980	103.27426
22300.00000	103.18199	-1094.62684	103.18199
22350.00000	103.30294	-1096.94577	103.30294
22400.00000	103.30470	-1099.30341	103.30470
22450.00000	103.22799	-1101.56654	103.22799
22500.00000	103.16260	-1102.71997	103.16260
22550.00000	103.21834	-1105.39047	103.21834
22600.00000	103.18658	-1108.39972	103.18658
22650.00000	103.19886	-1110.54811	103.19886
22700.00000	103.20208	-1112.62747	103.20208
22750.00000	103.15582	-1113.24497	103.15582
22800.00000	103.22118	-1117.56499	103.22118
22850.00000	103.30168	-1120.67727	103.30168
22900.00000	103.28232	-1121.54270	103.28232
22950.00000	103.32693	-1123.91896	103.32693
23000.00000	103.24215	-1125.51614	103.24215
23050.00000	103.23747	-1129.11831	103.23747
23100.00000	103.36072	-1130.36321	103.36072
23150.00000	103.19411	-1132.01699	103.19411
23200.00000	103.31183	-1135.73438	103.31183
23250.00000	103.18557	-1138.98015	103.18557
23300.00000	103.44583	-1141.30903	103.44583
23350.00000	103.16041	-1144.23248	103.16041
23400.00000	103.15092	-1146.27034	103.15092
23450.00000	103.23825	-1149.43970	103.23825
23500.00000	103.07102	-1150.96676	103.07102
23550.00000	103.07363	-1152.22387	103.07363
23600.00000	102.87521	-1156.53469	102.87521
23650.00000	102.92369	-1158.16745	102.92369
23700.00000	103.07097	-1162.99572	103.07097
23750.00000	102.96196	-1164.48559	102.96196
23800.00000	102.63756	-1165.91771	102.63756
23850.00000	102.76465	-1167.67767	102.76465
23900.00000	103.10715	-1170.24611	103.10715
23950.00000	102.72983	-1173.99181	102.72983
24000.00000	102.53752	-1177.53076	102.53752
24050.00000	102.64916	-1177.94349	102.64916
24100.00000	102.86300	-1182.72739	102.86300
24150.00000	102.73919	-1185.01762	102.73919
24200.00000	102.68982	-1189.22964	102.68982
24250.00000	102.28130	-1190.21240	102.28130
24300.00000	102.50565	-1192.91002	102.50565
24350.00000	102.41688	-1196.40984	102.41688
24400.00000	102.23288	-1200.21943	102.23288
24450.00000	101.84405	-1202.21497	101.84405
24500.00000	102.14174	-1203.96473	102.14174
24550.00000	101.88934	-849.43054	101.88934
24600.00000	102.27429	-850.30927	102.27429
24650.00000	101.81486	-495.01863	101.81486
24700.00000	101.57647	-134.93036	101.57647
24750.00000	101.47868	220.42327	101.47868
24800.00000	101.25760	578.06831	101.25760
24850.00000	100.89435	936.56243	100.89435
24900.00000	100.90604	1295.19570	100.90604
24950.00000	101.02438	1650.82235	101.02438
25000.00000	100.61080	1644.76893	100.61080
25050.00000	100.79615	1648.24342	100.79615
25100.00000	99.99820	1642.24322	99.99820
25150.00000	100.24256	1641.52425	100.24256
25200.00000	99.90407	1637.60043	99.90407
25250.00000	100.00809	1638.22373	100.00809
25300.00000	99.82813	1636.12131	99.82813
25350.00000	99.67666	1629.44814	99.67666
25400.00000	99.54242	1626.72885	99.54242
25450.00000	99.44579	1625.91492	99.44579
25500.00000	99.21390	1624.62157	99.21390
25550.00000	99.01330	1622.48343	99.01330
25600.00000	99.04220	1619.57800	99.04220
25650.00000	98.76999	1618.75525	98.76999
25700.00000	98.86699	1617.21338	98.86699
25750.00000	98.39932	1614.21808	98.39932
25800.00000	98.31449	1611.53101	98.31449
25850.00000	98.16249	1609.20475	98.16249
25900.00000	98.11732	1606.25690	98.11732
25950.00000	97.76489	1608.07071	97.76489
26000.00000	97.63815	1604.62563	97.63815
26050.00000	97.57271	1601.91092	97.57271
26100.00000	97.25054	1600.82195	97.25054
26150.00000	97.18634	1599.20991	97.18634
26200.00000	97.11352	1597.34427	97.11352
26250.00000	96.90991	1595.92225	96.90991
26300.00000	96.96124	1591.95175	96.96124
26350.00000	96.50630	1592.62164	96.50630
26400.00000	96.32336	1590.63121	96.32336
26450.00000	96.49340	1588.29996	96.49340
26500.00000	96.28920	1587.11625	96.28920
26550.00000	95.98038	1582.70033	95.98038
26600.00000	95.84402	1581.47301	95.84402
26650.00000	95.72003	1582.15490	95.72003
26700.00000	95.69703	1581.10752	95.69703
26750.00000	95.31710	1579.01343	95.31710
26800.00000	95.14097	1576.08870	95.14097
26850.00000	95.30299	1576.43603	95.30299
26900.00000	95.10989	1575.52130	95.10989
26950.00000	95.27370	1572.53412	95.27370
27000.00000	94.74500	1574.05458	94.74500
27050.00000	95.02418	1571.55188	95.02418
27100.00000	94.41942	1572.58591	94.41942
27150.00000	94.46227	1570.37456	94.46227
27200.00000	94.42824	1568.07137	94.42824
27250.00000	94.08958	1569.24715	94.08958
27300.00000	93.73265	1567.67701	93.73265
27350.00000	93.99137	1568.08023	93.99137
27400.00000	93.97742	1567.26451	93.97742
27450.00000	93.51926	1566.62090	93.51926
27500.00000	93.49062	1566.09427	93.49062
27550.00000	93.81489	1566.44492	93.81489
27600.00000	94.01449	1563.86565	94.01449
27650.00000	93.51272	1564.39555	93.51272
27700.00000	93.43452	1561.20872	93.43452
27750.00000	93.52640	1560.57869	93.52640
27800.00000	93.78115	1558.74367	93.78115
27850.00000	94.13152	1562.52861	94.13152
27900.00000	93.51592	1562.05999	93.51592
27950.00000	92.93188	1560.38077	92.93188
28000.00000	93.26495	1560.03302	93.26495
28050.00000	94.07599	1558.00904	94.07599
28100.00000	93.31729	1557.12136	93.31729
28150.00000	93.59512	1556.18493	93.59512
28200.00000	93.98824	1554.69922	93.98824
28250.00000	93.64004	1553.05645	93.64004
28300.00000	93.38798	1554.05788	93.38798
28350.00000	93.66797	1552.34794	93.66797
28400.00000	93.56523	1554.67768	93.56523
28450.00000	94.41081	1550.45045	94.41081
28500.00000	94.00030	1552.09223	94.00030
28550.00000	94.17047	1552.70178	94.17047
28600.00000	94.21017	1552.52519	94.21017
28650.00000	94.73887	1548.64871	94.73887
28700.00000	94.51014	1551.53996	94.51014
28750.00000	95.26901	1551.39366	95.26901
28800.00000	95.22640	1548.60841	95.22640
28850.00000	94.79755	1545.79725	94.79755
28900.00000	95.12289	1546.58889	95.12289
28950.00000	95.04772	1545.42128	95.04772
29000.00000	95.52201	1544.78761	95.52201
29050.00000	95.13563	1545.37726	95.13563
29100.00000	95.58785	1544.98012	95.58785
29150.00000	95.46114	1542.95881	95.46114
29200.00000	95.50428	1541.09410	95.50428
29250.00000	96.02346	1539.95444	96.02346
29300.00000	95.90046	1537.20152	95.90046
29350.00000	96.48852	1535.49225	96.48852
29400.00000	96.44773	1535.01478	96.44773
29450.00000	96.57077	1533.51666	96.57077
29500.00000	97.06817	1533.73497	97.06817
29550.00000	96.95364	1528.09753	96.95364
29600.00000	96.86615	1527.81419	96.86615
29650.00000	97.24588	1526.17095	97.24588
29700.00000	97.08870	1525.98128	97.08870
29750.00000	97.19652	1525.99231	97.19652
29800.00000	97.09162	1522.35248	97.09162
29850.00000	97.23657	1519.52944	97.23657
29900.00000	97.51394	1520.02086	97.51394
29950.00000	96.84465	1519.18144	96.84465
30000.00000	97.41947	1519.66186	97.41947
30050.00000	97.51223	1516.42212	97.51223
30100.00000	97.31500	1517.20568	97.31500
30150.00000	97.45169	1513.50800	97.45169
30200.00000	97.55616	1511.07310	97.55616
30250.00000	97.34512	1511.81814	97.34512
30300.00000	97.20620	1511.41909	97.20620
30350.00000	97.37114	1512.39349	97.37114
30400.00000	97.43919	1510.25935	97.43919
30450.00000	97.10127	1509.71206	97.10127
30500.00000	97.19556	1508.88866	97.19556
30550.00000	97.28547	1510.43703	97.28547
30600.00000	97.37012	1510.47370	97.37012
30650.00000	97.51392	1510.22230	97.51392
30700.00000	97.63166	1509.97354	97.63166
30750.00000	97.62731	1511.60159	97.62731
30800.00000	97.85319	1512.37303	97.85319
30850.00000	98.25416	1513.62941	98.25416
30900.00000	98.27088	1514.64748	98.27088
30950.00000	98.88881	1513.57686	98.88881
31000.00000	99.29115	1513.35086	99.29115
31050.00000	99.80726	1514.27327	99.80726
31100.00000	100.39315	1514.28982	100.39315
31150.00000	100.55676	1513.71297	100.55676
31200.00000	101.48586	1512.45515	101.48586
31250.00000	102.05049	1511.51662	102.05049
31300.00000	102.57784	1509.85998	102.57784
31350.00000	103.29040	1507.70926	103.29040
31400.00000	103.62429	1504.61899	103.62429
31450.00000	104.37840	1502.41648	104.37840
31500.00000	104.85233	1498.71794	104.85233
31550.00000	105.45070	1495.69861	105.45070
31600.00000	106.11352	1490.96999	106.11352
31650.00000	106.55127	1487.39235	106.55127
31700.00000	107.04789	1483.77071	107.04789
31750.00000	107.54960	1480.47403	107.54960
31800.00000	107.93307	1475.01375	107.93307
31850.00000	108.38321	1470.06645	108.38321
31900.00000	108.51567	1465.88774	108.51567
31950.00000	108.97039	1461.13361	108.97039
32000.00000	109.26285	1456.21717	109.26285
32050.00000	109.57329	1451.72272	109.57329
32100.00000	109.75843	1446.46306	109.75843
32150.00000	110.01646	1442.40141	110.01646
32200.00000	110.24146	1437.21870	110.24146
32250.00000	110.38171	1431.94006	110.38171
32300.00000	110.53576	1427.53375	110.53576
32350.00000	110.66777	1423.17921	110.66777
32400.00000	110.87602	1418.71158	110.87602
32450.00000	110.91304	1413.34091	110.91304
32500.00000	111.09364	1409.40240	111.09364
32550.00000	111.26965	1403.72197	111.26965
32600.00000	111.29405	1399.56935	111.29405
32650.00000	111.35605	1394.49316	111.35605
32700.00000	111.26492	1389.12059	111.26492
32750.00000	111.26709	1384.33616	111.26709
32800.00000	111.43742	1380.36134	111.43742
32850.00000	111.45795	1375.37782	111.45795
32900.00000	111.30652	1369.82514	111.30652
32950.00000	111.18550	1364.47204	111.18550
33000.00000	111.07406	1361.67356	111.07406
33050.00000	110.91429	1355.47684	110.91429
33100.00000	110.93744	1351.60079	110.93744
33150.00000	110.73043	1346.95222	110.73043
33200.00000	110.64558	1344.21066	110.64558
33250.00000	110.33123	1339.66201	110.33123
33300.00000	110.10543	1334.99118	110.10543
33350.00000	109.79807	1330.77642	109.79807
33400.00000	109.55476	1327.59724	109.55476
33450.00000	109.34022	1323.25415	109.34022
33500.00000	109.26342	1320.84856	109.26342
33550.00000	108.65756	1315.91343	108.65756
33600.00000	108.64555	1313.57264	108.64555
33650.00000	108.29245	1310.44110	108.29245
33700.00000	107.99511	1308.05174	107.99511
33750.00000	107.68073	1304.84619	107.68073
33800.00000	107.34075	1301.88671	107.34075
33850.00000	106.80865	1299.53337	106.80865
33900.00000	106.65475	1296.82060	106.65475
33950.00000	106.36186	1295.99352	106.36186
34000.00000	106.28027	1293.08612	106.28027
34050.00000	105.82159	1291.06725	105.82159
34100.00000	105.45311	1290.99149	105.45311
34150.00000	105.24885	1288.77622	105.24885
34200.00000	105.08352	1288.69625	105.08352
34250.00000	104.91731	1286.07948	104.91731
34300.00000	104.38303	1284.75170	104.38303
34350.00000	104.24980	1283.85053	104.24980
34400.00000	103.84797	1284.66974	103.84797
34450.00000	103.72901	1280.54210	103.72901
34500.00000	103.54640	1281.30223	103.54640
34550.00000	103.47021	1282.31608	103.47021
34600.00000	103.26283	1281.55450	103.26283
34650.00000	103.28064	1280.93659	103.28064
34700.00000	102.79339	1282.35360	102.79339
34750.00000	102.98231	1277.70154	102.98231
34800.00000	102.82070	1279.24723	102.82070
34850.00000	103.04095	1281.18866	103.04095
34900.00000	103.09911	1279.92191	103.09911
34950.00000	102.88226	1280.02185	102.88226
35000.00000	102.80843	1278.46624	102.80843
35050.00000	102.83146	1278.96782	102.83146
35100.00000	103.04759	1278.37975	103.04759
35150.00000	102.97162	1279.26696	102.97162
35200.00000	102.86281	1275.94011	102.86281
35250.00000	102.82302	1276.73439	102.82302
35300.00000	103.14702	1276.65628	103.14702
35350.00000	103.14479	1274.83010	103.14479
35400.00000	103.21912	1275.22400	103.21912
35450.00000	103.19187	1276.06509	103.19187
35500.00000	103.01162	1273.56641	103.01162
35550.00000	103.50356	1275.81347	103.50356
35600.00000	103.31127	1274.58393	103.31127
35650.00000	103.53749	1274.15894	103.53749
35700.00000	103.70549	1272.44155	103.70549
35750.00000	103.66614	1272.70998	103.66614
35800.00000	103.66526	1273.96286	103.66526
35850.00000	103.99210	1271.83964	103.99210
35900.00000	104.24863	1270.98737	104.24863
35950.00000	104.44713	1267.25450	104.44713
36000.00000	104.77489	1271.79387	104.77489
36050.00000	104.76174	1270.16618	104.76174
36100.00000	105.05305	1266.88940	105.05305
36150.00000	105.03813	1266.16272	105.03813
36200.00000	105.12226	1265.66771	105.12226
36250.00000	105.08692	1264.57735	105.08692
36300.00000	105.08966	1263.58310	105.08966
36350.00000	105.34933	1264.04817	105.34933
36400.00000	105.52358	1264.08425	105.52358
36450.00000	105.60514	1261.82766	105.60514
36500.00000	105.86666	1261.99504	105.86666
36550.00000	106.03634	1259.59743	106.03634
36600.00000	106.17209	1258.22170	106.17209
36650.00000	106.45016	1257.96319	106.45016
36700.00000	106.46752	1254.93450	106.46752
36750.00000	106.57957	1255.40271	106.57957
36800.00000	106.89238	1254.67981	106.89238
36850.00000	106.46993	1253.05321	106.46993
36900.00000	107.23402	1251.84517	107.23402
36950.00000	107.06037	1250.71386	107.06037
37000.00000	107.35603	1250.21952	107.35603
37050.00000	107.32676	1248.86482	107.32676
37100.00000	107.88354	1247.75904	107.88354
37150.00000	108.08367	1244.62388	108.08367
37200.00000	108.46004	1245.45324	108.46004
37250.00000	108.24029	1241.96051	108.24029
37300.00000	108.47859	1240.28819	108.47859
37350.00000	109.10698	1239.90032	109.10698
37400.00000	109.06031	1237.96862	109.06031
37450.00000	109.19888	1235.89928	109.19888
37500.00000	109.78261	1234.29673	109.78261
37550.00000	109.88186	1233.15108	109.88186
37600.00000	110.33410	1230.32251	110.33410
37650.00000	110.58421	1229.28043	110.58421
37700.00000	110.87740	1225.20064	110.87740
37750.00000	111.22933	1222.84048	111.22933
37800.00000	111.49118	1220.86294	111.49118
37850.00000	111.91975	1216.11864	111.91975
37900.00000	112.27581	1214.04604	112.27581
37950.00000	112.69850	1212.39672	112.69850
38000.00000	112.93011	1209.16235	112.93011
38050.00000	113.43942	1204.27237	113.43942
38100.00000	113.99544	1201.26922	113.99544
38150.00000	114.33425	1195.74856	114.33425
38200.00000	114.84877	1190.88917	114.84877
38250.00000	115.12950	1186.61783	115.12950
38300.00000	115.60411	1180.58265	115.60411
38350.00000	115.90721	1176.34545	115.90721
38400.00000	116.14374	1170.87362	116.14374
38450.00000	116.45425	1165.32329	116.45425
38500.00000	116.78903	1159.34099	116.78903
38550.00000	117.17668	1154.33821	117.17668
38600.00000	117.34491	1148.68346	117.34491
38650.00000	117.61334	1142.70573	117.61334
38700.00000	117.72017	1136.62794	117.72017
38750.00000	117.87409	1131.00765	117.87409
38800.00000	118.08810	1125.47428	118.08810
38850.00000	118.22816	1119.83579	118.22816
38900.00000	118.38300	1113.95714	118.38300
38950.00000	118.44987	1107.87993	118.44987
39000.00000	118.47037	1102.28438	118.47037
39050.00000	118.66567	1096.96727	118.66567
39100.00000	118.58516	1091.24101	118.58516
39150.00000	118.61992	1085.67324	118.61992
39200.00000	118.69321	1080.27035	118.69321
39250.00000	118.67747	1074.55514	118.67747
39300.00000	118.70938	1068.83770	118.70938
39350.00000	118.67157	1064.03352	118.67157
39400.00000	118.58677	1058.27673	118.58677
39450.00000	118.48949	1053.20595	118.48949
39500.00000	118.48367	1047.63732	118.48367
39550.00000	118.30928	1042.51796	118.30928
39600.00000	118.11039	1037.38046	118.11039
39650.00000	118.00532	1032.68659	118.00532
39700.00000	117.76795	1027.84729	117.76795
39750.00000	117.59789	1022.63575	117.59789
39800.00000	117.45039	1017.98593	117.45039
39850.00000	117.18483	1013.37936	117.18483
39900.00000	116.88568	1009.43184	116.88568
39950.00000	116.64817	1005.10830	116.64817
40000.00000	116.20390	1002.55199	116.20390
40050.00000	116.05475	997.55251	116.05475
40100.00000	115.81094	994.11810	115.81094
40150.00000	115.44437	990.79949	115.44437
40200.00000	115.17935	986.91557	115.17935
40250.00000	114.89268	984.26698	114.89268
40300.00000	114.68731	981.54019	114.68731
40350.00000	114.25722	978.38205	114.25722
40400.00000	113.94364	976.11220	113.94364
40450.00000	113.66052	973.80774	113.66052
40500.00000	113.50893	971.92264	113.50893
40550.00000	113.21479	968.97591	113.21479
40600.00000	112.95356	967.38530	112.95356
40650.00000	112.65682	966.00004	112.65682
40700.00000	112.24440	964.37421	112.24440
40750.00000	112.21218	963.41148	112.21218
40800.00000	112.00365	961.48095	112.00365
40850.00000	111.68928	960.81075	111.68928
40900.00000	111.51611	958.82397	111.51611
40950.00000	111.26830	959.31192	111.26830
41000.00000	110.97764	958.45710	110.97764
41050.00000	110.84745	958.38667	110.84745
41100.00000	111.02850	956.17157	111.02850
41150.00000	110.89345	957.27723	110.89345
41200.00000	110.83648	955.91547	110.83648
41250.00000	110.67988	953.52813	110.67988
41300.00000	110.41132	954.73072	110.41132
41350.00000	110.46460	955.34068	110.46460
41400.00000	110.47582	950.24244	110.47582
41450.00000	110.61779	952.40145	110.61779
41500.00000	110.53063	951.79690	110.53063
41550.00000	110.46166	955.30923	110.46166
41600.00000	110.05297	952.18185	110.05297
41650.00000	110.49507	950.70652	110.49507
41700.00000	110.66787	950.55729	110.66787
41750.00000	110.46862	952.96623	110.46862
41800.00000	109.86449	947.42799	109.86449
41850.00000	109.90618	948.27833	109.90618
41900.00000	109.62769	947.76529	109.62769
41950.00000	111.03298	952.11770	111.03298
42000.00000	109.99196	945.85210	109.99196
42050.00000	108.90950	945.94734	108.90950
42100.00000	109.52909	945.35369	109.52909
42150.00000	109.26378	939.14779	109.26378
42200.00000	109.05437	944.72757	109.05437
42250.00000	109.09799	941.64664	109.09799
42300.00000	108.29093	939.80196	108.29093
42350.00000	108.72443	937.34772	108.72443
42400.00000	108.31920	938.43550	108.31920
42450.00000	109.03844	932.84675	109.03844
42500.00000	108.51249	931.96100	108.51249
42550.00000	108.43478	945.11489	108.43478
42600.00000	108.17211	932.47466	108.17211
42650.00000	107.90372	931.70955	107.90372
42700.00000	107.75817	929.80318	107.75817
42750.00000	108.73243	927.38627	108.73243
42800.00000	107.77916	919.18094	107.77916
42850.00000	107.85522	917.62608	107.85522
42900.00000	108.76529	920.99491	108.76529
42950.00000	107.90572	916.15955	107.90572
43000.00000	108.52836	903.78486	108.52836
43050.00000	108.07744	903.95816	108.07744
43100.00000	108.52957	904.10329	108.52957
43150.00000	107.15538	897.00970	107.15538
43200.00000	107.99241	893.98860	107.99241
43250.00000	108.42773	891.73683	108.42773
43300.00000	108.34992	887.30019	108.34992
43350.00000	109.21220	884.18023	109.21220
43400.00000	108.60363	876.40183	108.60363
43450.00000	109.21762	879.24965	109.21762
43500.00000	108.29427	869.95904	108.29427
43550.00000	108.73362	867.54477	108.73362
43600.00000	108.54445	862.35140	108.54445
43650.00000	109.13876	853.99832	109.13876
43700.00000	109.18692	852.24456	109.18692
43750.00000	108.96797	850.96430	108.96797
43800.00000	109.03496	844.48803	109.03496
43850.00000	109.66801	838.89111	109.66801
43900.00000	109.83789	836.97730	109.83789
43950.00000	110.16388	829.84909	110.16388
44000.00000	109.55862	825.48018	109.55862
44050.00000	109.92753	821.05555	109.92753
44100.00000	110.12545	808.92756	110.12545
44150.00000	109.88128	812.30058	109.88128
44200.00000	109.96119	808.76648	109.96119
44250.00000	110.38431	802.64204	110.38431
44300.00000	110.58225	795.89807	110.58225
44350.00000	109.42196	789.56937	109.42196
44400.00000	110.28414	788.45155	110.28414
44450.00000	110.77254	783.24422	110.77254
44500.00000	110.01948	780.43331	110.01948
44550.00000	111.48271	772.73105	111.48271
44600.00000	110.06057	771.27928	110.06057
44650.00000	110.00248	762.21103	110.00248
44700.00000	109.80448	757.99706	109.80448
44750.00000	109.87430	757.78050	109.87430
44800.00000	110.51551	749.56848	110.51551
44850.00000	109.81554	743.34347	109.81554
44900.00000	109.47543	742.40923	109.47543
44950.00000	109.69868	736.45421	109.69868
45000.00000	109.59957	726.53335	109.59957
45050.00000	108.09651	732.75397	108.09651
45100.00000	108.62963	724.98917	108.62963
45150.00000	108.58326	714.47323	108.58326
45200.00000	108.14848	715.10200	108.14848
45250.00000	107.91690	711.13094	107.91690
45300.00000	107.90686	706.16028	107.90686
45350.00000	107.24578	698.79015	107.24578
45400.00000	107.21243	698.99236	107.21243
45450.00000	106.98198	690.97872	106.98198
45500.00000	105.37448	685.89039	105.37448
45550.00000	105.02196	687.21701	105.02196
45600.00000	106.03500	680.24659	106.03500
45650.00000	104.61778	675.55278	104.61778
45700.00000	103.85471	673.43000	103.85471
45750.00000	104.38256	675.71284	104.38256
45800.00000	103.27206	665.94197	103.27206
45850.00000	103.26553	665.86864	103.26553
45900.00000	102.55998	664.23042	102.55998
45950.00000	102.22038	667.98339	102.22038
46000.00000	100.63426	652.02075	100.63426
46050.00000	100.85394	652.01625	100.85394
46100.00000	99.33555	656.59047	99.33555
46150.00000	98.88720	655.98761	98.88720
46200.00000	97.55171	648.46640	97.55171
46250.00000	98.54654	649.06774	98.54654
46300.00000	97.27696	649.85576	97.27696
46350.00000	99.02192	647.00616	99.02192
46400.00000	96.81523	645.54796	96.81523
46450.00000	94.80335	647.13755	94.80335
46500.00000	96.18429	648.99491	96.18429
46550.00000	95.66651	654.64680	95.66651
46600.00000	96.09560	655.75275	96.09560
46650.00000	93.14561	649.66350	93.14561
46700.00000	93.23512	657.78432	93.23512
46750.00000	94.06049	671.41426	94.06049
46800.00000	92.54223	655.55105	92.54223
46850.00000	93.85474	313.31854	93.85474
46900.00000	93.88855	307.11967	93.88855
46950.00000	94.93409	307.59096	94.93409
47000.00000	94.36457	309.53713	94.36457
47050.00000	96.34635	303.90404	96.34635
47100.00000	94.84038	302.92999	94.84038
47150.00000	95.70454	303.48996	95.70454
47200.00000	94.71617	301.46465	94.71617
47250.00000	96.33932	300.97007	96.33932
47300.00000	95.38809	288.13655	95.38809
47350.00000	95.44155	-60.37692	95.44155
47400.00000	94.09525	-61.87334	94.09525
47450.00000	95.58520	-64.58246	95.58520
47500.00000	94.03793	-75.42343	94.03793
47550.00000	94.03040	-423.76230	94.03040
47600.00000	93.88336	-421.89425	93.88336
47650.00000	94.96985	-427.71447	94.96985
47700.00000	94.70545	-430.30576	94.70545
47750.00000	92.63132	-427.72718	92.63132
47800.00000	93.09006	-446.22996	93.09006
47850.00000	94.12940	-794.86395	94.12940
47900.00000	93.83265	-1140.82740	93.83265
47950.00000	93.43119	-1147.84624	93.43119
48000.00000	92.96246	-1142.99159	92.96246
48050.00000	94.33247	-1153.65815	94.33247
48100.00000	92.60223	-1155.91488	92.60223
48150.00000	93.58349	-1509.98157	93.58349
48200.00000	94.12940	-1508.62600	94.12940
48250.00000	93.10270	-1516.82037	93.10270
48300.00000	93.69059	-1510.15827	93.69059
48350.00000	93.58379	-1519.74116	93.58379
48400.00000	94.83141	-1865.01164	94.83141
48450.00000	94.97250	-1871.70044	94.97250
48500.00000	94.35892	-1871.78829	94.35892
48550.00000	93.51544	-1874.51281	93.51544
48600.00000	95.57341	-2235.32325	95.57341
48650.00000	94.87211	-2235.89482	94.87211
48700.00000	95.62134	-2245.21348	95.62134
48750.00000	93.85389	-2591.36766	93.85389
48800.00000	95.61079	-2604.23875	95.61079
48850.00000	95.25920	-2606.53451	95.25920
48900.00000	94.77265	-2964.74244	94.77265
48950.00000	94.92649	-2979.85308	94.92649
49000.00000	95.47344	-2971.29591	95.47344
49050.00000	95.03790	-2979.68763	95.03790
49100.00000	94.20509	-3341.25509	94.20509
49150.00000	95.60987	-3694.44594	95.60987
49200.00000	95.63519	-3709.54977	95.63519
49250.00000	94.91296	-4052.74208	94.91296
49300.00000	94.69851	-3708.16041	94.69851
49350.00000	92.10729	-3696.75632	92.10729
49400.00000	93.10556	-3348.31635	93.10556
49450.00000	92.52616	-2995.13449	92.52616
49500.00000	92.81209	-2643.96193	92.81209
49550.00000	93.39177	-2284.33927	93.39177
49600.00000	91.92007	-2274.91961	91.92007
49650.00000	90.96939	-2262.52080	90.96939
49700.00000	91.99237	-1934.72618	91.99237
49750.00000	92.85022	-1923.19837	92.85022
49800.00000	91.28368	-1918.51237	91.28368
49850.00000	91.09087	-1909.85166	91.09087
49900.00000	89.67354	-1555.21895	89.67354
49950.00000	93.06981	-1216.84820	93.06981
