---ACOUSTIC CALIBRATION---
Filename: C:\Data\AZH DATA\AZH41\RightSecondary.calib
Date: 8/27/2019 1:48:49 PM
Format: 4
Probe Tube Correction File: C:\Data\Probe Tube Calibrations\50_ProbeTube.calib
Experiment VIs: 850
EPL_CFTS.exe V12.0.1 (2012)
DAQmx V9.6

Attenuation (dB): 40.000000
Min Freq (Hz): 50.000000
Max Freq (Hz): 49950.000000
Freq Step (Hz): 50.000000
Sample Rate (Hz): 100000.000000
[Smoothing]
Method=None
MA.Iterations=0
MA.Length=0
Loess.Length=0
Loess.Type=Linear
Loess.Robust=FALSE


Freq(Hz)	Mag(dB)	Phase(deg)	Unsmoothed(dB)

50.00000	98.45279	616.77289	98.45279
100.00000	79.16688	569.24931	79.16688
150.00000	78.50864	518.40347	78.50864
200.00000	82.83548	417.24322	82.83548
250.00000	91.08100	418.17869	91.08100
300.00000	85.62773	336.73456	85.62773
350.00000	84.50622	346.01903	84.50622
400.00000	87.34902	312.85943	87.34902
450.00000	86.26592	321.66098	86.26592
500.00000	83.91680	309.84417	83.91680
550.00000	89.06327	321.13939	89.06327
600.00000	90.80348	314.35668	90.80348
650.00000	93.17881	324.98777	93.17881
700.00000	95.96993	319.48940	95.96993
750.00000	97.70280	315.86474	97.70280
800.00000	100.42476	305.72420	100.42476
850.00000	102.94493	297.59349	102.94493
900.00000	104.57956	278.80796	104.57956
950.00000	105.80511	262.76840	105.80511
1000.00000	105.73015	244.88259	105.73015
1050.00000	105.22726	236.64002	105.22726
1100.00000	105.53605	225.03263	105.53605
1150.00000	104.76467	214.82751	104.76467
1200.00000	104.59753	212.34741	104.59753
1250.00000	104.57103	201.23120	104.57103
1300.00000	103.64081	196.10768	103.64081
1350.00000	103.01691	190.69034	103.01691
1400.00000	102.16169	191.72123	102.16169
1450.00000	102.49528	191.69149	102.49528
1500.00000	102.92114	191.11257	102.92114
1550.00000	102.69702	188.53467	102.69702
1600.00000	103.35729	186.20004	103.35729
1650.00000	104.31928	177.27033	104.31928
1700.00000	103.08242	173.15467	103.08242
1750.00000	103.06835	171.40387	103.06835
1800.00000	102.71774	168.06510	102.71774
1850.00000	102.55300	171.14517	102.55300
1900.00000	103.65846	172.02998	103.65846
1950.00000	104.46285	163.30406	104.46285
2000.00000	104.22539	153.96049	104.22539
2050.00000	103.31682	150.93629	103.31682
2100.00000	103.40655	151.45165	103.40655
2150.00000	103.05624	145.92011	103.05624
2200.00000	102.60770	142.52999	102.60770
2250.00000	101.67182	141.56608	101.67182
2300.00000	101.66214	142.92171	101.66214
2350.00000	101.39143	143.93535	101.39143
2400.00000	101.48491	143.88260	101.48491
2450.00000	101.30377	141.66541	101.30377
2500.00000	101.06700	144.14718	101.06700
2550.00000	100.79581	146.54931	100.79581
2600.00000	101.11408	154.03398	101.11408
2650.00000	102.52081	158.39436	102.52081
2700.00000	104.17620	155.30010	104.17620
2750.00000	105.38891	146.40136	105.38891
2800.00000	105.62669	136.67290	105.62669
2850.00000	105.38201	129.45792	105.38201
2900.00000	105.03217	124.18346	105.03217
2950.00000	104.67175	120.69647	104.67175
3000.00000	104.35619	117.18738	104.35619
3050.00000	103.92019	114.86839	103.92019
3100.00000	103.71754	112.59300	103.71754
3150.00000	103.28934	109.38032	103.28934
3200.00000	102.70250	106.87586	102.70250
3250.00000	101.92358	105.53260	101.92358
3300.00000	100.97711	105.05248	100.97711
3350.00000	99.85099	108.07772	99.85099
3400.00000	99.13063	117.28733	99.13063
3450.00000	99.12533	125.70053	99.12533
3500.00000	99.72963	132.16992	99.72963
3550.00000	100.25854	135.57870	100.25854
3600.00000	100.68342	137.63590	100.68342
3650.00000	100.53436	141.13178	100.53436
3700.00000	100.46234	150.76654	100.46234
3750.00000	101.57157	162.89068	101.57157
3800.00000	103.51448	170.22479	103.51448
3850.00000	105.62562	172.46582	105.62562
3900.00000	107.56563	170.96304	107.56563
3950.00000	109.21202	167.57547	109.21202
4000.00000	110.56667	162.56155	110.56667
4050.00000	111.61753	157.56135	111.61753
4100.00000	112.49005	153.28824	112.49005
4150.00000	113.46775	149.60222	113.46775
4200.00000	114.17807	145.92802	114.17807
4250.00000	115.04038	143.07758	115.04038
4300.00000	115.97091	140.57709	115.97091
4350.00000	117.01135	137.84525	117.01135
4400.00000	118.18309	134.72576	118.18309
4450.00000	119.46490	130.74734	119.46490
4500.00000	120.83345	125.61593	120.83345
4550.00000	122.23044	119.02399	122.23044
4600.00000	123.58771	111.00996	123.58771
4650.00000	124.94583	101.51272	124.94583
4700.00000	126.16780	89.94891	126.16780
4750.00000	127.15721	76.54834	127.15721
4800.00000	127.81424	61.58546	127.81424
4850.00000	128.00270	46.04056	128.00270
4900.00000	127.72776	30.99557	127.72776
4950.00000	127.03526	17.30924	127.03526
5000.00000	125.95381	 6.12839	125.95381
5050.00000	124.88759	-1.53030	124.88759
5100.00000	123.58862	-10.35191	123.58862
5150.00000	121.12724	-10.80360	121.12724
5200.00000	120.63782	 8.52342	120.63782
5250.00000	123.78546	 9.82510	123.78546
5300.00000	125.17628	-4.27115	125.17628
5350.00000	125.30781	-17.31331	125.30781
5400.00000	124.98010	-27.75392	124.98010
5450.00000	124.52170	-36.08697	124.52170
5500.00000	124.03655	-43.26064	124.03655
5550.00000	123.56394	-49.48477	123.56394
5600.00000	123.09935	-55.20252	123.09935
5650.00000	122.66006	-60.43464	122.66006
5700.00000	122.21028	-65.53408	122.21028
5750.00000	121.79036	-70.08679	121.79036
5800.00000	121.36249	-74.52675	121.36249
5850.00000	120.96196	-78.73217	120.96196
5900.00000	120.58517	-82.72643	120.58517
5950.00000	120.21184	-86.60414	120.21184
6000.00000	119.86220	-90.19741	119.86220
6050.00000	119.49823	-93.87912	119.49823
6100.00000	119.15942	-97.45431	119.15942
6150.00000	118.82330	-100.90271	118.82330
6200.00000	118.47993	-104.31673	118.47993
6250.00000	118.16577	-107.60645	118.16577
6300.00000	117.84951	-110.84749	117.84951
6350.00000	117.51574	-114.09288	117.51574
6400.00000	117.18379	-117.10448	117.18379
6450.00000	116.88806	-120.11829	116.88806
6500.00000	116.55105	-123.04263	116.55105
6550.00000	116.20773	-125.87349	116.20773
6600.00000	115.87806	-128.52895	115.87806
6650.00000	115.55428	-130.99824	115.55428
6700.00000	115.23378	-133.53219	115.23378
6750.00000	114.92175	-135.76205	114.92175
6800.00000	114.62548	-137.92599	114.62548
6850.00000	114.33937	-139.97606	114.33937
6900.00000	114.07379	-141.88629	114.07379
6950.00000	113.81163	-143.81308	113.81163
7000.00000	113.58313	-145.76773	113.58313
7050.00000	113.33273	-147.76067	113.33273
7100.00000	113.11232	-149.61068	113.11232
7150.00000	112.89207	-151.11823	112.89207
7200.00000	112.67792	-152.60328	112.67792
7250.00000	112.47743	-154.00323	112.47743
7300.00000	112.34188	-155.25291	112.34188
7350.00000	112.19725	-156.31219	112.19725
7400.00000	112.07043	-157.60093	112.07043
7450.00000	112.04994	-158.80648	112.04994
7500.00000	112.00902	-160.15162	112.00902
7550.00000	112.02293	-161.29441	112.02293
7600.00000	112.05676	-162.78338	112.05676
7650.00000	112.11682	-164.50123	112.11682
7700.00000	112.23279	-166.53678	112.23279
7750.00000	112.28779	-168.91596	112.28779
7800.00000	112.36037	-171.46335	112.36037
7850.00000	112.41045	-174.13400	112.41045
7900.00000	112.46512	-176.87226	112.46512
7950.00000	112.48470	-179.98923	112.48470
8000.00000	112.49154	-183.23306	112.49154
8050.00000	112.47208	-186.75126	112.47208
8100.00000	112.41810	-189.72384	112.41810
8150.00000	112.31090	-192.89052	112.31090
8200.00000	112.21295	-195.91903	112.21295
8250.00000	112.08984	-199.35870	112.08984
8300.00000	111.98397	-202.52501	111.98397
8350.00000	111.83512	-205.50092	111.83512
8400.00000	111.66385	-208.96605	111.66385
8450.00000	111.42215	-211.90786	111.42215
8500.00000	111.20451	-214.79221	111.20451
8550.00000	111.01426	-217.41817	111.01426
8600.00000	110.78420	-220.28136	110.78420
8650.00000	110.52502	-222.76660	110.52502
8700.00000	110.31891	-225.82700	110.31891
8750.00000	110.03965	-227.36440	110.03965
8800.00000	109.85729	-230.17838	109.85729
8850.00000	109.61231	-232.71367	109.61231
8900.00000	109.43865	-234.84392	109.43865
8950.00000	109.27067	-237.39965	109.27067
9000.00000	109.03347	-239.65795	109.03347
9050.00000	108.91622	-242.02796	108.91622
9100.00000	108.78352	-244.09461	108.78352
9150.00000	108.67258	-246.14038	108.67258
9200.00000	108.59327	-248.25144	108.59327
9250.00000	108.42299	-250.23810	108.42299
9300.00000	108.32081	-252.23633	108.32081
9350.00000	108.24343	-254.37656	108.24343
9400.00000	108.02263	-256.15891	108.02263
9450.00000	107.90656	-258.25453	107.90656
9500.00000	107.80858	-260.18299	107.80858
9550.00000	107.68286	-262.27782	107.68286
9600.00000	107.65003	-264.68730	107.65003
9650.00000	107.58690	-267.29146	107.58690
9700.00000	107.52336	-269.09140	107.52336
9750.00000	107.52565	-271.95820	107.52565
9800.00000	107.41251	-273.56086	107.41251
9850.00000	107.32211	-275.09330	107.32211
9900.00000	107.03991	-277.15856	107.03991
9950.00000	106.86602	-278.39520	106.86602
10000.00000	106.68409	-280.77427	106.68409
10050.00000	106.42434	-282.91373	106.42434
10100.00000	106.18671	-285.05080	106.18671
10150.00000	105.91355	-288.12946	105.91355
10200.00000	105.78437	-290.73115	105.78437
10250.00000	105.64074	-293.61561	105.64074
10300.00000	105.64724	-296.11042	105.64724
10350.00000	105.56233	-298.06434	105.56233
10400.00000	105.43471	-300.20717	105.43471
10450.00000	105.41721	-302.34126	105.41721
10500.00000	105.36152	-304.13610	105.36152
10550.00000	105.22133	-306.33316	105.22133
10600.00000	105.04296	-308.45724	105.04296
10650.00000	104.84455	-310.57928	104.84455
10700.00000	104.71279	-314.01881	104.71279
10750.00000	104.63527	-317.04187	104.63527
10800.00000	104.50243	-319.65707	104.50243
10850.00000	104.40283	-323.26058	104.40283
10900.00000	104.31333	-325.61433	104.31333
10950.00000	104.16493	-327.64757	104.16493
11000.00000	103.96006	-330.02491	103.96006
11050.00000	103.57591	-332.32386	103.57591
11100.00000	103.25382	-335.41924	103.25382
11150.00000	102.85654	-337.95922	102.85654
11200.00000	102.59437	-340.73838	102.59437
11250.00000	102.21632	-343.89627	102.21632
11300.00000	101.86969	-346.52153	101.86969
11350.00000	101.58730	-348.32410	101.58730
11400.00000	101.18555	-350.13421	101.18555
11450.00000	100.86697	-352.15949	100.86697
11500.00000	100.60869	-353.00749	100.60869
11550.00000	100.11475	-354.28147	100.11475
11600.00000	99.83927	-356.50711	99.83927
11650.00000	99.44126	-357.42833	99.44126
11700.00000	99.20071	-359.24626	99.20071
11750.00000	99.00534	-360.81734	99.00534
11800.00000	98.79448	-362.54017	98.79448
11850.00000	98.63636	-362.72482	98.63636
11900.00000	98.19570	-364.30940	98.19570
11950.00000	97.87999	-365.00739	97.87999
12000.00000	97.42570	-365.72282	97.42570
12050.00000	96.93431	-366.81787	96.93431
12100.00000	96.58944	-369.53145	96.58944
12150.00000	96.18728	-371.34024	96.18728
12200.00000	95.92189	-373.20915	95.92189
12250.00000	95.65884	-373.96473	95.65884
12300.00000	96.45978	-374.83406	96.45978
12350.00000	94.98354	-374.92258	94.98354
12400.00000	94.53642	-373.50059	94.53642
12450.00000	94.04468	-372.89322	94.04468
12500.00000	93.56622	-373.20764	93.56622
12550.00000	93.08540	-372.96578	93.08540
12600.00000	92.61731	-373.37679	92.61731
12650.00000	92.48962	-372.52093	92.48962
12700.00000	92.15726	-371.78172	92.15726
12750.00000	91.89529	-370.66403	91.89529
12800.00000	91.65833	-368.04650	91.65833
12850.00000	91.13807	-366.39829	91.13807
12900.00000	90.87662	-365.15862	90.87662
12950.00000	90.69132	-363.56335	90.69132
13000.00000	90.55762	-363.10703	90.55762
13050.00000	90.66780	-361.03930	90.66780
13100.00000	90.61234	-359.74015	90.61234
13150.00000	90.77167	-358.99321	90.77167
13200.00000	90.71552	-355.57213	90.71552
13250.00000	90.68077	-354.13454	90.68077
13300.00000	90.50048	-350.79578	90.50048
13350.00000	90.41809	-350.20909	90.41809
13400.00000	90.56124	-349.89095	90.56124
13450.00000	90.53471	-348.15159	90.53471
13500.00000	90.91475	-346.10064	90.91475
13550.00000	90.90284	-345.24566	90.90284
13600.00000	91.20297	-343.40531	91.20297
13650.00000	91.40974	-341.23993	91.40974
13700.00000	91.41903	-339.66274	91.41903
13750.00000	91.51630	-338.57722	91.51630
13800.00000	91.62786	-339.39370	91.62786
13850.00000	91.77790	-339.20223	91.77790
13900.00000	91.89010	-338.60925	91.89010
13950.00000	92.33070	-338.24969	92.33070
14000.00000	92.81026	-336.12223	92.81026
14050.00000	93.23760	-335.85521	93.23760
14100.00000	93.39387	-334.66848	93.39387
14150.00000	93.86643	-334.16854	93.86643
14200.00000	94.28389	-333.34775	94.28389
14250.00000	94.94213	-331.53729	94.94213
14300.00000	95.23505	-331.73679	95.23505
14350.00000	95.61248	-329.97011	95.61248
14400.00000	95.60406	-330.47257	95.60406
14450.00000	95.98749	-329.89996	95.98749
14500.00000	96.44140	-331.44395	96.44140
14550.00000	97.01313	-331.64804	97.01313
14600.00000	97.45132	-333.40937	97.45132
14650.00000	98.19082	-332.10528	98.19082
14700.00000	98.65815	-336.36179	98.65815
14750.00000	99.14934	-337.01287	99.14934
14800.00000	99.51697	-337.60192	99.51697
14850.00000	100.14622	-338.97115	100.14622
14900.00000	100.69336	-340.82376	100.69336
14950.00000	101.18628	-343.04658	101.18628
15000.00000	101.68255	-345.37035	101.68255
15050.00000	101.97701	-346.71854	101.97701
15100.00000	102.44886	-348.86959	102.44886
15150.00000	103.04500	-352.14018	103.04500
15200.00000	103.36211	-353.23774	103.36211
15250.00000	103.59972	-356.37355	103.59972
15300.00000	104.14053	-359.43922	104.14053
15350.00000	104.41105	-363.13890	104.41105
15400.00000	104.67753	-365.25077	104.67753
15450.00000	104.95120	-368.77802	104.95120
15500.00000	105.35610	-372.03262	105.35610
15550.00000	105.63394	-375.76507	105.63394
15600.00000	105.87201	-379.55180	105.87201
15650.00000	106.26351	-380.98157	106.26351
15700.00000	106.28833	-385.04903	106.28833
15750.00000	106.55862	-387.70176	106.55862
15800.00000	106.68942	-389.85503	106.68942
15850.00000	106.80351	-392.80786	106.80351
15900.00000	106.85057	-396.13010	106.85057
15950.00000	107.09790	-398.89644	107.09790
16000.00000	107.22375	-401.08922	107.22375
16050.00000	107.40202	-403.62608	107.40202
16100.00000	107.38169	-406.73451	107.38169
16150.00000	107.51356	-409.23492	107.51356
16200.00000	107.71631	-412.24305	107.71631
16250.00000	107.91237	-414.03745	107.91237
16300.00000	108.18621	-416.29993	108.18621
16350.00000	108.25513	-418.81773	108.25513
16400.00000	108.39223	-420.99272	108.39223
16450.00000	108.56620	-423.33944	108.56620
16500.00000	108.70948	-425.77379	108.70948
16550.00000	108.93019	-428.90577	108.93019
16600.00000	109.11729	-431.13437	109.11729
16650.00000	109.25075	-433.52986	109.25075
16700.00000	109.44020	-435.69984	109.44020
16750.00000	109.51826	-438.51100	109.51826
16800.00000	109.71855	-441.26387	109.71855
16850.00000	109.95531	-443.89357	109.95531
16900.00000	110.15511	-446.50558	110.15511
16950.00000	110.32587	-449.05425	110.32587
17000.00000	110.36330	-451.69282	110.36330
17050.00000	110.57300	-453.88578	110.57300
17100.00000	110.69428	-455.82072	110.69428
17150.00000	111.01522	-459.22173	111.01522
17200.00000	111.18949	-461.80599	111.18949
17250.00000	111.28924	-465.09127	111.28924
17300.00000	111.52917	-467.83864	111.52917
17350.00000	111.56847	-470.58139	111.56847
17400.00000	111.81948	-473.66545	111.81948
17450.00000	111.90739	-477.19695	111.90739
17500.00000	112.08397	-480.13898	112.08397
17550.00000	112.21555	-483.31973	112.21555
17600.00000	112.41658	-486.05722	112.41658
17650.00000	112.50987	-490.17561	112.50987
17700.00000	112.59621	-493.35593	112.59621
17750.00000	112.81260	-496.00844	112.81260
17800.00000	112.77395	-499.79389	112.77395
17850.00000	112.87867	-502.66545	112.87867
17900.00000	112.90319	-506.07269	112.90319
17950.00000	113.04772	-509.57526	113.04772
18000.00000	113.07890	-513.15059	113.07890
18050.00000	113.24760	-515.88878	113.24760
18100.00000	113.21396	-519.48709	113.21396
18150.00000	113.24687	-522.03483	113.24687
18200.00000	113.22120	-525.88151	113.22120
18250.00000	113.33706	-528.25753	113.33706
18300.00000	113.42733	-531.34893	113.42733
18350.00000	113.46197	-534.32871	113.46197
18400.00000	113.44047	-537.72972	113.44047
18450.00000	113.44144	-542.02772	113.44144
18500.00000	113.50336	-544.97899	113.50336
18550.00000	113.51797	-547.60217	113.51797
18600.00000	113.62809	-551.23678	113.62809
18650.00000	113.51744	-554.04155	113.51744
18700.00000	113.52448	-557.73217	113.52448
18750.00000	113.60827	-560.88175	113.60827
18800.00000	113.72997	-563.55189	113.72997
18850.00000	113.63294	-567.13297	113.63294
18900.00000	113.61788	-570.21891	113.61788
18950.00000	113.63924	-574.05174	113.63924
19000.00000	113.49607	-577.03877	113.49607
19050.00000	113.61606	-580.49581	113.61606
19100.00000	113.54187	-583.62130	113.54187
19150.00000	113.64298	-586.79302	113.64298
19200.00000	113.57287	-589.86309	113.57287
19250.00000	113.50977	-594.36761	113.50977
19300.00000	113.40185	-597.02170	113.40185
19350.00000	113.35514	-600.40700	113.35514
19400.00000	113.25130	-603.60661	113.25130
19450.00000	113.26085	-606.47133	113.26085
19500.00000	113.09048	-610.64218	113.09048
19550.00000	113.02955	-613.71022	113.02955
19600.00000	113.00006	-617.49800	113.00006
19650.00000	112.83738	-620.25412	112.83738
19700.00000	112.61790	-623.64181	112.61790
19750.00000	112.48776	-626.21778	112.48776
19800.00000	112.44758	-630.22685	112.44758
19850.00000	112.34101	-632.98777	112.34101
19900.00000	112.13582	-636.70298	112.13582
19950.00000	111.95022	-639.60013	111.95022
20000.00000	111.80916	-642.68102	111.80916
20050.00000	111.66036	-645.65721	111.66036
20100.00000	111.40277	-648.55129	111.40277
20150.00000	111.28275	-650.54404	111.28275
20200.00000	111.05330	-654.05336	111.05330
20250.00000	110.81154	-656.67951	110.81154
20300.00000	110.53950	-659.33569	110.53950
20350.00000	110.40899	-661.98216	110.40899
20400.00000	110.12831	-663.57714	110.12831
20450.00000	109.81472	-666.04944	109.81472
20500.00000	109.66701	-668.56883	109.66701
20550.00000	109.22606	-669.89217	109.22606
20600.00000	109.08700	-671.54905	109.08700
20650.00000	108.85195	-673.25212	108.85195
20700.00000	108.57324	-674.80726	108.57324
20750.00000	108.41456	-676.06272	108.41456
20800.00000	108.17442	-676.90889	108.17442
20850.00000	108.04719	-678.01379	108.04719
20900.00000	107.81454	-678.91485	107.81454
20950.00000	107.65796	-679.16953	107.65796
21000.00000	107.54261	-679.66588	107.54261
21050.00000	107.60924	-679.91589	107.60924
21100.00000	107.52728	-680.07414	107.52728
21150.00000	107.60299	-680.85523	107.60299
21200.00000	107.67128	-681.14413	107.67128
21250.00000	107.74315	-683.08605	107.74315
21300.00000	107.89701	-683.36188	107.89701
21350.00000	107.97416	-684.30497	107.97416
21400.00000	108.06701	-686.08072	108.06701
21450.00000	108.19355	-687.60521	108.19355
21500.00000	108.32759	-689.55176	108.32759
21550.00000	108.33302	-690.97107	108.33302
21600.00000	108.49945	-693.02534	108.49945
21650.00000	108.54715	-695.13849	108.54715
21700.00000	108.60946	-696.86324	108.60946
21750.00000	108.70643	-698.74885	108.70643
21800.00000	108.77844	-700.85005	108.77844
21850.00000	108.76300	-702.82313	108.76300
21900.00000	108.85831	-704.97700	108.85831
21950.00000	108.87939	-706.85981	108.87939
22000.00000	108.97866	-708.83507	108.97866
22050.00000	108.97922	-710.52491	108.97922
22100.00000	108.98771	-712.78144	108.98771
22150.00000	109.01288	-714.66217	109.01288
22200.00000	109.10449	-716.59387	109.10449
22250.00000	109.07113	-718.15425	109.07113
22300.00000	108.98952	-720.19305	108.98952
22350.00000	109.12084	-722.40544	109.12084
22400.00000	109.16404	-724.38289	109.16404
22450.00000	109.11849	-726.01239	109.11849
22500.00000	109.09590	-726.77127	109.09590
22550.00000	109.12038	-728.99659	109.12038
22600.00000	109.10830	-731.65795	109.10830
22650.00000	109.18269	-733.11333	109.18269
22700.00000	109.20239	-734.76998	109.20239
22750.00000	109.19546	-734.51978	109.19546
22800.00000	109.24293	-738.46048	109.24293
22850.00000	109.36666	-740.84812	109.36666
22900.00000	109.41996	-741.01248	109.41996
22950.00000	109.50724	-742.75886	109.50724
23000.00000	109.52023	-743.88941	109.52023
23050.00000	109.53370	-746.69606	109.53370
23100.00000	109.72856	-747.38693	109.72856
23150.00000	109.63096	-748.46400	109.63096
23200.00000	109.85429	-751.18731	109.85429
23250.00000	109.76315	-753.98303	109.76315
23300.00000	110.11885	-756.05798	110.11885
23350.00000	109.92943	-757.97117	109.92943
23400.00000	109.99253	-759.80412	109.99253
23450.00000	110.24985	-762.14846	110.24985
23500.00000	110.16150	-763.47037	110.16150
23550.00000	110.20951	-763.96684	110.20951
23600.00000	110.24864	-768.15982	110.24864
23650.00000	110.37523	-769.93371	110.37523
23700.00000	110.63314	-774.03632	110.63314
23750.00000	110.57306	-775.33529	110.57306
23800.00000	110.37714	-776.60385	110.37714
23850.00000	110.56876	-778.33676	110.56876
23900.00000	110.97901	-781.15412	110.97901
23950.00000	110.70277	-784.67658	110.70277
24000.00000	110.56142	-788.09347	110.56142
24050.00000	110.71643	-788.69200	110.71643
24100.00000	110.97671	-793.05452	110.97671
24150.00000	110.93354	-795.52687	110.93354
24200.00000	110.91058	-799.34509	110.91058
24250.00000	110.50925	-800.08508	110.50925
24300.00000	110.83548	-803.18542	110.83548
24350.00000	110.67495	-805.83486	110.67495
24400.00000	110.56597	-809.37091	110.56597
24450.00000	110.23259	-811.05385	110.23259
24500.00000	110.66019	-812.89524	110.66019
24550.00000	110.42229	-817.87592	110.42229
24600.00000	110.82686	-459.05542	110.82686
24650.00000	110.35342	-103.14133	110.35342
24700.00000	110.20863	256.94667	110.20863
24750.00000	110.22790	612.24205	110.22790
24800.00000	110.14150	970.17132	110.14150
24850.00000	109.79116	1329.09646	109.79116
24900.00000	109.86239	1688.24820	109.86239
24950.00000	109.93805	2043.54429	109.93805
25000.00000	109.87350	2036.46263	109.87350
25050.00000	109.98200	2037.21533	109.98200
25100.00000	109.39289	2033.82646	109.39289
25150.00000	109.70402	2033.03254	109.70402
25200.00000	109.42357	2028.98557	109.42357
25250.00000	109.46081	2028.10479	109.46081
25300.00000	109.48575	2026.38525	109.48575
25350.00000	109.29982	2019.55067	109.29982
25400.00000	109.23494	2016.28454	109.23494
25450.00000	109.22876	2014.38598	109.22876
25500.00000	109.04167	2012.82122	109.04167
25550.00000	108.88282	2008.39241	108.88282
25600.00000	108.92284	2005.76984	108.92284
25650.00000	108.72454	2003.96222	108.72454
25700.00000	108.63090	2000.78232	108.63090
25750.00000	108.33127	1997.31038	108.33127
25800.00000	108.09059	1993.99295	108.09059
25850.00000	107.99346	1991.10126	107.99346
25900.00000	107.84197	1987.17180	107.84197
25950.00000	107.47493	1988.32819	107.47493
26000.00000	107.37172	1983.09340	107.37172
26050.00000	107.16721	1980.66491	107.16721
26100.00000	106.89429	1978.26746	106.89429
26150.00000	106.76889	1976.04352	106.76889
26200.00000	106.66392	1973.64119	106.66392
26250.00000	106.42992	1971.08509	106.42992
26300.00000	106.30042	1968.16927	106.30042
26350.00000	105.71230	1967.11994	105.71230
26400.00000	105.54111	1964.92070	105.54111
26450.00000	105.65816	1961.67266	105.65816
26500.00000	105.23154	1960.11424	105.23154
26550.00000	105.00526	1955.27009	105.00526
26600.00000	104.68276	1954.09216	104.68276
26650.00000	104.68563	1955.31233	104.68563
26700.00000	104.48084	1952.74350	104.48084
26750.00000	104.07572	1951.17864	104.07572
26800.00000	103.86383	1946.56547	103.86383
26850.00000	104.01569	1947.16976	104.01569
26900.00000	103.93619	1946.59525	103.93619
26950.00000	103.91087	1943.54665	103.91087
27000.00000	103.40168	1944.02595	103.40168
27050.00000	103.51757	1941.26358	103.51757
27100.00000	103.21437	1941.51194	103.21437
27150.00000	103.14956	1939.10521	103.14956
27200.00000	103.17257	1938.60588	103.17257
27250.00000	102.80656	1938.40386	102.80656
27300.00000	102.61301	1936.00872	102.61301
27350.00000	102.80848	1937.17401	102.80848
27400.00000	102.45176	1935.56575	102.45176
27450.00000	102.61284	1934.76608	102.61284
27500.00000	102.64531	1934.02252	102.64531
27550.00000	102.77500	1932.69674	102.77500
27600.00000	103.23849	1930.92241	103.23849
27650.00000	102.77544	1931.88104	102.77544
27700.00000	103.04796	1927.60514	103.04796
27750.00000	103.09663	1926.04703	103.09663
27800.00000	103.47081	1923.76384	103.47081
27850.00000	103.82989	1926.04983	103.82989
27900.00000	103.58731	1924.54674	103.58731
27950.00000	103.24121	1922.07156	103.24121
28000.00000	103.61646	1921.79627	103.61646
28050.00000	104.39889	1918.06053	104.39889
28100.00000	103.99402	1916.89966	103.99402
28150.00000	104.32956	1915.22656	104.32956
28200.00000	104.79596	1910.58726	104.79596
28250.00000	104.66283	1907.72049	104.66283
28300.00000	104.57886	1907.42485	104.57886
28350.00000	104.99281	1905.64309	104.99281
28400.00000	105.08705	1904.51301	105.08705
28450.00000	105.85852	1899.96611	105.85852
28500.00000	105.55661	1898.27661	105.55661
28550.00000	105.66969	1898.16642	105.66969
28600.00000	105.88848	1894.23788	105.88848
28650.00000	106.31080	1888.62016	106.31080
28700.00000	106.28045	1888.53400	106.28045
28750.00000	107.06827	1887.03490	107.06827
28800.00000	106.91482	1883.16822	106.91482
28850.00000	106.44664	1877.54263	106.44664
28900.00000	106.75430	1874.98845	106.75430
28950.00000	106.74328	1873.34748	106.74328
29000.00000	106.98204	1869.76643	106.98204
29050.00000	106.79723	1868.90803	106.79723
29100.00000	106.86890	1865.90731	106.86890
29150.00000	106.78101	1863.42965	106.78101
29200.00000	106.69273	1858.90611	106.69273
29250.00000	107.01868	1856.73554	107.01868
29300.00000	106.73847	1853.45143	106.73847
29350.00000	107.00553	1849.58233	107.00553
29400.00000	106.88540	1848.25664	106.88540
29450.00000	106.73734	1845.08950	106.73734
29500.00000	106.97612	1843.66492	106.97612
29550.00000	106.60649	1838.48031	106.60649
29600.00000	106.39707	1837.97136	106.39707
29650.00000	106.37798	1834.47222	106.37798
29700.00000	106.22755	1835.21960	106.22755
29750.00000	106.03252	1833.75552	106.03252
29800.00000	105.72042	1830.65170	105.72042
29850.00000	105.74160	1828.05372	105.74160
29900.00000	105.85176	1828.11531	105.85176
29950.00000	104.96864	1827.31023	104.96864
30000.00000	105.24132	1827.25147	105.24132
30050.00000	105.21076	1825.26791	105.21076
30100.00000	104.80398	1826.07750	104.80398
30150.00000	104.84106	1822.83281	104.84106
30200.00000	104.73768	1821.93695	104.73768
30250.00000	104.40057	1822.75711	104.40057
30300.00000	104.07304	1823.05577	104.07304
30350.00000	104.17239	1825.15027	104.17239
30400.00000	104.10996	1823.42705	104.10996
30450.00000	103.66733	1824.01104	103.66733
30500.00000	103.70307	1824.02555	103.70307
30550.00000	103.64044	1826.24546	103.64044
30600.00000	103.61667	1828.00828	103.61667
30650.00000	103.67743	1828.98198	103.67743
30700.00000	103.73662	1829.05454	103.73662
30750.00000	103.64185	1831.78214	103.64185
30800.00000	103.80070	1832.70606	103.80070
30850.00000	104.05597	1835.53406	104.05597
30900.00000	104.03128	1838.11221	104.03128
30950.00000	104.52891	1837.88613	104.52891
31000.00000	104.87253	1838.66803	104.87253
31050.00000	105.27705	1840.61312	105.27705
31100.00000	105.80581	1841.81729	105.80581
31150.00000	105.95864	1842.11104	105.95864
31200.00000	106.79980	1841.92085	106.79980
31250.00000	107.21110	1841.86759	107.21110
31300.00000	107.70961	1841.13347	107.70961
31350.00000	108.34848	1840.20991	108.34848
31400.00000	108.66039	1838.12081	108.66039
31450.00000	109.26915	1836.52681	109.26915
31500.00000	109.67384	1833.45854	109.67384
31550.00000	110.19815	1831.60278	110.19815
31600.00000	110.80370	1827.53361	110.80370
31650.00000	111.12396	1824.66775	111.12396
31700.00000	111.50179	1821.95199	111.50179
31750.00000	111.93610	1819.43579	111.93610
31800.00000	112.18897	1814.90914	112.18897
31850.00000	112.55026	1810.34542	112.55026
31900.00000	112.57637	1806.97289	112.57637
31950.00000	112.92847	1802.87726	112.92847
32000.00000	113.11908	1798.35574	113.11908
32050.00000	113.28231	1794.75823	113.28231
32100.00000	113.33372	1790.05942	113.33372
32150.00000	113.47600	1786.75324	113.47600
32200.00000	113.63694	1781.71001	113.63694
32250.00000	113.60327	1777.07332	113.60327
32300.00000	113.65793	1773.52066	113.65793
32350.00000	113.60558	1769.59916	113.60558
32400.00000	113.69810	1765.86305	113.69810
32450.00000	113.57921	1761.10586	113.57921
32500.00000	113.60194	1757.42603	113.60194
32550.00000	113.61778	1752.36906	113.61778
32600.00000	113.48958	1748.78884	113.48958
32650.00000	113.42336	1744.31312	113.42336
32700.00000	113.11876	1739.43021	113.11876
32750.00000	113.07132	1735.80569	113.07132
32800.00000	113.02048	1732.75267	113.02048
32850.00000	112.93259	1728.33766	112.93259
32900.00000	112.67812	1723.65610	112.67812
32950.00000	112.35536	1718.75558	112.35536
33000.00000	112.13805	1717.19776	112.13805
33050.00000	111.85164	1712.42000	111.85164
33100.00000	111.76563	1709.52023	111.76563
33150.00000	111.48711	1706.64659	111.48711
33200.00000	111.46109	1704.64155	111.46109
33250.00000	111.09575	1701.08508	111.09575
33300.00000	110.80457	1698.00334	110.80457
33350.00000	110.58226	1694.78111	110.58226
33400.00000	110.38579	1692.72043	110.38579
33450.00000	110.25112	1689.50014	110.25112
33500.00000	110.31257	1688.68558	110.31257
33550.00000	109.88148	1683.99326	109.88148
33600.00000	109.87237	1681.81333	109.87237
33650.00000	109.72547	1678.99018	109.72547
33700.00000	109.55299	1676.58753	109.55299
33750.00000	109.25048	1673.96224	109.25048
33800.00000	109.26100	1671.79552	109.26100
33850.00000	108.87261	1669.77193	108.87261
33900.00000	108.98542	1667.27623	108.98542
33950.00000	108.80904	1664.70646	108.80904
34000.00000	108.80371	1661.18544	108.80371
34050.00000	108.49002	1659.24750	108.49002
34100.00000	108.30497	1658.42423	108.30497
34150.00000	108.29190	1655.04544	108.29190
34200.00000	108.09993	1654.96680	108.09993
34250.00000	108.13344	1650.76624	108.13344
34300.00000	107.94907	1647.91641	107.94907
34350.00000	107.95743	1645.38905	107.95743
34400.00000	107.41912	1645.11053	107.41912
34450.00000	107.44158	1640.45373	107.44158
34500.00000	107.37669	1639.91137	107.37669
34550.00000	107.10381	1638.87712	107.10381
34600.00000	106.63151	1636.13881	106.63151
34650.00000	107.06264	1637.52041	107.06264
34700.00000	106.43780	1637.44147	106.43780
34750.00000	106.62774	1632.52868	106.62774
34800.00000	106.77895	1633.72295	106.77895
34850.00000	106.75666	1634.86059	106.75666
34900.00000	106.88110	1632.03947	106.88110
34950.00000	106.76655	1631.98169	106.76655
35000.00000	106.84281	1630.24077	106.84281
35050.00000	106.92523	1629.12573	106.92523
35100.00000	107.34545	1627.42506	107.34545
35150.00000	106.80637	1629.07578	106.80637
35200.00000	106.91422	1625.58238	106.91422
35250.00000	107.02533	1625.55988	107.02533
35300.00000	107.43641	1626.08334	107.43641
35350.00000	107.75828	1623.32478	107.75828
35400.00000	107.83313	1622.75798	107.83313
35450.00000	107.82807	1623.06859	107.82807
35500.00000	107.86234	1620.60156	107.86234
35550.00000	108.28385	1620.51295	108.28385
35600.00000	108.45745	1618.40406	108.45745
35650.00000	108.81547	1618.14820	108.81547
35700.00000	109.23113	1618.00270	109.23113
35750.00000	109.21877	1615.31540	109.21877
35800.00000	109.48455	1614.77573	109.48455
35850.00000	109.97982	1612.86182	109.97982
35900.00000	110.16988	1610.50444	110.16988
35950.00000	110.50245	1607.81941	110.50245
36000.00000	110.55148	1608.03349	110.55148
36050.00000	110.90496	1606.61356	110.90496
36100.00000	111.30270	1605.63696	111.30270
36150.00000	111.50438	1603.68442	111.50438
36200.00000	111.80491	1602.24862	111.80491
36250.00000	112.03910	1599.67110	112.03910
36300.00000	112.07056	1597.64304	112.07056
36350.00000	112.63198	1596.45751	112.63198
36400.00000	112.93720	1595.76647	112.93720
36450.00000	113.06705	1592.79052	113.06705
36500.00000	113.62143	1591.83915	113.62143
36550.00000	113.71820	1588.10271	113.71820
36600.00000	114.06175	1586.13976	114.06175
36650.00000	114.40799	1584.43029	114.40799
36700.00000	114.59766	1581.57331	114.59766
36750.00000	114.80325	1579.34450	114.80325
36800.00000	114.95501	1578.24720	114.95501
36850.00000	115.05844	1576.73996	115.05844
36900.00000	115.62744	1574.65336	115.62744
36950.00000	115.70864	1572.62322	115.70864
37000.00000	115.74712	1570.70757	115.74712
37050.00000	115.95214	1568.48973	115.95214
37100.00000	116.36691	1565.84248	116.36691
37150.00000	116.62630	1562.87608	116.62630
37200.00000	117.11533	1562.03397	117.11533
37250.00000	116.90835	1558.81569	116.90835
37300.00000	117.17523	1556.62474	117.17523
37350.00000	117.68410	1554.15435	117.68410
37400.00000	117.56209	1552.00972	117.56209
37450.00000	117.63954	1550.15135	117.63954
37500.00000	118.14642	1547.23174	118.14642
37550.00000	117.96405	1545.32811	117.96405
37600.00000	118.22464	1543.91052	118.22464
37650.00000	118.48715	1541.79278	118.48715
37700.00000	118.85811	1538.83115	118.85811
37750.00000	118.97367	1536.22759	118.97367
37800.00000	119.00500	1532.88701	119.00500
37850.00000	119.19405	1528.59738	119.19405
37900.00000	119.31950	1526.69843	119.31950
37950.00000	119.49703	1524.96669	119.49703
38000.00000	119.59433	1522.26679	119.59433
38050.00000	119.80160	1518.84252	119.80160
38100.00000	120.03980	1515.21685	120.03980
38150.00000	120.06796	1511.82272	120.06796
38200.00000	120.29729	1507.96584	120.29729
38250.00000	120.40300	1505.11422	120.40300
38300.00000	120.58714	1501.04837	120.58714
38350.00000	120.57737	1497.89761	120.57737
38400.00000	120.66673	1494.52443	120.66673
38450.00000	120.80397	1490.09799	120.80397
38500.00000	120.95328	1485.57493	120.95328
38550.00000	121.07537	1482.17347	121.07537
38600.00000	121.13780	1478.06778	121.13780
38650.00000	121.26275	1473.63547	121.26275
38700.00000	121.23410	1469.02238	121.23410
38750.00000	121.29302	1464.92570	121.29302
38800.00000	121.37263	1460.97489	121.37263
38850.00000	121.40020	1455.77018	121.40020
38900.00000	121.47145	1451.12684	121.47145
38950.00000	121.42452	1446.05661	121.42452
39000.00000	121.38733	1440.95028	121.38733
39050.00000	121.36853	1436.09319	121.36853
39100.00000	121.16678	1431.27804	121.16678
39150.00000	121.04660	1426.58899	121.04660
39200.00000	121.03040	1421.98076	121.03040
39250.00000	120.92683	1416.63142	120.92683
39300.00000	120.76460	1411.49286	120.76460
39350.00000	120.56654	1407.28320	120.56654
39400.00000	120.35724	1402.20541	120.35724
39450.00000	120.14444	1397.72338	120.14444
39500.00000	119.97641	1393.17373	119.97641
39550.00000	119.70405	1388.44780	119.70405
39600.00000	119.36759	1384.36734	119.36759
39650.00000	119.21060	1380.31966	119.21060
39700.00000	118.91670	1375.86371	118.91670
39750.00000	118.73283	1371.35398	118.73283
39800.00000	118.44840	1367.50932	118.44840
39850.00000	118.12150	1363.44607	118.12150
39900.00000	117.84090	1359.99425	117.84090
39950.00000	117.61841	1356.61527	117.61841
40000.00000	117.18216	1354.03399	117.18216
40050.00000	117.03441	1349.46713	117.03441
40100.00000	116.78614	1345.99253	116.78614
40150.00000	116.48392	1342.61843	116.48392
40200.00000	116.21207	1339.51515	116.21207
40250.00000	115.92362	1336.68075	115.92362
40300.00000	115.75187	1333.70645	115.75187
40350.00000	115.28570	1330.90697	115.28570
40400.00000	115.04955	1328.48992	115.04955
40450.00000	114.83295	1326.10485	114.83295
40500.00000	114.68598	1324.17030	114.68598
40550.00000	114.40573	1320.98213	114.40573
40600.00000	114.16895	1319.14400	114.16895
40650.00000	113.95000	1317.72201	113.95000
40700.00000	113.58926	1316.32091	113.58926
40750.00000	113.63997	1314.06538	113.63997
40800.00000	113.42591	1311.84134	113.42591
40850.00000	113.18377	1311.54584	113.18377
40900.00000	113.02865	1309.03303	113.02865
40950.00000	112.76189	1308.78444	112.76189
41000.00000	112.56867	1307.39796	112.56867
41050.00000	112.60069	1306.29251	112.60069
41100.00000	112.55067	1305.16430	112.55067
41150.00000	112.62484	1305.37662	112.62484
41200.00000	112.59166	1304.67563	112.59166
41250.00000	112.39157	1301.22963	112.39157
41300.00000	112.26279	1301.98195	112.26279
41350.00000	112.46133	1302.30628	112.46133
41400.00000	112.49917	1297.18682	112.49917
41450.00000	112.61469	1299.17720	112.61469
41500.00000	112.53067	1297.98394	112.53067
41550.00000	112.37059	1300.45864	112.37059
41600.00000	112.12777	1298.53770	112.12777
41650.00000	112.71282	1296.47148	112.71282
41700.00000	112.78608	1296.36122	112.78608
41750.00000	112.77052	1300.57284	112.77052
41800.00000	111.84964	1293.76355	111.84964
41850.00000	112.10874	1294.69552	112.10874
41900.00000	111.88975	1295.24741	111.88975
41950.00000	113.04189	1300.12447	113.04189
42000.00000	112.25971	1293.66205	112.25971
42050.00000	111.24027	1293.15693	111.24027
42100.00000	111.85245	1293.08714	111.85245
42150.00000	111.43950	1288.89738	111.43950
42200.00000	111.31302	1294.85689	111.31302
42250.00000	111.27173	1293.39987	111.27173
42300.00000	110.34907	1290.30184	110.34907
42350.00000	110.88111	1291.83384	110.88111
42400.00000	110.69075	1294.20093	110.69075
42450.00000	111.27420	1289.81287	111.27420
42500.00000	110.47948	1289.58234	110.47948
42550.00000	110.73647	1300.85669	110.73647
42600.00000	110.18077	1294.77547	110.18077
42650.00000	109.84243	1295.92766	109.84243
42700.00000	109.59178	1293.94697	109.59178
42750.00000	110.30786	1292.68929	110.30786
42800.00000	109.64698	1287.33383	109.64698
42850.00000	109.24916	1288.17033	109.24916
42900.00000	110.41193	1295.02815	110.41193
42950.00000	109.36024	1290.75270	109.36024
43000.00000	109.75387	1282.67753	109.75387
43050.00000	109.20682	1280.28567	109.20682
43100.00000	109.59810	1287.13777	109.59810
43150.00000	107.95869	1278.28512	107.95869
43200.00000	108.98422	1279.61616	108.98422
43250.00000	108.85704	1278.39959	108.85704
43300.00000	108.82324	1277.31001	108.82324
43350.00000	109.44132	1275.41680	109.44132
43400.00000	109.03577	1271.71764	109.03577
43450.00000	109.80567	1273.71592	109.80567
43500.00000	108.36357	1264.61536	108.36357
43550.00000	109.19671	1262.76031	109.19671
43600.00000	108.85890	1259.99054	108.85890
43650.00000	109.01839	1252.13580	109.01839
43700.00000	108.89054	1250.74410	108.89054
43750.00000	108.21911	1249.52776	108.21911
43800.00000	108.29478	1240.72543	108.29478
43850.00000	108.84379	1236.22393	108.84379
43900.00000	108.65272	1236.44092	108.65272
43950.00000	108.56601	1229.16435	108.56601
44000.00000	107.77397	1225.13617	107.77397
44050.00000	107.91673	1222.36683	107.91673
44100.00000	107.64920	1209.03497	107.64920
44150.00000	107.16548	1212.79759	107.16548
44200.00000	107.37090	1209.36270	107.37090
44250.00000	107.24279	1204.97727	107.24279
44300.00000	107.47802	1195.67529	107.47802
44350.00000	106.25562	1193.29659	106.25562
44400.00000	106.64280	1190.82429	106.64280
44450.00000	106.70390	1188.08678	106.70390
44500.00000	105.76096	1184.80825	105.76096
44550.00000	107.57772	1178.25287	107.57772
44600.00000	105.90955	1176.52617	105.90955
44650.00000	105.19942	1168.63873	105.19942
44700.00000	104.83436	1165.60882	104.83436
44750.00000	104.95726	1165.29688	104.95726
44800.00000	105.61994	1157.00075	105.61994
44850.00000	104.53286	1150.38594	104.53286
44900.00000	104.23617	1150.27131	104.23617
44950.00000	104.61533	1145.03617	104.61533
45000.00000	104.78549	1134.75773	104.78549
45050.00000	103.12533	1141.54034	103.12533
45100.00000	103.09299	1130.92706	103.09299
45150.00000	103.53774	1120.18662	103.53774
45200.00000	102.58506	1123.58108	102.58506
45250.00000	102.98756	1119.62300	102.98756
45300.00000	102.81264	1112.47515	102.81264
45350.00000	102.04937	1108.53788	102.04937
45400.00000	101.96741	1105.25330	101.96741
45450.00000	102.23226	1093.34125	102.23226
45500.00000	100.53122	1086.41304	100.53122
45550.00000	100.56098	1088.93422	100.56098
45600.00000	101.20829	1079.29758	101.20829
45650.00000	99.49308	1072.37326	99.49308
45700.00000	99.43826	1070.40760	99.43826
45750.00000	100.51767	1071.58540	100.51767
45800.00000	99.08322	1061.73716	99.08322
45850.00000	98.96609	1060.23024	98.96609
45900.00000	97.94401	1049.72506	97.94401
45950.00000	97.32951	1056.26958	97.32951
46000.00000	95.87747	1035.43398	95.87747
46050.00000	97.21205	1037.57491	97.21205
46100.00000	96.27123	1038.00097	96.27123
46150.00000	95.76147	1041.24385	95.76147
46200.00000	93.84262	1022.72475	93.84262
46250.00000	94.67204	1022.93743	94.67204
46300.00000	93.14903	1020.22501	93.14903
46350.00000	94.09217	1019.35434	94.09217
46400.00000	92.53041	1010.90203	92.53041
46450.00000	90.73180	1009.61508	90.73180
46500.00000	91.79454	1012.81803	91.79454
46550.00000	90.29354	1009.08952	90.29354
46600.00000	91.16475	1009.74988	91.16475
46650.00000	87.98013	1008.14795	87.98013
46700.00000	87.75541	1013.89119	87.75541
46750.00000	88.68689	1026.43385	88.68689
46800.00000	88.57207	1015.60348	88.57207
46850.00000	88.51916	662.42203	88.51916
46900.00000	87.67265	648.55361	87.67265
46950.00000	87.38371	640.02421	87.38371
47000.00000	87.31263	647.29584	87.31263
47050.00000	88.18504	647.78779	88.18504
47100.00000	87.88771	640.36303	87.88771
47150.00000	89.16895	640.58098	89.16895
47200.00000	85.93875	635.55530	85.93875
47250.00000	87.25154	636.92416	87.25154
47300.00000	85.58631	618.65130	85.58631
47350.00000	85.53995	276.09273	85.53995
47400.00000	87.71180	276.68769	87.71180
47450.00000	86.21890	282.10591	86.21890
47500.00000	84.47415	258.05362	84.47415
47550.00000	85.27084	-87.07550	85.27084
47600.00000	85.18937	-92.50540	85.18937
47650.00000	87.40539	-93.87263	87.40539
47700.00000	86.81624	-93.98589	86.81624
47750.00000	83.64972	-95.48066	83.64972
47800.00000	85.08831	-109.30470	85.08831
47850.00000	85.66953	-464.14746	85.66953
47900.00000	86.37666	-810.99599	86.37666
47950.00000	86.03757	-824.25130	86.03757
48000.00000	84.68630	-825.80760	84.68630
48050.00000	86.13414	-829.44494	86.13414
48100.00000	85.66641	-830.67390	85.66641
48150.00000	85.28906	-1182.84421	85.28906
48200.00000	85.27262	-1183.84537	85.27262
48250.00000	85.82397	-1191.47780	85.82397
48300.00000	86.69172	-1192.22343	86.69172
48350.00000	85.88372	-1214.83840	85.88372
48400.00000	85.74552	-1555.80718	85.74552
48450.00000	86.24404	-1551.99830	86.24404
48500.00000	85.95165	-1565.65436	85.95165
48550.00000	82.49677	-1574.59091	82.49677
48600.00000	85.39340	-1917.69356	85.39340
48650.00000	86.23393	-1922.05092	86.23393
48700.00000	84.74407	-1953.49217	84.74407
48750.00000	86.20382	-2292.07642	86.20382
48800.00000	85.52599	-2286.13277	85.52599
48850.00000	85.26341	-2300.91529	85.26341
48900.00000	84.17706	-2662.70519	84.17706
48950.00000	85.11476	-2671.95212	85.11476
49000.00000	85.90057	-2668.13151	85.90057
49050.00000	87.00129	-2670.92251	87.00129
49100.00000	84.46484	-3036.43893	84.46484
49150.00000	87.47732	-3382.31506	87.47732
49200.00000	85.96622	-3411.34949	85.96622
49250.00000	85.90162	-3766.18036	85.90162
49300.00000	86.15556	-3411.81410	86.15556
49350.00000	85.00192	-3416.71838	85.00192
49400.00000	85.68221	-3063.38257	85.68221
49450.00000	83.21569	-2714.61877	83.21569
49500.00000	87.54351	-2380.05636	87.54351
49550.00000	81.61564	-2003.33217	81.61564
49600.00000	84.60850	-2014.63591	84.60850
49650.00000	87.27337	-2004.90623	87.27337
49700.00000	84.30984	-1691.98304	84.30984
49750.00000	86.39390	-1672.29483	86.39390
49800.00000	86.85405	-1690.57532	86.85405
49850.00000	85.79998	-1694.24194	85.79998
49900.00000	81.01581	-1363.32665	81.01581
49950.00000	88.81178	-1040.05768	88.81178
