---ACOUSTIC CALIBRATION---
Filename: C:\Data\CL0809 DATA\CL0809500\RightPrimary.calib
Date: 8/9/2019 3:24:22 PM
Format: 4
Probe Tube Correction File: C:\Data\Probe Tube Calibrations\74_ProbeTube.calib
Experiment VIs: 2128
EPL_CFTS.exe V15.0.1f5 (2015)
DAQmx V15.1

Attenuation (dB): 40.000000
Min Freq (Hz): 50.000000
Max Freq (Hz): 99950.000000
Freq Step (Hz): 50.000000
Sample Rate (Hz): 200000.000000
[Smoothing]
Method=None
MA.Iterations=0
MA.Length=0
Loess.Length=0
Loess.Type=Linear
Loess.Robust=FALSE


Freq(Hz)	Mag(dB)	Phase(deg)	Unsmoothed(dB)

50.00000	99.39381	121.10620	99.39381
100.00000	61.58925	70.12352	61.58925
150.00000	56.85867	264.92282	56.85867
200.00000	58.60961	471.41613	58.60961
250.00000	55.92538	688.32385	55.92538
300.00000	61.26718	815.49179	61.26718
350.00000	62.49149	988.68441	62.49149
400.00000	59.26078	1052.89370	59.26078
450.00000	61.12996	1106.53932	61.12996
500.00000	63.46755	1245.10816	63.46755
550.00000	68.90925	1167.60199	68.90925
600.00000	68.83434	1135.58930	68.83434
650.00000	74.36861	1136.64547	74.36861
700.00000	73.91424	1128.36717	73.91424
750.00000	77.50688	1098.33067	77.50688
800.00000	78.12777	1087.33758	78.12777
850.00000	76.78879	1079.88453	76.78879
900.00000	77.38683	1088.83036	77.38683
950.00000	80.69783	1087.34798	80.69783
1000.00000	82.56237	1089.79975	82.56237
1050.00000	85.63749	1080.06169	85.63749
1100.00000	88.08439	1065.30804	88.08439
1150.00000	89.39127	1051.02528	89.39127
1200.00000	90.13280	1038.61835	90.13280
1250.00000	90.55297	1028.96528	90.55297
1300.00000	91.75092	1023.78855	91.75092
1350.00000	93.27328	1011.38102	93.27328
1400.00000	93.71707	997.95328	93.71707
1450.00000	93.60911	986.70394	93.60911
1500.00000	93.51392	980.05569	93.51392
1550.00000	93.63923	974.13180	93.63923
1600.00000	94.36955	970.53524	94.36955
1650.00000	95.11346	966.96252	95.11346
1700.00000	98.93673	951.17720	98.93673
1750.00000	95.92189	931.04694	95.92189
1800.00000	95.43270	925.89782	95.43270
1850.00000	95.03597	919.59489	95.03597
1900.00000	94.95202	914.25385	94.95202
1950.00000	94.48168	909.81635	94.48168
2000.00000	94.23363	907.21098	94.23363
2050.00000	94.58519	904.97533	94.58519
2100.00000	95.00349	899.29001	95.00349
2150.00000	95.35739	890.95425	95.35739
2200.00000	95.03403	880.43952	95.03403
2250.00000	94.03786	874.99253	94.03786
2300.00000	93.76225	874.07994	93.76225
2350.00000	93.89472	868.77121	93.89472
2400.00000	93.89582	862.49638	93.89582
2450.00000	93.39692	854.63162	93.39692
2500.00000	92.47696	851.57606	92.47696
2550.00000	92.14319	848.07085	92.14319
2600.00000	91.72312	844.20140	91.72312
2650.00000	91.15270	842.04639	91.15270
2700.00000	90.71162	838.98154	90.71162
2750.00000	90.15288	836.83222	90.15288
2800.00000	89.68622	834.49105	89.68622
2850.00000	89.28490	832.86162	89.28490
2900.00000	89.04559	832.11160	89.04559
2950.00000	88.81879	830.80613	88.81879
3000.00000	88.54828	828.46745	88.54828
3050.00000	88.27678	826.46252	88.27678
3100.00000	87.92996	824.26945	87.92996
3150.00000	87.27608	821.97842	87.27608
3200.00000	86.78555	820.53355	86.78555
3250.00000	86.40601	819.80491	86.40601
3300.00000	85.81584	819.24432	85.81584
3350.00000	85.42644	818.30783	85.42644
3400.00000	84.86220	818.20312	84.86220
3450.00000	84.22660	817.25278	84.22660
3500.00000	83.40791	817.82546	83.40791
3550.00000	82.93267	817.11496	82.93267
3600.00000	81.54668	818.65219	81.54668
3650.00000	80.21574	825.34947	80.21574
3700.00000	78.79280	832.49163	78.79280
3750.00000	78.10466	845.92081	78.10466
3800.00000	78.24718	862.09102	78.24718
3850.00000	79.36658	869.81390	79.36658
3900.00000	80.64898	877.53041	80.64898
3950.00000	80.98580	884.29973	80.98580
4000.00000	81.54048	894.02665	81.54048
4050.00000	83.32967	902.72869	83.32967
4100.00000	85.10143	908.00941	85.10143
4150.00000	87.71947	909.43317	87.71947
4200.00000	89.50604	908.92577	89.50604
4250.00000	90.46445	900.37861	90.46445
4300.00000	91.36093	901.39733	91.36093
4350.00000	92.81572	901.29247	92.81572
4400.00000	94.33535	896.86802	94.33535
4450.00000	95.31760	890.36483	95.31760
4500.00000	96.12071	884.79563	96.12071
4550.00000	96.48558	880.90323	96.48558
4600.00000	96.99085	878.93537	96.99085
4650.00000	97.86072	878.38483	97.86072
4700.00000	98.86199	876.63211	98.86199
4750.00000	99.93602	874.06903	99.93602
4800.00000	101.03792	870.91934	101.03792
4850.00000	102.17496	867.07032	102.17496
4900.00000	103.35792	862.13438	103.35792
4950.00000	104.57251	857.05407	104.57251
5000.00000	105.85416	850.89610	105.85416
5050.00000	107.26713	843.94301	107.26713
5100.00000	108.89027	835.41691	108.89027
5150.00000	110.85565	823.77115	110.85565
5200.00000	113.25425	804.32074	113.25425
5250.00000	114.82747	766.97333	114.82747
5300.00000	111.56595	723.92484	111.56595
5350.00000	105.77969	708.10191	105.77969
5400.00000	101.23391	713.23682	101.23391
5450.00000	98.48814	722.54148	98.48814
5500.00000	95.98429	733.58139	95.98429
5550.00000	94.37259	755.68991	94.37259
5600.00000	95.61063	777.68443	95.61063
5650.00000	97.91272	786.00037	97.91272
5700.00000	99.72617	784.84245	99.72617
5750.00000	100.74440	780.90796	100.74440
5800.00000	101.24055	778.24591	101.24055
5850.00000	101.64095	777.10254	101.64095
5900.00000	102.14983	776.70716	102.14983
5950.00000	102.79097	776.45978	102.79097
6000.00000	103.52318	775.79071	103.52318
6050.00000	104.33435	774.39693	104.33435
6100.00000	105.19229	772.48817	105.19229
6150.00000	106.05439	769.89671	106.05439
6200.00000	106.95605	767.02130	106.95605
6250.00000	107.91789	763.42095	107.91789
6300.00000	108.91567	758.79410	108.91567
6350.00000	109.90171	753.09605	109.90171
6400.00000	110.82739	746.44314	110.82739
6450.00000	111.66709	738.81278	111.66709
6500.00000	112.36409	730.54428	112.36409
6550.00000	112.97615	721.82592	112.97615
6600.00000	113.47959	712.82062	113.47959
6650.00000	113.88906	703.17516	113.88906
6700.00000	114.13761	692.86515	114.13761
6750.00000	114.15387	682.32879	114.15387
6800.00000	113.95094	672.21487	113.95094
6850.00000	113.56223	662.85883	113.56223
6900.00000	113.05882	654.60897	113.05882
6950.00000	112.49874	647.47413	112.49874
7000.00000	111.93924	641.22819	111.93924
7050.00000	111.41027	635.76156	111.41027
7100.00000	110.93138	630.73204	110.93138
7150.00000	110.47155	626.03070	110.47155
7200.00000	110.03757	621.61413	110.03757
7250.00000	109.62173	617.44677	109.62173
7300.00000	109.23206	613.49588	109.23206
7350.00000	108.86072	609.62012	108.86072
7400.00000	108.51781	605.80812	108.51781
7450.00000	108.15669	602.02812	108.15669
7500.00000	107.80829	598.30717	107.80829
7550.00000	107.44531	594.65914	107.44531
7600.00000	107.07016	591.12638	107.07016
7650.00000	106.67536	587.81766	106.67536
7700.00000	106.28996	584.78799	106.28996
7750.00000	105.89838	581.88732	105.89838
7800.00000	105.53784	579.33691	105.53784
7850.00000	105.18224	576.90325	105.18224
7900.00000	104.82642	574.55414	104.82642
7950.00000	104.49642	572.47315	104.49642
8000.00000	104.18405	570.70155	104.18405
8050.00000	103.91521	568.91851	103.91521
8100.00000	103.65864	567.21137	103.65864
8150.00000	103.44158	565.68179	103.44158
8200.00000	103.23118	564.13508	103.23118
8250.00000	103.06492	562.64239	103.06492
8300.00000	102.95208	561.14100	102.95208
8350.00000	102.84193	559.46356	102.84193
8400.00000	102.75945	557.72272	102.75945
8450.00000	102.63322	555.97495	102.63322
8500.00000	102.56152	554.33215	102.56152
8550.00000	102.50263	552.64471	102.50263
8600.00000	102.48593	550.72557	102.48593
8650.00000	102.46720	548.86802	102.46720
8700.00000	102.42442	546.83945	102.42442
8750.00000	102.42587	544.89594	102.42587
8800.00000	102.42534	542.80414	102.42534
8850.00000	102.46573	540.39240	102.46573
8900.00000	102.45940	538.29021	102.45940
8950.00000	102.50223	535.94975	102.50223
9000.00000	102.49994	533.35243	102.49994
9050.00000	102.48972	530.83575	102.48972
9100.00000	102.53276	528.71068	102.53276
9150.00000	102.60706	525.86931	102.60706
9200.00000	102.65385	523.03209	102.65385
9250.00000	102.60626	520.03338	102.60626
9300.00000	102.65848	517.28580	102.65848
9350.00000	102.68802	514.18840	102.68802
9400.00000	102.68581	511.00072	102.68581
9450.00000	102.70641	507.63100	102.70641
9500.00000	102.69714	504.08483	102.69714
9550.00000	102.61956	500.57267	102.61956
9600.00000	102.53604	497.18201	102.53604
9650.00000	102.46277	493.87648	102.46277
9700.00000	102.35615	490.34839	102.35615
9750.00000	102.19415	486.94494	102.19415
9800.00000	101.97910	483.63525	101.97910
9850.00000	101.67764	480.50090	101.67764
9900.00000	101.31027	478.69476	101.31027
9950.00000	100.90118	478.54209	100.90118
10000.00000	100.99532	480.75243	100.99532
10050.00000	101.67021	480.01837	101.67021
10100.00000	102.18606	475.22410	102.18606
10150.00000	102.30664	469.91010	102.30664
10200.00000	102.26400	465.29042	102.26400
10250.00000	102.16846	461.24534	102.16846
10300.00000	102.06971	457.67200	102.06971
10350.00000	101.96723	454.05101	101.96723
10400.00000	101.82913	450.61930	101.82913
10450.00000	101.75748	447.12521	101.75748
10500.00000	101.68248	443.47499	101.68248
10550.00000	101.57598	440.54488	101.57598
10600.00000	101.54891	436.84322	101.54891
10650.00000	101.47548	433.52205	101.47548
10700.00000	101.44309	429.92200	101.44309
10750.00000	101.36737	426.51404	101.36737
10800.00000	101.34267	422.51537	101.34267
10850.00000	101.31492	418.69536	101.31492
10900.00000	101.25930	414.80264	101.25930
10950.00000	101.19855	410.85116	101.19855
11000.00000	101.14565	406.76252	101.14565
11050.00000	101.03094	402.76314	101.03094
11100.00000	100.96114	398.50111	100.96114
11150.00000	100.83283	394.15830	100.83283
11200.00000	100.73682	389.95365	100.73682
11250.00000	100.55195	385.18430	100.55195
11300.00000	100.38343	380.65372	100.38343
11350.00000	100.18020	375.82954	100.18020
11400.00000	99.95419	370.92469	99.95419
11450.00000	99.71098	366.11303	99.71098
11500.00000	99.44964	361.06761	99.44964
11550.00000	99.14686	356.02793	99.14686
11600.00000	98.78619	351.07875	98.78619
11650.00000	98.46619	346.14902	98.46619
11700.00000	98.14335	341.16390	98.14335
11750.00000	97.73778	336.33279	97.73778
11800.00000	97.38441	331.67851	97.38441
11850.00000	97.02143	326.98116	97.02143
11900.00000	96.57667	322.62852	96.57667
11950.00000	96.19502	318.17567	96.19502
12000.00000	95.86339	314.13113	95.86339
12050.00000	95.40254	310.14396	95.40254
12100.00000	94.94670	305.87939	94.94670
12150.00000	94.49855	301.92668	94.49855
12200.00000	94.06370	297.04369	94.06370
12250.00000	93.61540	292.92867	93.61540
12300.00000	93.00183	288.25180	93.00183
12350.00000	92.48586	283.89754	92.48586
12400.00000	91.90105	278.64004	91.90105
12450.00000	91.49065	273.79122	91.49065
12500.00000	91.02146	269.66118	91.02146
12550.00000	90.52182	264.74829	90.52182
12600.00000	90.15470	258.38726	90.15470
12650.00000	89.76387	252.96220	89.76387
12700.00000	89.16135	247.26898	89.16135
12750.00000	88.69294	242.48774	88.69294
12800.00000	88.23680	235.77699	88.23680
12850.00000	87.69486	231.46685	87.69486
12900.00000	87.24633	223.92893	87.24633
12950.00000	86.97384	217.90322	86.97384
13000.00000	86.58155	210.49351	86.58155
13050.00000	86.23839	203.55557	86.23839
13100.00000	86.02047	195.30218	86.02047
13150.00000	85.97595	188.30560	85.97595
13200.00000	85.97526	179.21059	85.97526
13250.00000	86.45096	169.71963	86.45096
13300.00000	87.15453	165.00012	87.15453
13350.00000	88.23190	158.73807	88.23190
13400.00000	89.30978	157.38428	89.30978
13450.00000	90.13413	161.75975	90.13413
13500.00000	89.96982	170.84124	89.96982
13550.00000	88.81151	173.88037	88.81151
13600.00000	87.24905	173.11332	87.24905
13650.00000	86.00954	167.61242	86.00954
13700.00000	84.87191	160.29985	84.87191
13750.00000	84.38130	148.70952	84.38130
13800.00000	84.48914	137.80786	84.48914
13850.00000	84.53150	124.65544	84.53150
13900.00000	85.02422	112.31629	85.02422
13950.00000	86.07253	102.73387	86.07253
14000.00000	87.63918	95.25676	87.63918
14050.00000	89.54075	91.84453	89.54075
14100.00000	91.77048	92.62151	91.77048
14150.00000	93.49153	101.79012	93.49153
14200.00000	93.58243	115.18760	93.58243
14250.00000	92.50682	123.59487	92.50682
14300.00000	91.18481	126.38721	91.18481
14350.00000	90.06177	122.40776	90.06177
14400.00000	89.60045	117.66436	89.60045
14450.00000	89.09293	111.36941	89.09293
14500.00000	88.83163	103.80332	88.83163
14550.00000	89.08366	96.11991	89.08366
14600.00000	89.35990	88.84899	89.35990
14650.00000	89.99203	82.77518	89.99203
14700.00000	90.77755	75.56894	90.77755
14750.00000	91.64598	70.30176	91.64598
14800.00000	92.65619	66.82356	92.65619
14850.00000	93.85609	64.55989	93.85609
14900.00000	95.07908	64.73801	95.07908
14950.00000	95.80726	66.18577	95.80726
15000.00000	96.09316	69.04365	96.09316
15050.00000	96.11180	72.07674	96.11180
15100.00000	95.90213	70.96420	95.90213
15150.00000	95.63666	69.34123	95.63666
15200.00000	95.56467	66.01691	95.56467
15250.00000	95.42929	61.73003	95.42929
15300.00000	95.36888	55.40941	95.36888
15350.00000	95.63048	49.75751	95.63048
15400.00000	95.90070	43.72790	95.90070
15450.00000	96.23244	38.38497	96.23244
15500.00000	96.81866	34.19874	96.81866
15550.00000	97.43730	30.50665	97.43730
15600.00000	98.15282	26.65445	98.15282
15650.00000	98.69578	24.26735	98.69578
15700.00000	98.99807	23.10518	98.99807
15750.00000	99.37264	21.99978	99.37264
15800.00000	99.38249	20.57656	99.38249
15850.00000	99.49188	19.21077	99.49188
15900.00000	99.41681	16.76677	99.41681
15950.00000	99.39665	13.25690	99.39665
16000.00000	99.42496	 9.16264	99.42496
16050.00000	99.57305	 5.16953	99.57305
16100.00000	99.67894	 0.77329	99.67894
16150.00000	99.95625	-3.97301	99.95625
16200.00000	100.25302	-7.48488	100.25302
16250.00000	100.51064	-11.83313	100.51064
16300.00000	100.82782	-15.15263	100.82782
16350.00000	101.20489	-18.29013	101.20489
16400.00000	101.39152	-20.91104	101.39152
16450.00000	101.59342	-23.17870	101.59342
16500.00000	101.66998	-26.07994	101.66998
16550.00000	101.72124	-28.85877	101.72124
16600.00000	101.78455	-31.87439	101.78455
16650.00000	101.77000	-35.36974	101.77000
16700.00000	101.79680	-38.83553	101.79680
16750.00000	101.92196	-42.94585	101.92196
16800.00000	101.95664	-46.25150	101.95664
16850.00000	102.14748	-50.32725	102.14748
16900.00000	102.22473	-53.56831	102.22473
16950.00000	102.33354	-57.22036	102.33354
17000.00000	102.45825	-60.08500	102.45825
17050.00000	102.50526	-62.78843	102.50526
17100.00000	102.60559	-65.38838	102.60559
17150.00000	102.63596	-67.99927	102.63596
17200.00000	102.60954	-70.63543	102.60954
17250.00000	102.63340	-73.58683	102.63340
17300.00000	102.64760	-76.87475	102.64760
17350.00000	102.69225	-80.08370	102.69225
17400.00000	102.68528	-83.24720	102.68528
17450.00000	102.70501	-86.07250	102.70501
17500.00000	102.75467	-89.31576	102.75467
17550.00000	102.80852	-92.17771	102.80852
17600.00000	102.88146	-95.03593	102.88146
17650.00000	102.94094	-97.36190	102.94094
17700.00000	103.00669	-99.81339	103.00669
17750.00000	103.05807	-102.27496	103.05807
17800.00000	103.14264	-104.84827	103.14264
17850.00000	103.18503	-107.16069	103.18503
17900.00000	103.23285	-109.80200	103.23285
17950.00000	103.28201	-112.67057	103.28201
18000.00000	103.36351	-115.20559	103.36351
18050.00000	103.42052	-118.05659	103.42052
18100.00000	103.49975	-120.87691	103.49975
18150.00000	103.57083	-123.73092	103.57083
18200.00000	103.63009	-126.60633	103.63009
18250.00000	103.69024	-129.49216	103.69024
18300.00000	103.76334	-132.33913	103.76334
18350.00000	103.82480	-135.27457	103.82480
18400.00000	103.89200	-138.17309	103.89200
18450.00000	103.96865	-141.04805	103.96865
18500.00000	103.99742	-143.81514	103.99742
18550.00000	104.06290	-146.88033	104.06290
18600.00000	104.07599	-149.65436	104.07599
18650.00000	104.15238	-152.76443	104.15238
18700.00000	104.18885	-155.49889	104.18885
18750.00000	104.21694	-158.55103	104.21694
18800.00000	104.22607	-161.51773	104.22607
18850.00000	104.24013	-164.27641	104.24013
18900.00000	104.22769	-167.08580	104.22769
18950.00000	104.21583	-170.14124	104.21583
19000.00000	104.21634	-173.14652	104.21634
19050.00000	104.22762	-176.03832	104.22762
19100.00000	104.22015	-178.82295	104.22015
19150.00000	104.22857	-181.54891	104.22857
19200.00000	104.24921	-184.47325	104.24921
19250.00000	104.21301	-186.98393	104.21301
19300.00000	104.23003	-189.71340	104.23003
19350.00000	104.22919	-192.71464	104.22919
19400.00000	104.17856	-195.13693	104.17856
19450.00000	104.18289	-197.92894	104.18289
19500.00000	104.19083	-200.42208	104.19083
19550.00000	104.18535	-203.13970	104.18535
19600.00000	104.16163	-205.75308	104.16163
19650.00000	104.14245	-208.25144	104.14245
19700.00000	104.17008	-211.03747	104.17008
19750.00000	104.16136	-213.50742	104.16136
19800.00000	104.19923	-215.84357	104.19923
19850.00000	104.17378	-218.64944	104.17378
19900.00000	104.18877	-221.13495	104.18877
19950.00000	104.18599	-223.64390	104.18599
20000.00000	104.16954	-226.69766	104.16954
20050.00000	104.19364	-229.14705	104.19364
20100.00000	104.20628	-231.87085	104.20628
20150.00000	104.22868	-234.59887	104.22868
20200.00000	104.22795	-237.22537	104.22795
20250.00000	104.24572	-239.55976	104.24572
20300.00000	104.23241	-242.33162	104.23241
20350.00000	104.23617	-244.77543	104.23617
20400.00000	104.23121	-247.50047	104.23121
20450.00000	104.24632	-250.14376	104.24632
20500.00000	104.25764	-252.96706	104.25764
20550.00000	104.24103	-255.63023	104.24103
20600.00000	104.24976	-258.21576	104.24976
20650.00000	104.26859	-261.05715	104.26859
20700.00000	104.28554	-263.47740	104.28554
20750.00000	104.25583	-266.14213	104.25583
20800.00000	104.25522	-268.78698	104.25522
20850.00000	104.26763	-271.72037	104.26763
20900.00000	104.23020	-274.13416	104.23020
20950.00000	104.25616	-277.06934	104.25616
21000.00000	104.28593	-280.01697	104.28593
21050.00000	104.26826	-282.59759	104.26826
21100.00000	104.27156	-285.42975	104.27156
21150.00000	104.26379	-287.99000	104.26379
21200.00000	104.26841	-290.49422	104.26841
21250.00000	104.20289	-293.14003	104.20289
21300.00000	104.22799	-296.14638	104.22799
21350.00000	104.20233	-298.90091	104.20233
21400.00000	104.15920	-301.76032	104.15920
21450.00000	104.24106	-304.55065	104.24106
21500.00000	104.23078	-307.06801	104.23078
21550.00000	104.25523	-309.89198	104.25523
21600.00000	104.26083	-312.98272	104.26083
21650.00000	104.26466	-315.56333	104.26466
21700.00000	104.19606	-318.89323	104.19606
21750.00000	104.21933	-321.93586	104.21933
21800.00000	104.17044	-325.16651	104.17044
21850.00000	104.18153	-328.12940	104.18153
21900.00000	104.13124	-331.32946	104.13124
21950.00000	104.10129	-334.30164	104.10129
22000.00000	103.98905	-337.42635	103.98905
22050.00000	103.89262	-340.14020	103.89262
22100.00000	103.86474	-342.89403	103.86474
22150.00000	103.82521	-345.76426	103.82521
22200.00000	103.75235	-348.80210	103.75235
22250.00000	103.72706	-351.85982	103.72706
22300.00000	103.64092	-354.73842	103.64092
22350.00000	103.53525	-357.92636	103.53525
22400.00000	103.45825	-361.20651	103.45825
22450.00000	103.36722	-363.91890	103.36722
22500.00000	103.27189	-366.93562	103.27189
22550.00000	103.19826	-370.12304	103.19826
22600.00000	103.06856	-372.85660	103.06856
22650.00000	102.97450	-375.48909	102.97450
22700.00000	102.85716	-378.43508	102.85716
22750.00000	102.72124	-381.51863	102.72124
22800.00000	102.61154	-384.16011	102.61154
22850.00000	102.45031	-386.94320	102.45031
22900.00000	102.42180	-389.16962	102.42180
22950.00000	102.28339	-392.33621	102.28339
23000.00000	102.19319	-394.72188	102.19319
23050.00000	102.07578	-397.77607	102.07578
23100.00000	101.96948	-400.44226	101.96948
23150.00000	101.78985	-403.14515	101.78985
23200.00000	101.68741	-406.64983	101.68741
23250.00000	101.58864	-409.13829	101.58864
23300.00000	101.53324	-412.26618	101.53324
23350.00000	101.32044	-414.71809	101.32044
23400.00000	101.19287	-417.45791	101.19287
23450.00000	101.02546	-420.13127	101.02546
23500.00000	100.91297	-422.76350	100.91297
23550.00000	100.71565	-425.49236	100.71565
23600.00000	100.61792	-428.29190	100.61792
23650.00000	100.37211	-430.74648	100.37211
23700.00000	100.31784	-433.17581	100.31784
23750.00000	100.17614	-436.25067	100.17614
23800.00000	99.91700	-438.90084	99.91700
23850.00000	99.79946	-441.61344	99.79946
23900.00000	99.64775	-444.28229	99.64775
23950.00000	99.42205	-446.53364	99.42205
24000.00000	99.31473	-449.06213	99.31473
24050.00000	99.03648	-452.16749	99.03648
24100.00000	98.88192	-455.01144	98.88192
24150.00000	98.61945	-456.98308	98.61945
24200.00000	98.41682	-459.87726	98.41682
24250.00000	98.24172	-462.07259	98.24172
24300.00000	98.00387	-465.01495	98.00387
24350.00000	97.79843	-466.77880	97.79843
24400.00000	97.56742	-469.10839	97.56742
24450.00000	97.35124	-471.03055	97.35124
24500.00000	97.03511	-473.70699	97.03511
24550.00000	96.86311	-476.49697	96.86311
24600.00000	96.63117	-478.59253	96.63117
24650.00000	96.37448	-481.12094	96.37448
24700.00000	96.19280	-482.61917	96.19280
24750.00000	95.92606	-485.21750	95.92606
24800.00000	95.60799	-486.69086	95.60799
24850.00000	95.38453	-488.76650	95.38453
24900.00000	95.08815	-489.78940	95.08815
24950.00000	94.88760	-491.53950	94.88760
25000.00000	94.68854	-493.98668	94.68854
25050.00000	94.41385	-495.55899	94.41385
25100.00000	94.18279	-496.07024	94.18279
25150.00000	93.92034	-497.90948	93.92034
25200.00000	93.63449	-499.04876	93.63449
25250.00000	93.34302	-500.98956	93.34302
25300.00000	93.09824	-501.54405	93.09824
25350.00000	92.99886	-503.23854	92.99886
25400.00000	92.80198	-503.65564	92.80198
25450.00000	92.71300	-506.13172	92.71300
25500.00000	92.42080	-507.04999	92.42080
25550.00000	92.22813	-508.68378	92.22813
25600.00000	92.02285	-508.96830	92.02285
25650.00000	91.86338	-510.85702	91.86338
25700.00000	91.70922	-511.53530	91.70922
25750.00000	91.43937	-512.66453	91.43937
25800.00000	91.31535	-512.83998	91.31535
25850.00000	91.22216	-514.16690	91.22216
25900.00000	91.04217	-515.58133	91.04217
25950.00000	90.90260	-516.01516	90.90260
26000.00000	90.83728	-517.18223	90.83728
26050.00000	90.80025	-518.65159	90.80025
26100.00000	90.62388	-518.95888	90.62388
26150.00000	90.54375	-520.33631	90.54375
26200.00000	90.41339	-521.01235	90.41339
26250.00000	90.38816	-522.60341	90.38816
26300.00000	90.32047	-523.65751	90.32047
26350.00000	90.31084	-524.88893	90.31084
26400.00000	90.22130	-526.39133	90.22130
26450.00000	90.06547	-527.97995	90.06547
26500.00000	89.96585	-529.50369	89.96585
26550.00000	89.89927	-530.33310	89.89927
26600.00000	89.83529	-531.70142	89.83529
26650.00000	89.71965	-533.51177	89.71965
26700.00000	89.65067	-534.25286	89.65067
26750.00000	89.47483	-535.61998	89.47483
26800.00000	89.37376	-536.95283	89.37376
26850.00000	89.24841	-538.21382	89.24841
26900.00000	89.12628	-540.19872	89.12628
26950.00000	89.06142	-542.03833	89.06142
27000.00000	88.83085	-542.98740	88.83085
27050.00000	88.78237	-543.53437	88.78237
27100.00000	88.57482	-545.44194	88.57482
27150.00000	88.42968	-546.00509	88.42968
27200.00000	88.37262	-547.97118	88.37262
27250.00000	88.22755	-548.42143	88.22755
27300.00000	88.00157	-549.16590	88.00157
27350.00000	87.99811	-550.02637	87.99811
27400.00000	87.87776	-550.89954	87.87776
27450.00000	87.83744	-552.60577	87.83744
27500.00000	87.56541	-552.99585	87.56541
27550.00000	87.36622	-553.77585	87.36622
27600.00000	87.39900	-554.81575	87.39900
27650.00000	87.11179	-556.47702	87.11179
27700.00000	87.08534	-556.54465	87.08534
27750.00000	86.86917	-556.70800	86.86917
27800.00000	86.85477	-558.07922	86.85477
27850.00000	86.92432	-558.80420	86.92432
27900.00000	86.76131	-559.97516	86.76131
27950.00000	86.63948	-559.28162	86.63948
28000.00000	86.59089	-560.23472	86.59089
28050.00000	86.36804	-560.23323	86.36804
28100.00000	86.32194	-560.36864	86.32194
28150.00000	86.29404	-561.43868	86.29404
28200.00000	86.37074	-561.27250	86.37074
28250.00000	86.36661	-561.78000	86.36661
28300.00000	86.21390	-562.64009	86.21390
28350.00000	86.20945	-563.10359	86.20945
28400.00000	86.13875	-563.75255	86.13875
28450.00000	86.10047	-563.55486	86.10047
28500.00000	86.05973	-563.83111	86.05973
28550.00000	86.19906	-564.86484	86.19906
28600.00000	86.28112	-565.05802	86.28112
28650.00000	86.27906	-565.07374	86.27906
28700.00000	86.30888	-566.35088	86.30888
28750.00000	86.33285	-566.56961	86.33285
28800.00000	86.24626	-567.09871	86.24626
28850.00000	86.31956	-567.81139	86.31956
28900.00000	86.38745	-568.05671	86.38745
28950.00000	86.43669	-569.07362	86.43669
29000.00000	86.46963	-569.82651	86.46963
29050.00000	86.59450	-570.10156	86.59450
29100.00000	86.67900	-570.26946	86.67900
29150.00000	86.73870	-572.05660	86.73870
29200.00000	86.86930	-572.24486	86.86930
29250.00000	86.76170	-572.54230	86.76170
29300.00000	86.95499	-572.97277	86.95499
29350.00000	87.08491	-574.61723	87.08491
29400.00000	87.04460	-575.87101	87.04460
29450.00000	87.20469	-576.05797	87.20469
29500.00000	87.21707	-577.19829	87.21707
29550.00000	87.45532	-577.58416	87.45532
29600.00000	87.43151	-579.25830	87.43151
29650.00000	87.42403	-580.00812	87.42403
29700.00000	87.54365	-580.45704	87.54365
29750.00000	87.63926	-582.13202	87.63926
29800.00000	87.66247	-582.44073	87.66247
29850.00000	87.83967	-583.69412	87.83967
29900.00000	87.89568	-584.48409	87.89568
29950.00000	87.93831	-585.30555	87.93831
30000.00000	88.06379	-586.78772	88.06379
30050.00000	88.14345	-587.10879	88.14345
30100.00000	88.26778	-588.09225	88.26778
30150.00000	88.31313	-589.35127	88.31313
30200.00000	88.46954	-590.19057	88.46954
30250.00000	88.52566	-591.09096	88.52566
30300.00000	88.59044	-592.43888	88.59044
30350.00000	88.80275	-593.49481	88.80275
30400.00000	88.80642	-594.05390	88.80642
30450.00000	88.97855	-595.38172	88.97855
30500.00000	89.10804	-596.46147	89.10804
30550.00000	89.17626	-597.14039	89.17626
30600.00000	89.34644	-598.68043	89.34644
30650.00000	89.38348	-599.26075	89.38348
30700.00000	89.55977	-600.78975	89.55977
30750.00000	89.67742	-601.94441	89.67742
30800.00000	89.72806	-602.42113	89.72806
30850.00000	89.89240	-603.66370	89.89240
30900.00000	89.94751	-604.75861	89.94751
30950.00000	90.15757	-606.02618	90.15757
31000.00000	90.29379	-606.42259	90.29379
31050.00000	90.43728	-608.07257	90.43728
31100.00000	90.52646	-609.42760	90.52646
31150.00000	90.69968	-610.31082	90.69968
31200.00000	90.84802	-611.38719	90.84802
31250.00000	91.04473	-612.34996	91.04473
31300.00000	91.17098	-613.80932	91.17098
31350.00000	91.32161	-615.16309	91.32161
31400.00000	91.44477	-616.53476	91.44477
31450.00000	91.65971	-617.52181	91.65971
31500.00000	91.79419	-618.99883	91.79419
31550.00000	91.93343	-620.28683	91.93343
31600.00000	92.19988	-622.02911	92.19988
31650.00000	92.33830	-623.99905	92.33830
31700.00000	92.46692	-625.06355	92.46692
31750.00000	92.55196	-626.65600	92.55196
31800.00000	92.72957	-628.47592	92.72957
31850.00000	92.92780	-630.04403	92.92780
31900.00000	93.02786	-631.78128	93.02786
31950.00000	93.23055	-633.82363	93.23055
32000.00000	93.35622	-635.13384	93.35622
32050.00000	93.46138	-636.84112	93.46138
32100.00000	93.61573	-638.93351	93.61573
32150.00000	93.70349	-640.48646	93.70349
32200.00000	93.86768	-642.09337	93.86768
32250.00000	93.99861	-643.98920	93.99861
32300.00000	94.04944	-645.75404	94.04944
32350.00000	94.19975	-647.49523	94.19975
32400.00000	94.26426	-649.20526	94.26426
32450.00000	94.41591	-651.17895	94.41591
32500.00000	94.47683	-652.50060	94.47683
32550.00000	94.56365	-654.46351	94.56365
32600.00000	94.68612	-656.25047	94.68612
32650.00000	94.73572	-658.09890	94.73572
32700.00000	94.76581	-659.74599	94.76581
32750.00000	94.86561	-660.90447	94.86561
32800.00000	94.92026	-662.46839	94.92026
32850.00000	95.02598	-664.32088	95.02598
32900.00000	95.04038	-665.44023	95.04038
32950.00000	95.19262	-666.97188	95.19262
33000.00000	95.26216	-668.53390	95.26216
33050.00000	95.35768	-669.40728	95.35768
33100.00000	95.42814	-670.75963	95.42814
33150.00000	95.54371	-672.20569	95.54371
33200.00000	95.68604	-673.26448	95.68604
33250.00000	95.78142	-674.60270	95.78142
33300.00000	95.88771	-675.93350	95.88771
33350.00000	95.97729	-676.71241	95.97729
33400.00000	96.12168	-678.10241	96.12168
33450.00000	96.28602	-679.47020	96.28602
33500.00000	96.43165	-680.68975	96.43165
33550.00000	96.57530	-682.15932	96.57530
33600.00000	96.72298	-683.07714	96.72298
33650.00000	96.84617	-684.86176	96.84617
33700.00000	97.05078	-686.00365	97.05078
33750.00000	97.21055	-687.03381	97.21055
33800.00000	97.39678	-688.20236	97.39678
33850.00000	97.55802	-689.49022	97.55802
33900.00000	97.80782	-690.59727	97.80782
33950.00000	97.97985	-692.29825	97.97985
34000.00000	98.21713	-693.60781	98.21713
34050.00000	98.38229	-694.58935	98.38229
34100.00000	98.62638	-696.35669	98.62638
34150.00000	98.81813	-697.67477	98.81813
34200.00000	99.05521	-699.10786	99.05521
34250.00000	99.26381	-700.62730	99.26381
34300.00000	99.50658	-702.17907	99.50658
34350.00000	99.74102	-703.72567	99.74102
34400.00000	99.97907	-705.60310	99.97907
34450.00000	100.16955	-707.17678	100.16955
34500.00000	100.39278	-708.58760	100.39278
34550.00000	100.65774	-710.35940	100.65774
34600.00000	100.95088	-711.97491	100.95088
34650.00000	101.22527	-713.73082	101.22527
34700.00000	101.48425	-715.70699	101.48425
34750.00000	101.75082	-717.70978	101.75082
34800.00000	102.04450	-719.50567	102.04450
34850.00000	102.35676	-721.96669	102.35676
34900.00000	102.62555	-724.15412	102.62555
34950.00000	102.91528	-726.83389	102.91528
35000.00000	103.17022	-729.33755	103.17022
35050.00000	103.37650	-731.85339	103.37650
35100.00000	103.47837	-734.38145	103.47837
35150.00000	103.61213	-736.33072	103.61213
35200.00000	103.86631	-737.95067	103.86631
35250.00000	104.15484	-739.61369	104.15484
35300.00000	104.44418	-741.59309	104.44418
35350.00000	104.76192	-743.65205	104.76192
35400.00000	105.10118	-746.42568	105.10118
35450.00000	105.37639	-749.16603	105.37639
35500.00000	105.69187	-752.07021	105.69187
35550.00000	105.95011	-755.12117	105.95011
35600.00000	106.20247	-757.96771	106.20247
35650.00000	106.41256	-760.90643	106.41256
35700.00000	106.64525	-764.06382	106.64525
35750.00000	106.88954	-767.00990	106.88954
35800.00000	107.10530	-770.27852	107.10530
35850.00000	107.32902	-773.36191	107.32902
35900.00000	107.50572	-776.56591	107.50572
35950.00000	107.68338	-779.87241	107.68338
36000.00000	107.84034	-782.82402	107.84034
36050.00000	108.00833	-786.27910	108.00833
36100.00000	108.13294	-789.59679	108.13294
36150.00000	108.26734	-792.76494	108.26734
36200.00000	108.40012	-796.12799	108.40012
36250.00000	108.50299	-799.20033	108.50299
36300.00000	108.56511	-802.51327	108.56511
36350.00000	108.66423	-805.88193	108.66423
36400.00000	108.73830	-808.88693	108.73830
36450.00000	108.77997	-811.98465	108.77997
36500.00000	108.85960	-814.79965	108.85960
36550.00000	108.91528	-817.82189	108.91528
36600.00000	108.94448	-820.91777	108.94448
36650.00000	108.96781	-823.56346	108.96781
36700.00000	108.99643	-826.30581	108.99643
36750.00000	109.00648	-828.90820	109.00648
36800.00000	109.01323	-831.51240	109.01323
36850.00000	109.02142	-834.01455	109.02142
36900.00000	109.02601	-836.35279	109.02601
36950.00000	109.06540	-838.60148	109.06540
37000.00000	109.09014	-840.82896	109.09014
37050.00000	109.09657	-842.91935	109.09657
37100.00000	109.10655	-844.74141	109.10655
37150.00000	109.16801	-846.74820	109.16801
37200.00000	109.19691	-848.44591	109.19691
37250.00000	109.24819	-850.08075	109.24819
37300.00000	109.32889	-851.54257	109.32889
37350.00000	109.40122	-853.07837	109.40122
37400.00000	109.49924	-854.51602	109.49924
37450.00000	109.62053	-855.64062	109.62053
37500.00000	109.76556	-856.53536	109.76556
37550.00000	109.97392	-857.58229	109.97392
37600.00000	110.21644	-858.49985	110.21644
37650.00000	110.49823	-859.49786	110.49823
37700.00000	110.82344	-860.32672	110.82344
37750.00000	111.22450	-861.38735	111.22450
37800.00000	111.66853	-862.74000	111.66853
37850.00000	112.17906	-864.23721	112.17906
37900.00000	112.71239	-866.41396	112.71239
37950.00000	113.27436	-868.97245	113.27436
38000.00000	113.85903	-871.97698	113.85903
38050.00000	114.40703	-875.49435	114.40703
38100.00000	114.92866	-879.31469	114.92866
38150.00000	115.42713	-883.51988	115.42713
38200.00000	115.88668	-888.09949	115.88668
38250.00000	116.28642	-892.84551	116.28642
38300.00000	116.66652	-897.69614	116.66652
38350.00000	116.99680	-902.60503	116.99680
38400.00000	117.29368	-907.63912	117.29368
38450.00000	117.56998	-912.71778	117.56998
38500.00000	117.81069	-917.73393	117.81069
38550.00000	118.02473	-922.95150	118.02473
38600.00000	118.20532	-928.04748	118.20532
38650.00000	118.35937	-933.25617	118.35937
38700.00000	118.50426	-938.31489	118.50426
38750.00000	118.61102	-943.38594	118.61102
38800.00000	118.70329	-948.46972	118.70329
38850.00000	118.76913	-953.46070	118.76913
38900.00000	118.82215	-958.38266	118.82215
38950.00000	118.86607	-963.31865	118.86607
39000.00000	118.90151	-968.20947	118.90151
39050.00000	118.91439	-973.17570	118.91439
39100.00000	118.92838	-978.06882	118.92838
39150.00000	118.91096	-982.90769	118.91096
39200.00000	118.87836	-987.80961	118.87836
39250.00000	118.83373	-992.55229	118.83373
39300.00000	118.77864	-997.22469	118.77864
39350.00000	118.72100	-1001.84349	118.72100
39400.00000	118.66539	-1006.54608	118.66539
39450.00000	118.60034	-1011.17423	118.60034
39500.00000	118.51260	-1015.88802	118.51260
39550.00000	118.43016	-1020.53419	118.43016
39600.00000	118.33135	-1025.26999	118.33135
39650.00000	118.20182	-1030.02720	118.20182
39700.00000	118.05325	-1034.77270	118.05325
39750.00000	117.88361	-1039.38530	117.88361
39800.00000	117.69536	-1044.05262	117.69536
39850.00000	117.48672	-1048.64704	117.48672
39900.00000	117.24801	-1053.01980	117.24801
39950.00000	117.00657	-1057.38646	117.00657
40000.00000	116.74410	-1061.62144	116.74410
40050.00000	116.47221	-1065.75747	116.47221
40100.00000	116.18867	-1069.81437	116.18867
40150.00000	115.90159	-1073.75456	115.90159
40200.00000	115.59922	-1077.54601	115.59922
40250.00000	115.29034	-1081.19278	115.29034
40300.00000	114.95753	-1084.67271	114.95753
40350.00000	114.64742	-1088.02642	114.64742
40400.00000	114.30482	-1091.35862	114.30482
40450.00000	113.97899	-1094.55523	113.97899
40500.00000	113.65187	-1097.49213	113.65187
40550.00000	113.30470	-1100.47354	113.30470
40600.00000	112.96575	-1103.09471	112.96575
40650.00000	112.63744	-1105.74647	112.63744
40700.00000	112.29504	-1108.40239	112.29504
40750.00000	111.94776	-1110.76674	111.94776
40800.00000	111.61724	-1113.01922	111.61724
40850.00000	111.28342	-1115.11756	111.28342
40900.00000	110.99692	-1116.91725	110.99692
40950.00000	110.69517	-1118.74278	110.69517
41000.00000	110.43067	-1120.49058	110.43067
41050.00000	110.13904	-1122.14485	110.13904
41100.00000	109.90547	-1123.70890	109.90547
41150.00000	109.66057	-1125.07385	109.66057
41200.00000	109.45094	-1126.56479	109.45094
41250.00000	109.23603	-1127.92124	109.23603
41300.00000	109.03923	-1129.21397	109.03923
41350.00000	108.86410	-1130.27637	108.86410
41400.00000	108.71408	-1131.66436	108.71408
41450.00000	108.57802	-1132.88230	108.57802
41500.00000	108.44879	-1133.83934	108.44879
41550.00000	108.34066	-1134.99170	108.34066
41600.00000	108.27745	-1136.19406	108.27745
41650.00000	108.20378	-1137.26385	108.20378
41700.00000	108.20085	-1138.54764	108.20085
41750.00000	108.19456	-1139.81025	108.19456
41800.00000	108.17970	-1141.17825	108.17970
41850.00000	108.19824	-1143.02388	108.19824
41900.00000	108.23771	-1144.78392	108.23771
41950.00000	108.23612	-1146.73039	108.23612
42000.00000	108.27005	-1148.52457	108.27005
42050.00000	108.26727	-1150.79300	108.26727
42100.00000	108.28790	-1152.97020	108.28790
42150.00000	108.27939	-1155.13152	108.27939
42200.00000	108.26810	-1157.53467	108.26810
42250.00000	108.25191	-1159.73351	108.25191
42300.00000	108.24154	-1161.98494	108.24154
42350.00000	108.18402	-1164.60411	108.18402
42400.00000	108.10906	-1166.95698	108.10906
42450.00000	107.99212	-1169.56304	107.99212
42500.00000	107.88961	-1171.62969	107.88961
42550.00000	107.82516	-1173.89001	107.82516
42600.00000	107.69823	-1176.12971	107.69823
42650.00000	107.58414	-1178.44917	107.58414
42700.00000	107.43370	-1180.22694	107.43370
42750.00000	107.34566	-1182.54835	107.34566
42800.00000	107.23907	-1184.21209	107.23907
42850.00000	107.15960	-1186.10596	107.15960
42900.00000	107.03227	-1187.99269	107.03227
42950.00000	106.91762	-1189.64016	106.91762
43000.00000	106.84078	-1191.30199	106.84078
43050.00000	106.71455	-1192.81812	106.71455
43100.00000	106.67251	-1194.75628	106.67251
43150.00000	106.59887	-1195.85067	106.59887
43200.00000	106.51125	-1197.53156	106.51125
43250.00000	106.45406	-1198.73176	106.45406
43300.00000	106.43568	-1200.03828	106.43568
43350.00000	106.30185	-1201.42975	106.30185
43400.00000	106.28884	-1202.95655	106.28884
43450.00000	106.26987	-1204.50252	106.26987
43500.00000	106.21475	-1205.64319	106.21475
43550.00000	106.24623	-1206.91765	106.24623
43600.00000	106.18668	-1208.07428	106.18668
43650.00000	106.23321	-1209.74443	106.23321
43700.00000	106.21866	-1210.90684	106.21866
43750.00000	106.22421	-1212.90943	106.22421
43800.00000	106.27265	-1214.49355	106.27265
43850.00000	106.19077	-1216.11403	106.19077
43900.00000	106.26690	-1217.90566	106.26690
43950.00000	106.30829	-1219.06914	106.30829
44000.00000	106.33589	-1220.69976	106.33589
44050.00000	106.33380	-1222.36983	106.33380
44100.00000	106.44553	-1223.30881	106.44553
44150.00000	106.51259	-1224.99882	106.51259
44200.00000	106.53023	-1226.44099	106.53023
44250.00000	106.63544	-1227.97509	106.63544
44300.00000	106.65832	-1229.51377	106.65832
44350.00000	106.79174	-1230.93073	106.79174
44400.00000	106.83201	-1232.41901	106.83201
44450.00000	106.93368	-1234.39043	106.93368
44500.00000	106.98600	-1235.29499	106.98600
44550.00000	107.08590	-1236.97625	107.08590
44600.00000	107.17916	-1238.48998	107.17916
44650.00000	107.21258	-1240.49568	107.21258
44700.00000	107.39414	-1241.62366	107.39414
44750.00000	107.45805	-1243.31993	107.45805
44800.00000	107.60032	-1245.08776	107.60032
44850.00000	107.74383	-1246.99568	107.74383
44900.00000	107.88383	-1248.89491	107.88383
44950.00000	108.02369	-1250.65204	108.02369
45000.00000	108.17954	-1252.39954	108.17954
45050.00000	108.38879	-1254.72840	108.38879
45100.00000	108.49018	-1256.64220	108.49018
45150.00000	108.65357	-1258.60748	108.65357
45200.00000	108.90263	-1260.38701	108.90263
45250.00000	109.08649	-1262.45909	109.08649
45300.00000	109.25367	-1264.68665	109.25367
45350.00000	109.49150	-1266.45624	109.49150
45400.00000	109.70838	-1268.86331	109.70838
45450.00000	109.91912	-1271.42536	109.91912
45500.00000	110.12724	-1273.65971	110.12724
45550.00000	110.38425	-1276.28182	110.38425
45600.00000	110.59252	-1278.96204	110.59252
45650.00000	110.88758	-1281.59311	110.88758
45700.00000	111.12654	-1284.56415	111.12654
45750.00000	111.39125	-1287.59582	111.39125
45800.00000	111.62862	-1291.17668	111.62862
45850.00000	111.84400	-1294.79680	111.84400
45900.00000	112.07284	-1299.10603	112.07284
45950.00000	112.25799	-1302.93622	112.25799
46000.00000	112.40905	-1306.86280	112.40905
46050.00000	112.51376	-1311.16537	112.51376
46100.00000	112.64887	-1315.17200	112.64887
46150.00000	112.72582	-1319.42797	112.72582
46200.00000	112.77788	-1323.69856	112.77788
46250.00000	112.83945	-1327.95136	112.83945
46300.00000	112.84621	-1331.90905	112.84621
46350.00000	112.83996	-1335.71391	112.83996
46400.00000	112.76332	-1340.53060	112.76332
46450.00000	112.72988	-1344.13052	112.72988
46500.00000	112.66182	-1347.93857	112.66182
46550.00000	112.56123	-1351.79804	112.56123
46600.00000	112.42677	-1355.99653	112.42677
46650.00000	112.33910	-1359.01154	112.33910
46700.00000	112.22897	-1362.64229	112.22897
46750.00000	112.08791	-1366.17747	112.08791
46800.00000	112.04580	-1369.53249	112.04580
46850.00000	111.91771	-1372.94022	111.91771
46900.00000	111.76965	-1376.38610	111.76965
46950.00000	111.66213	-1379.64963	111.66213
47000.00000	111.49951	-1383.22051	111.49951
47050.00000	111.37923	-1386.35198	111.37923
47100.00000	111.27290	-1388.91568	111.27290
47150.00000	111.08881	-1391.73300	111.08881
47200.00000	110.99164	-1395.15271	110.99164
47250.00000	110.85398	-1397.66600	110.85398
47300.00000	110.79014	-1400.42004	110.79014
47350.00000	110.71470	-1403.30762	110.71470
47400.00000	110.48374	-1406.58694	110.48374
47450.00000	110.40897	-1409.02474	110.40897
47500.00000	110.28809	-1411.31646	110.28809
47550.00000	110.17095	-1414.25601	110.17095
47600.00000	110.01969	-1417.31227	110.01969
47650.00000	109.98569	-1419.55773	109.98569
47700.00000	109.83320	-1422.64909	109.83320
47750.00000	109.75666	-1424.99783	109.75666
47800.00000	109.67190	-1427.93573	109.67190
47850.00000	109.63201	-1430.08711	109.63201
47900.00000	109.55248	-1432.78043	109.55248
47950.00000	109.50378	-1435.34354	109.50378
48000.00000	109.38373	-1438.73111	109.38373
48050.00000	109.39849	-1440.69732	109.39849
48100.00000	109.27230	-1443.81948	109.27230
48150.00000	109.30922	-1446.43630	109.30922
48200.00000	109.14637	-1449.50016	109.14637
48250.00000	109.14447	-1452.17555	109.14447
48300.00000	109.15775	-1455.36363	109.15775
48350.00000	109.13685	-1458.46324	109.13685
48400.00000	108.94994	-1461.64563	108.94994
48450.00000	108.90009	-1464.63771	108.90009
48500.00000	108.84531	-1467.74666	108.84531
48550.00000	108.70245	-1470.42602	108.70245
48600.00000	108.58447	-1475.22037	108.58447
48650.00000	108.50868	-1478.08326	108.50868
48700.00000	108.39085	-1481.68930	108.39085
48750.00000	108.25936	-1485.78413	108.25936
48800.00000	107.96349	-1488.51945	107.96349
48850.00000	107.72902	-1492.84214	107.72902
48900.00000	107.68250	-1135.99917	107.68250
48950.00000	107.20423	-1139.28351	107.20423
49000.00000	106.93607	-783.41756	106.93607
49050.00000	106.67402	-786.68062	106.67402
49100.00000	106.28463	-788.56992	106.28463
49150.00000	105.90050	-432.25997	105.90050
49200.00000	105.44993	-74.67931	105.44993
49250.00000	105.24090	-76.45615	105.24090
49300.00000	104.81428	-77.99764	104.81428
49350.00000	104.44065	-79.71922	104.44065
49400.00000	103.95313	-82.24004	103.95313
49450.00000	103.70345	-83.07289	103.70345
49500.00000	103.31753	-83.22102	103.31753
49550.00000	103.01208	275.23360	103.01208
49600.00000	102.83764	634.61164	102.83764
49650.00000	102.66166	992.23247	102.66166
49700.00000	102.30453	1351.57085	102.30453
49750.00000	102.21005	1711.77793	102.21005
49800.00000	101.91271	1711.64206	101.91271
49850.00000	101.75734	2428.93105	101.75734
49900.00000	101.78770	2428.96427	101.78770
49950.00000	101.55880	2788.87827	101.55880
50000.00000	101.60604	2788.33178	101.60604
50050.00000	101.42250	2787.55713	101.42250
50100.00000	101.33590	2786.25309	101.33590
50150.00000	101.36837	2785.21616	101.36837
50200.00000	101.39412	2784.69420	101.39412
50250.00000	101.29982	2783.69757	101.29982
50300.00000	101.34855	2782.13723	101.34855
50350.00000	101.25151	2781.28550	101.25151
50400.00000	101.36546	2780.48338	101.36546
50450.00000	101.34171	2778.79012	101.34171
50500.00000	101.41595	2778.16876	101.41595
50550.00000	101.33910	2775.74095	101.33910
50600.00000	101.52132	2774.27861	101.52132
50650.00000	101.65257	2773.45229	101.65257
50700.00000	101.52368	2770.66668	101.52368
50750.00000	101.53889	2769.33823	101.53889
50800.00000	101.53754	2767.68860	101.53754
50850.00000	101.64092	2765.40349	101.64092
50900.00000	101.52848	2762.61239	101.52848
50950.00000	101.67026	2760.98844	101.67026
51000.00000	101.74688	2758.40466	101.74688
51050.00000	101.75745	2756.92861	101.75745
51100.00000	101.65574	2754.18213	101.65574
51150.00000	101.65343	2751.14015	101.65343
51200.00000	101.59682	2749.12007	101.59682
51250.00000	101.55056	2747.05476	101.55056
51300.00000	101.62228	2744.47008	101.62228
51350.00000	101.50528	2743.32991	101.50528
51400.00000	101.44643	2739.73308	101.44643
51450.00000	101.36633	2737.55158	101.36633
51500.00000	101.29244	2734.52288	101.29244
51550.00000	101.12287	2732.84460	101.12287
51600.00000	100.92946	2729.90222	100.92946
51650.00000	100.71837	2728.18307	100.71837
51700.00000	100.54975	2726.12030	100.54975
51750.00000	100.28150	2724.16586	100.28150
51800.00000	100.32192	2722.20302	100.32192
51850.00000	100.16368	2719.50072	100.16368
51900.00000	99.70555	2718.04979	99.70555
51950.00000	99.48332	2716.65742	99.48332
52000.00000	99.32047	2715.76263	99.32047
52050.00000	99.04870	2713.94830	99.04870
52100.00000	98.90502	2713.96909	98.90502
52150.00000	98.62795	2714.12096	98.62795
52200.00000	98.59772	2712.62572	98.59772
52250.00000	98.40285	2711.59603	98.40285
52300.00000	98.25040	2713.06736	98.25040
52350.00000	98.19971	2712.73132	98.19971
52400.00000	98.04173	2710.44555	98.04173
52450.00000	98.11977	2711.16511	98.11977
52500.00000	98.22567	2711.01969	98.22567
52550.00000	98.08146	2710.34619	98.08146
52600.00000	97.97651	2709.74988	97.97651
52650.00000	98.25160	2709.72950	98.25160
52700.00000	98.31921	2709.22860	98.31921
52750.00000	98.60886	2709.24603	98.60886
52800.00000	98.58845	2708.13410	98.58845
52850.00000	98.62302	2706.75793	98.62302
52900.00000	98.87950	2705.83774	98.87950
52950.00000	98.98717	2705.20128	98.98717
53000.00000	98.97200	2702.91763	98.97200
53050.00000	99.11210	2702.50404	99.11210
53100.00000	99.39434	2700.34463	99.39434
53150.00000	99.53481	2699.57348	99.53481
53200.00000	99.43976	2697.46474	99.43976
53250.00000	99.73407	2696.88758	99.73407
53300.00000	99.86993	2694.04924	99.86993
53350.00000	99.68928	2693.39392	99.68928
53400.00000	100.06992	2691.89418	100.06992
53450.00000	100.19480	2688.83406	100.19480
53500.00000	100.46904	2687.83333	100.46904
53550.00000	100.57996	2685.10302	100.57996
53600.00000	100.58328	2683.15430	100.58328
53650.00000	100.76526	2680.84456	100.76526
53700.00000	100.85689	2678.85663	100.85689
53750.00000	100.93041	2676.55759	100.93041
53800.00000	101.04991	2674.64818	101.04991
53850.00000	101.17496	2672.65441	101.17496
53900.00000	101.21615	2669.79912	101.21615
53950.00000	101.37493	2667.22662	101.37493
54000.00000	101.26945	2665.51658	101.26945
54050.00000	101.37962	2662.81612	101.37962
54100.00000	101.37766	2659.97031	101.37766
54150.00000	101.43623	2657.37312	101.43623
54200.00000	101.23969	2655.77176	101.23969
54250.00000	101.34172	2652.70464	101.34172
54300.00000	101.25940	2650.91171	101.25940
54350.00000	101.44563	2649.03111	101.44563
54400.00000	101.59395	2647.99357	101.59395
54450.00000	101.41036	2645.37091	101.41036
54500.00000	101.35482	2643.31644	101.35482
54550.00000	101.23425	2641.32403	101.23425
54600.00000	101.14582	2640.61157	101.14582
54650.00000	101.15943	2637.66720	101.15943
54700.00000	101.16759	2636.24389	101.16759
54750.00000	101.26318	2635.32450	101.26318
54800.00000	101.26209	2634.38523	101.26209
54850.00000	101.18621	2632.16358	101.18621
54900.00000	101.37442	2631.69290	101.37442
54950.00000	101.39965	2630.47352	101.39965
55000.00000	101.70132	2628.69255	101.70132
55050.00000	101.71247	2627.41952	101.71247
55100.00000	101.85362	2626.72299	101.85362
55150.00000	101.92258	2625.46376	101.92258
55200.00000	102.03329	2624.22080	102.03329
55250.00000	102.21514	2622.19827	102.21514
55300.00000	102.40537	2620.90598	102.40537
55350.00000	102.50412	2619.78983	102.50412
55400.00000	102.83791	2617.67162	102.83791
55450.00000	103.05630	2616.53647	103.05630
55500.00000	103.30458	2614.59980	103.30458
55550.00000	103.60843	2612.63120	103.60843
55600.00000	103.82332	2610.14846	103.82332
55650.00000	104.08676	2608.37862	104.08676
55700.00000	104.36179	2605.39952	104.36179
55750.00000	104.63841	2603.50374	104.63841
55800.00000	104.95165	2600.81590	104.95165
55850.00000	105.24115	2597.69228	105.24115
55900.00000	105.42467	2595.09177	105.42467
55950.00000	105.68681	2591.91472	105.68681
56000.00000	105.98756	2588.39718	105.98756
56050.00000	106.25354	2585.95985	106.25354
56100.00000	106.50230	2582.10576	106.50230
56150.00000	106.68730	2578.79494	106.68730
56200.00000	106.92286	2575.26629	106.92286
56250.00000	107.10358	2571.41056	107.10358
56300.00000	107.32863	2567.68464	107.32863
56350.00000	107.53197	2563.86781	107.53197
56400.00000	107.71466	2560.39475	107.71466
56450.00000	107.83511	2555.91306	107.83511
56500.00000	107.97165	2552.27385	107.97165
56550.00000	108.09139	2547.99557	108.09139
56600.00000	108.16177	2543.75340	108.16177
56650.00000	108.22947	2539.84090	108.22947
56700.00000	108.32379	2535.37971	108.32379
56750.00000	108.35698	2531.24648	108.35698
56800.00000	108.36774	2527.10315	108.36774
56850.00000	108.38082	2522.73871	108.38082
56900.00000	108.37172	2518.43709	108.37172
56950.00000	108.34592	2514.23474	108.34592
57000.00000	108.31442	2510.05471	108.31442
57050.00000	108.21444	2505.61981	108.21444
57100.00000	108.12069	2501.64166	108.12069
57150.00000	108.01288	2497.50320	108.01288
57200.00000	107.88900	2493.59510	107.88900
57250.00000	107.80388	2489.67276	107.80388
57300.00000	107.67649	2485.87681	107.67649
57350.00000	107.50037	2482.36968	107.50037
57400.00000	107.35594	2478.54768	107.35594
57450.00000	107.14618	2475.10162	107.14618
57500.00000	106.98171	2471.47497	106.98171
57550.00000	106.79682	2467.91195	106.79682
57600.00000	106.57616	2464.94441	106.57616
57650.00000	106.35120	2461.97199	106.35120
57700.00000	106.12376	2458.62552	106.12376
57750.00000	105.97887	2455.91368	105.97887
57800.00000	105.74668	2452.98265	105.74668
57850.00000	105.57813	2450.57962	105.57813
57900.00000	105.36426	2447.96470	105.36426
57950.00000	105.16495	2445.62934	105.16495
58000.00000	105.00340	2443.71106	105.00340
58050.00000	104.89482	2441.25388	104.89482
58100.00000	104.81561	2439.02031	104.81561
58150.00000	104.74622	2437.03041	104.74622
58200.00000	104.72440	2434.44443	104.72440
58250.00000	104.63080	2432.04112	104.63080
58300.00000	104.61068	2429.33283	104.61068
58350.00000	104.56955	2426.35140	104.56955
58400.00000	104.49800	2423.66384	104.49800
58450.00000	104.48181	2420.96221	104.48181
58500.00000	104.34425	2417.93101	104.34425
58550.00000	104.26307	2414.72752	104.26307
58600.00000	104.14039	2411.60484	104.14039
58650.00000	104.02197	2408.93688	104.02197
58700.00000	103.92191	2406.02864	103.92191
58750.00000	103.79358	2403.05061	103.79358
58800.00000	103.70699	2400.10191	103.70699
58850.00000	103.56700	2397.10498	103.56700
58900.00000	103.39936	2394.04106	103.39936
58950.00000	103.22736	2390.96923	103.22736
59000.00000	103.03757	2387.87167	103.03757
59050.00000	102.82601	2384.83648	102.82601
59100.00000	102.59576	2381.95767	102.59576
59150.00000	102.39309	2379.16451	102.39309
59200.00000	102.16962	2376.67094	102.16962
59250.00000	101.87715	2373.93542	101.87715
59300.00000	101.59994	2371.46759	101.59994
59350.00000	101.33573	2369.19252	101.33573
59400.00000	101.14988	2366.95982	101.14988
59450.00000	100.82118	2365.16421	100.82118
59500.00000	100.59217	2363.25962	100.59217
59550.00000	100.37624	2361.49545	100.37624
59600.00000	100.13461	2359.81104	100.13461
59650.00000	99.91471	2357.91279	99.91471
59700.00000	99.70548	2356.34296	99.70548
59750.00000	99.47446	2354.88299	99.47446
59800.00000	99.27253	2353.34220	99.27253
59850.00000	99.15196	2352.40022	99.15196
59900.00000	99.04227	2350.42283	99.04227
59950.00000	98.88900	2349.31186	98.88900
60000.00000	98.79041	2347.76562	98.79041
60050.00000	98.59806	2346.00214	98.59806
60100.00000	98.45394	2344.54774	98.45394
60150.00000	98.25440	2342.71153	98.25440
60200.00000	98.09509	2341.03674	98.09509
60250.00000	97.94021	2339.57213	97.94021
60300.00000	97.72977	2338.20423	97.72977
60350.00000	97.43109	2337.05423	97.43109
60400.00000	97.21883	2335.84165	97.21883
60450.00000	97.00945	2335.92682	97.00945
60500.00000	96.81850	2335.79114	96.81850
60550.00000	96.69745	2335.42814	96.69745
60600.00000	96.60526	2335.96980	96.60526
60650.00000	96.61082	2336.13240	96.61082
60700.00000	96.63983	2335.93508	96.63983
60750.00000	96.71611	2335.63404	96.71611
60800.00000	96.79277	2336.03997	96.79277
60850.00000	96.96983	2335.28169	96.96983
60900.00000	97.16969	2334.49086	97.16969
60950.00000	97.37988	2333.43425	97.37988
61000.00000	97.50892	2332.32579	97.50892
61050.00000	97.71318	2330.69499	97.71318
61100.00000	97.85944	2329.16251	97.85944
61150.00000	98.04405	2327.74069	98.04405
61200.00000	98.15437	2325.93456	98.15437
61250.00000	98.26388	2324.15455	98.26388
61300.00000	98.39223	2322.59302	98.39223
61350.00000	98.53881	2321.07279	98.53881
61400.00000	98.72209	2319.04199	98.72209
61450.00000	98.81694	2317.26514	98.81694
61500.00000	98.92904	2315.78936	98.92904
61550.00000	99.07830	2313.68063	99.07830
61600.00000	99.24575	2311.99579	99.24575
61650.00000	99.44339	2310.11807	99.44339
61700.00000	99.57844	2307.95242	99.57844
61750.00000	99.78741	2305.71593	99.78741
61800.00000	99.98390	2303.81719	99.98390
61850.00000	100.17508	2301.36270	100.17508
61900.00000	100.32444	2298.71726	100.32444
61950.00000	100.50280	2296.28201	100.50280
62000.00000	100.71223	2293.51036	100.71223
62050.00000	100.86612	2290.87156	100.86612
62100.00000	101.07358	2288.13630	101.07358
62150.00000	101.25038	2285.18887	101.25038
62200.00000	101.41212	2282.03906	101.41212
62250.00000	101.54398	2279.04131	101.54398
62300.00000	101.69736	2275.91922	101.69736
62350.00000	101.86533	2272.57121	101.86533
62400.00000	101.94845	2269.04539	101.94845
62450.00000	102.05291	2265.44754	102.05291
62500.00000	102.16177	2261.93648	102.16177
62550.00000	102.18959	2258.38618	102.18959
62600.00000	102.23156	2254.42854	102.23156
62650.00000	102.30919	2250.69199	102.30919
62700.00000	102.29779	2246.96802	102.29779
62750.00000	102.26644	2243.23402	102.26644
62800.00000	102.16130	2239.79283	102.16130
62850.00000	102.10456	2236.03277	102.10456
62900.00000	101.97307	2232.71164	101.97307
62950.00000	101.80485	2229.17990	101.80485
63000.00000	101.68330	2226.06243	101.68330
63050.00000	101.53963	2223.48716	101.53963
63100.00000	101.38507	2220.31057	101.38507
63150.00000	101.25138	2217.90781	101.25138
63200.00000	101.07847	2215.20893	101.07847
63250.00000	100.90105	2212.96080	100.90105
63300.00000	100.84773	2210.94577	100.84773
63350.00000	100.71145	2209.05983	100.71145
63400.00000	100.63688	2207.08160	100.63688
63450.00000	100.57326	2205.42243	100.57326
63500.00000	100.50552	2203.33378	100.50552
63550.00000	100.52480	2202.13084	100.52480
63600.00000	100.50259	2199.99506	100.50259
63650.00000	100.62128	2197.70231	100.62128
63700.00000	100.65751	2196.07513	100.65751
63750.00000	100.77581	2193.83869	100.77581
63800.00000	100.83398	2191.47800	100.83398
63850.00000	100.93354	2188.86262	100.93354
63900.00000	101.04138	2187.21272	101.04138
63950.00000	101.12599	2184.04076	101.12599
64000.00000	101.29990	2182.05440	101.29990
64050.00000	101.45217	2178.36038	101.45217
64100.00000	101.59576	2175.58988	101.59576
64150.00000	101.73231	2172.47655	101.73231
64200.00000	101.80684	2169.10580	101.80684
64250.00000	101.95664	2165.25832	101.95664
64300.00000	102.08762	2161.58074	102.08762
64350.00000	102.21105	2157.15101	102.21105
64400.00000	102.24842	2152.94117	102.24842
64450.00000	102.23554	2148.82574	102.23554
64500.00000	102.25629	2144.23596	102.25629
64550.00000	102.06921	2139.62516	102.06921
64600.00000	102.01209	2135.24719	102.01209
64650.00000	101.75967	2130.57533	101.75967
64700.00000	101.52215	2126.93017	101.52215
64750.00000	101.34726	2123.22495	101.34726
64800.00000	101.05904	2119.42291	101.05904
64850.00000	100.89726	2116.41460	100.89726
64900.00000	100.78874	2113.97902	100.78874
64950.00000	100.62871	2110.41877	100.62871
65000.00000	100.57020	2106.22352	100.57020
65050.00000	100.45168	2102.96306	100.45168
65100.00000	100.31929	2098.33038	100.31929
65150.00000	100.08808	2093.41654	100.08808
65200.00000	99.74097	2088.95801	99.74097
65250.00000	99.36378	2083.87588	99.36378
65300.00000	98.76397	2079.27958	98.76397
65350.00000	98.12392	2075.23290	98.12392
65400.00000	97.28756	2071.80723	97.28756
65450.00000	96.30235	2069.64389	96.30235
65500.00000	95.47513	2069.71625	95.47513
65550.00000	94.53253	2070.38876	94.53253
65600.00000	93.73270	2073.36073	93.73270
65650.00000	93.37798	2077.15269	93.37798
65700.00000	93.20743	2081.19002	93.20743
65750.00000	93.29259	2084.86997	93.29259
65800.00000	93.61552	2086.54093	93.61552
65850.00000	94.06399	2088.26450	94.06399
65900.00000	94.43213	2088.53804	94.43213
65950.00000	94.79867	2088.36758	94.79867
66000.00000	95.24518	2087.38822	95.24518
66050.00000	95.62612	2087.47137	95.62612
66100.00000	96.14123	2085.78418	96.14123
66150.00000	96.70231	2082.82563	96.70231
66200.00000	97.11130	2079.99305	97.11130
66250.00000	97.58165	2076.28617	97.58165
66300.00000	97.96807	2071.57612	97.96807
66350.00000	98.13417	2066.24474	98.13417
66400.00000	98.30488	2061.14247	98.30488
66450.00000	98.22602	2056.09633	98.22602
66500.00000	98.15956	2050.95243	98.15956
66550.00000	98.03378	2047.06341	98.03378
66600.00000	97.81546	2043.07190	97.81546
66650.00000	97.51164	2038.74255	97.51164
66700.00000	97.37262	2035.88525	97.37262
66750.00000	97.05663	2032.72165	97.05663
66800.00000	96.88418	2030.15553	96.88418
66850.00000	96.71752	2027.87197	96.71752
66900.00000	96.52567	2025.49764	96.52567
66950.00000	96.40926	2022.87387	96.40926
67000.00000	96.18682	2020.27061	96.18682
67050.00000	96.05360	2018.36972	96.05360
67100.00000	95.91156	2015.66874	95.91156
67150.00000	95.80306	2013.80751	95.80306
67200.00000	95.54126	2011.98805	95.54126
67250.00000	95.53273	2009.80371	95.53273
67300.00000	95.34682	2008.76990	95.34682
67350.00000	95.26002	2007.06664	95.26002
67400.00000	95.24124	2004.84628	95.24124
67450.00000	95.28306	2002.29963	95.28306
67500.00000	95.22609	2000.43699	95.22609
67550.00000	95.27267	1997.91817	95.27267
67600.00000	95.33376	1996.37518	95.33376
67650.00000	95.28211	1992.89144	95.28211
67700.00000	95.16724	1990.59912	95.16724
67750.00000	95.11988	1987.68006	95.11988
67800.00000	95.06351	1985.05353	95.06351
67850.00000	94.91893	1981.95574	94.91893
67900.00000	94.74853	1979.79956	94.74853
67950.00000	94.60855	1977.70473	94.60855
68000.00000	94.50430	1975.63280	94.50430
68050.00000	94.34952	1973.46235	94.34952
68100.00000	94.12826	1971.66938	94.12826
68150.00000	94.02056	1970.28673	94.02056
68200.00000	93.87595	1969.04276	93.87595
68250.00000	93.86679	1967.44733	93.86679
68300.00000	93.77984	1966.70008	93.77984
68350.00000	93.85932	1965.22230	93.85932
68400.00000	93.87538	1964.05524	93.87538
68450.00000	93.90539	1962.48141	93.90539
68500.00000	94.02837	1962.03894	94.02837
68550.00000	94.13996	1960.56295	94.13996
68600.00000	94.31358	1958.96562	94.31358
68650.00000	94.53554	1957.19819	94.53554
68700.00000	94.79797	1955.29884	94.79797
68750.00000	95.11169	1952.55699	95.11169
68800.00000	95.35079	1950.09028	95.35079
68850.00000	95.62493	1946.78210	95.62493
68900.00000	95.89183	1943.64083	95.89183
68950.00000	96.19532	1940.25388	96.19532
69000.00000	96.40465	1936.19537	96.40465
69050.00000	96.60559	1931.73904	96.60559
69100.00000	96.83672	1927.30886	96.83672
69150.00000	96.97286	1922.04351	96.97286
69200.00000	97.10855	1917.75577	97.10855
69250.00000	97.14110	1912.83885	97.14110
69300.00000	97.22482	1907.50835	97.22482
69350.00000	97.25112	1902.24446	97.25112
69400.00000	97.14408	1896.68597	97.14408
69450.00000	97.14258	1891.23469	97.14258
69500.00000	97.08194	1885.52236	97.08194
69550.00000	96.93236	1878.93372	96.93236
69600.00000	96.64972	1873.03833	96.64972
69650.00000	96.36871	1867.26594	96.36871
69700.00000	96.00257	1860.92408	96.00257
69750.00000	95.56575	1854.87594	95.56575
69800.00000	95.02642	1848.82850	95.02642
69850.00000	94.38267	1842.69303	94.38267
69900.00000	93.60300	1837.34139	93.60300
69950.00000	92.80323	1832.55200	92.80323
70000.00000	91.90581	1827.85319	91.90581
70050.00000	90.80427	1824.05163	90.80427
70100.00000	89.72774	1821.57838	89.72774
70150.00000	88.57608	1819.81901	88.57608
70200.00000	87.44969	1820.07150	87.44969
70250.00000	86.26255	1820.92218	86.26255
70300.00000	85.09212	1825.52804	85.09212
70350.00000	84.30868	1830.29941	84.30868
70400.00000	83.83418	1836.37242	83.83418
70450.00000	83.74541	1842.24436	83.74541
70500.00000	83.89815	1846.74478	83.89815
70550.00000	84.23771	1850.56074	84.23771
70600.00000	84.88123	1853.71746	84.88123
70650.00000	85.28391	1854.17867	85.28391
70700.00000	85.79794	1854.74616	85.79794
70750.00000	86.18372	1854.03514	86.18372
70800.00000	86.64531	1853.47637	86.64531
70850.00000	87.01602	1851.70765	87.01602
70900.00000	87.34935	1850.16377	87.34935
70950.00000	87.83251	1848.13598	87.83251
71000.00000	88.02298	1846.54562	88.02298
71050.00000	88.46169	1843.17233	88.46169
71100.00000	88.68906	1841.14236	88.68906
71150.00000	89.18509	1838.97490	89.18509
71200.00000	89.48941	1835.08553	89.48941
71250.00000	89.94485	1831.55202	89.94485
71300.00000	90.19472	1826.97541	90.19472
71350.00000	90.36525	1822.28624	90.36525
71400.00000	90.59696	1817.43163	90.59696
71450.00000	90.79033	1811.45982	90.79033
71500.00000	90.83422	1807.06029	90.83422
71550.00000	91.02973	1802.16347	91.02973
71600.00000	90.93303	1796.19254	90.93303
71650.00000	90.80112	1790.46392	90.80112
71700.00000	90.61116	1784.20951	90.61116
71750.00000	90.58572	1779.54348	90.58572
71800.00000	90.23617	1773.17401	90.23617
71850.00000	89.76389	1767.70641	89.76389
71900.00000	89.28683	1763.50690	89.28683
71950.00000	88.80217	1755.67813	88.80217
72000.00000	88.37399	1753.89386	88.37399
72050.00000	87.66651	1751.66503	87.66651
72100.00000	87.28425	1749.03879	87.28425
72150.00000	87.09207	1745.16346	87.09207
72200.00000	86.69533	1742.06009	86.69533
72250.00000	86.43685	1738.20850	86.43685
72300.00000	86.29173	1735.26961	86.29173
72350.00000	86.00550	1730.69255	86.00550
72400.00000	85.52122	1725.74624	85.52122
72450.00000	84.82076	1723.62155	84.82076
72500.00000	84.18270	1718.44707	84.18270
72550.00000	83.95305	1712.11726	83.95305
72600.00000	82.91627	1711.83026	82.91627
72650.00000	81.71898	1705.96744	81.71898
72700.00000	81.28192	1702.65061	81.28192
72750.00000	80.16508	1702.50072	80.16508
72800.00000	78.72314	1700.26663	78.72314
72850.00000	77.20856	1706.73935	77.20856
72900.00000	76.62788	1709.64378	76.62788
72950.00000	76.36049	1710.15463	76.36049
73000.00000	74.66168	1719.71962	74.66168
73050.00000	75.30459	1726.12580	75.30459
73100.00000	75.79384	1729.26784	75.79384
73150.00000	76.28698	1736.07449	76.28698
73200.00000	77.09773	1733.42649	77.09773
73250.00000	77.94244	1734.87047	77.94244
73300.00000	77.88079	1730.84965	77.88079
73350.00000	78.30375	1733.56470	78.30375
73400.00000	78.68970	1731.75998	78.68970
73450.00000	78.66029	1728.14138	78.66029
73500.00000	78.69410	1720.94790	78.69410
73550.00000	79.11609	1722.90965	79.11609
73600.00000	78.57412	1716.16054	78.57412
73650.00000	79.62161	1717.26650	79.62161
73700.00000	79.68492	1716.69981	79.68492
73750.00000	79.44164	1712.06157	79.44164
73800.00000	79.97354	1710.78667	79.97354
73850.00000	80.11766	1705.82286	80.11766
73900.00000	80.43099	1700.65798	80.43099
73950.00000	80.94681	1696.70105	80.94681
74000.00000	81.00295	1688.69475	81.00295
74050.00000	81.25744	1680.53785	81.25744
74100.00000	81.38634	1673.72703	81.38634
74150.00000	81.82229	1659.72327	81.82229
74200.00000	81.77301	1654.89252	81.77301
74250.00000	81.09899	1642.43194	81.09899
74300.00000	81.77198	1618.34549	81.77198
74350.00000	81.42427	1607.54121	81.42427
74400.00000	78.79388	1547.33544	78.79388
74450.00000	74.74890	1372.06113	74.74890
74500.00000	78.77313	1304.94874	78.77313
74550.00000	78.20809	1269.36680	78.20809
74600.00000	77.17987	1244.99090	77.17987
74650.00000	77.21201	1228.54545	77.21201
74700.00000	75.90016	1212.97004	75.90016
74750.00000	76.86746	1195.54343	76.86746
74800.00000	76.18552	1182.81336	76.18552
74850.00000	76.36010	1159.37285	76.36010
74900.00000	76.39340	1146.90362	76.39340
74950.00000	77.18357	1133.73779	77.18357
75000.00000	77.27000	1116.91520	77.27000
75050.00000	77.74839	1105.48164	77.74839
75100.00000	77.39370	1098.42590	77.39370
75150.00000	78.00977	1087.90264	78.00977
75200.00000	78.28178	1078.80214	78.28178
75250.00000	78.20958	1065.00519	78.20958
75300.00000	77.62017	1061.85103	77.62017
75350.00000	78.96063	1057.81026	78.96063
75400.00000	78.65809	1050.59416	78.65809
75450.00000	78.56065	1045.86274	78.56065
75500.00000	79.00243	1045.34858	79.00243
75550.00000	79.26456	1036.56447	79.26456
75600.00000	79.56269	1033.70385	79.56269
75650.00000	79.37064	1032.45405	79.37064
75700.00000	79.44339	1024.55290	79.44339
75750.00000	79.87852	1023.75297	79.87852
75800.00000	79.67174	1021.56442	79.67174
75850.00000	80.04625	1015.50584	80.04625
75900.00000	79.91035	1012.86251	79.91035
75950.00000	79.96994	1007.86564	79.96994
76000.00000	80.36619	1008.83197	80.36619
76050.00000	80.34780	1003.43152	80.34780
76100.00000	81.34230	997.15492	81.34230
76150.00000	81.06409	996.89485	81.06409
76200.00000	80.96937	994.11350	80.96937
76250.00000	81.77138	994.24105	81.77138
76300.00000	81.08091	988.86439	81.08091
76350.00000	82.14641	983.70062	82.14641
76400.00000	81.66467	986.40851	81.66467
76450.00000	81.59088	979.08153	81.59088
76500.00000	82.58553	979.38728	82.58553
76550.00000	81.83250	979.53831	81.83250
76600.00000	82.15169	970.23942	82.15169
76650.00000	82.95814	970.46353	82.95814
76700.00000	82.20149	966.29052	82.20149
76750.00000	83.13286	962.16291	83.13286
76800.00000	83.01100	960.96550	83.01100
76850.00000	82.99800	955.56390	82.99800
76900.00000	83.81315	952.54565	83.81315
76950.00000	83.20902	952.67831	83.20902
77000.00000	83.54803	943.94218	83.54803
77050.00000	84.08351	947.09754	84.08351
77100.00000	83.26937	938.74066	83.26937
77150.00000	84.33194	933.98714	84.33194
77200.00000	83.89764	936.85212	83.89764
77250.00000	83.73447	926.51929	83.73447
77300.00000	84.43380	927.58478	84.43380
77350.00000	83.57486	924.41526	83.57486
77400.00000	84.16164	915.15715	84.16164
77450.00000	84.08048	920.21658	84.08048
77500.00000	83.08677	912.66524	83.08677
77550.00000	83.61134	910.47258	83.61134
77600.00000	83.08226	910.25914	83.08226
77650.00000	83.64061	900.89024	83.64061
77700.00000	83.94448	903.62045	83.94448
77750.00000	82.57281	901.20508	82.57281
77800.00000	83.72517	894.17238	83.72517
77850.00000	83.44391	898.56055	83.44391
77900.00000	83.07584	889.42554	83.07584
77950.00000	83.88344	889.33822	83.88344
78000.00000	82.78524	891.02087	82.78524
78050.00000	83.48232	881.62531	83.48232
78100.00000	84.00132	883.74657	84.00132
78150.00000	83.10828	878.90774	83.10828
78200.00000	84.23061	873.32662	84.23061
78250.00000	83.81005	876.20548	83.81005
78300.00000	82.94915	868.70820	82.94915
78350.00000	84.39063	868.17559	84.39063
78400.00000	83.28837	864.75312	83.28837
78450.00000	84.19324	857.86867	84.19324
78500.00000	84.05319	860.46412	84.05319
78550.00000	83.52589	856.31987	83.52589
78600.00000	84.42813	849.84902	84.42813
78650.00000	83.53875	851.69729	83.53875
78700.00000	83.79866	840.42219	83.79866
78750.00000	83.95528	843.84012	83.95528
78800.00000	83.27910	837.26661	83.27910
78850.00000	83.95789	833.55086	83.95789
78900.00000	83.65475	834.15065	83.65475
78950.00000	83.43933	824.53858	83.43933
79000.00000	83.70488	826.65836	83.70488
79050.00000	83.19980	821.91768	83.19980
79100.00000	83.38467	817.20155	83.38467
79150.00000	83.29753	818.11423	83.29753
79200.00000	83.05916	810.04992	83.05916
79250.00000	83.05847	810.75738	83.05847
79300.00000	82.50665	807.62945	82.50665
79350.00000	82.89099	801.24156	82.89099
79400.00000	82.43250	803.18899	82.43250
79450.00000	81.94212	796.47760	81.94212
79500.00000	82.61461	795.43798	82.61461
79550.00000	81.73399	794.49186	81.73399
79600.00000	81.82172	788.09021	81.82172
79650.00000	82.02600	788.96610	82.02600
79700.00000	81.23649	781.17905	81.23649
79750.00000	81.71151	780.86044	81.71151
79800.00000	81.14567	778.69471	81.14567
79850.00000	81.35865	773.33107	81.35865
79900.00000	81.21166	775.20605	81.21166
79950.00000	80.32756	769.98335	80.32756
80000.00000	80.79513	768.52222	80.79513
80050.00000	80.49589	767.46431	80.49589
80100.00000	80.35168	761.19922	80.35168
80150.00000	80.11720	759.97336	80.11720
80200.00000	79.80370	757.21039	79.80370
80250.00000	79.86111	752.93528	79.86111
80300.00000	79.02080	753.71014	79.02080
80350.00000	78.93893	746.57757	78.93893
80400.00000	78.37923	747.66748	78.37923
80450.00000	77.45815	744.98518	77.45815
80500.00000	77.42119	743.01625	77.42119
80550.00000	76.90705	745.71291	76.90705
80600.00000	76.66950	741.93963	76.66950
80650.00000	76.47069	746.30298	76.47069
80700.00000	76.06553	744.82470	76.06553
80750.00000	76.55005	744.82310	76.55005
80800.00000	75.71241	746.06939	75.71241
80850.00000	75.93558	747.41458	75.93558
80900.00000	76.35871	748.72024	76.35871
80950.00000	75.82807	751.39034	75.82807
81000.00000	76.29584	746.39293	76.29584
81050.00000	76.68996	745.81110	76.68996
81100.00000	76.59249	743.01565	76.59249
81150.00000	76.84629	742.62187	76.84629
81200.00000	76.62475	739.54924	76.62475
81250.00000	76.71673	736.75525	76.71673
81300.00000	75.95795	737.05055	75.95795
81350.00000	76.06376	732.92929	76.06376
81400.00000	75.14528	734.82759	75.14528
81450.00000	75.37490	736.62121	75.37490
81500.00000	75.27271	736.81100	75.27271
81550.00000	75.10700	738.78838	75.10700
81600.00000	75.01273	737.37880	75.01273
81650.00000	75.43428	739.28089	75.43428
81700.00000	75.46063	739.61861	75.46063
81750.00000	75.67751	742.11386	75.67751
81800.00000	76.09187	739.43746	76.09187
81850.00000	75.80112	739.28778	75.80112
81900.00000	76.59261	738.34245	76.59261
81950.00000	76.62967	737.09290	76.62967
82000.00000	76.73313	736.36601	76.73313
82050.00000	77.08208	734.47745	77.08208
82100.00000	77.18936	731.74371	77.18936
82150.00000	76.93898	730.77041	76.93898
82200.00000	77.05027	725.46145	77.05027
82250.00000	77.15158	726.86004	77.15158
82300.00000	76.80845	725.36888	76.80845
82350.00000	76.64942	722.02914	76.64942
82400.00000	76.08086	724.45239	76.08086
82450.00000	75.74031	722.70931	75.74031
82500.00000	75.25926	727.65291	75.25926
82550.00000	74.56019	732.28827	74.56019
82600.00000	74.89772	740.13481	74.89772
82650.00000	75.69316	746.25643	75.69316
82700.00000	77.04521	756.40546	77.04521
82750.00000	78.92748	758.79948	78.92748
82800.00000	80.78800	758.01257	80.78800
82850.00000	82.41511	749.48862	82.41511
82900.00000	83.48520	743.22015	83.48520
82950.00000	84.48803	736.26378	84.48803
83000.00000	85.25489	729.59480	85.25489
83050.00000	85.62125	724.58716	85.62125
83100.00000	86.51837	717.74439	86.51837
83150.00000	86.95438	713.69425	86.95438
83200.00000	87.52711	709.00998	87.52711
83250.00000	87.96806	704.63819	87.96806
83300.00000	88.46205	699.95667	88.46205
83350.00000	88.82626	696.10449	88.82626
83400.00000	89.36612	690.86815	89.36612
83450.00000	89.70035	686.28785	89.70035
83500.00000	90.13627	681.47523	90.13627
83550.00000	90.58728	676.41197	90.58728
83600.00000	90.94620	671.09310	90.94620
83650.00000	91.26702	664.78168	91.26702
83700.00000	91.58585	659.79510	91.58585
83750.00000	91.93350	653.26958	91.93350
83800.00000	92.09407	646.65461	92.09407
83850.00000	92.24277	640.50800	92.24277
83900.00000	92.37749	633.36089	92.37749
83950.00000	92.49572	626.13838	92.49572
84000.00000	92.40784	618.80108	92.40784
84050.00000	92.19708	611.35420	92.19708
84100.00000	92.03006	603.74051	92.03006
84150.00000	91.69182	596.57560	91.69182
84200.00000	91.26574	590.61694	91.26574
84250.00000	90.62060	584.26791	90.62060
84300.00000	89.97160	579.84392	89.97160
84350.00000	89.24057	576.02218	89.24057
84400.00000	88.54887	574.17849	88.54887
84450.00000	88.17360	573.09504	88.17360
84500.00000	87.95975	574.37047	87.95975
84550.00000	87.96769	574.47902	87.96769
84600.00000	88.20166	572.36120	88.20166
84650.00000	88.61303	570.20499	88.61303
84700.00000	89.06091	566.48609	89.06091
84750.00000	89.27834	561.25490	89.27834
84800.00000	89.40232	555.73186	89.40232
84850.00000	89.47544	550.10809	89.47544
84900.00000	89.49432	543.26792	89.49432
84950.00000	89.46220	537.80288	89.46220
85000.00000	89.29361	531.61142	89.29361
85050.00000	89.00713	525.60746	89.00713
85100.00000	88.78963	520.30330	88.78963
85150.00000	88.25105	514.28185	88.25105
85200.00000	87.96370	508.92655	87.96370
85250.00000	87.89036	503.57798	87.89036
85300.00000	87.06921	499.25113	87.06921
85350.00000	86.61161	494.83523	86.61161
85400.00000	86.25239	490.97103	86.25239
85450.00000	85.56450	486.69095	85.56450
85500.00000	85.15698	482.86090	85.15698
85550.00000	84.43988	479.55930	84.43988
85600.00000	84.03275	476.75221	84.03275
85650.00000	83.35994	473.83352	83.35994
85700.00000	82.85054	470.99936	82.85054
85750.00000	82.23566	469.70705	82.23566
85800.00000	81.69710	467.69614	81.69710
85850.00000	80.99309	465.54912	80.99309
85900.00000	80.64393	462.02895	80.64393
85950.00000	80.23210	462.58243	80.23210
86000.00000	79.91984	462.94614	79.91984
86050.00000	79.39346	461.26126	79.39346
86100.00000	79.10423	462.32247	79.10423
86150.00000	78.86323	461.18477	78.86323
86200.00000	78.63580	461.66145	78.63580
86250.00000	78.76806	461.83929	78.76806
86300.00000	78.40828	460.98351	78.40828
86350.00000	78.44420	459.04795	78.44420
86400.00000	77.64912	455.62714	77.64912
86450.00000	77.68130	455.79088	77.68130
86500.00000	77.58063	458.05830	77.58063
86550.00000	77.53684	453.13496	77.53684
86600.00000	77.55270	452.71851	77.55270
86650.00000	77.91442	450.25225	77.91442
86700.00000	77.64159	451.66547	77.64159
86750.00000	77.64444	449.45390	77.64444
86800.00000	77.32088	444.32612	77.32088
86850.00000	77.17480	442.07894	77.17480
86900.00000	77.22115	441.06429	77.22115
86950.00000	76.95805	439.45911	76.95805
87000.00000	77.12083	438.32424	77.12083
87050.00000	76.76708	433.29331	76.76708
87100.00000	76.30193	429.52160	76.30193
87150.00000	76.50789	427.90803	76.50789
87200.00000	75.87103	425.46104	75.87103
87250.00000	75.42051	425.69692	75.42051
87300.00000	75.18404	423.60254	75.18404
87350.00000	74.89982	420.83999	74.89982
87400.00000	74.82468	420.43919	74.82468
87450.00000	74.42010	416.74693	74.42010
87500.00000	73.62861	418.49022	73.62861
87550.00000	72.88461	418.05441	72.88461
87600.00000	73.22726	415.12987	73.22726
87650.00000	72.83772	417.24106	72.83772
87700.00000	72.95362	418.92402	72.95362
87750.00000	72.76338	417.76704	72.76338
87800.00000	71.69957	417.64952	71.69957
87850.00000	72.41562	419.92493	72.41562
87900.00000	71.95902	420.57562	71.95902
87950.00000	71.68129	419.53267	71.68129
88000.00000	71.32399	416.43621	71.32399
88050.00000	71.77429	419.82501	71.77429
88100.00000	72.03642	416.89134	72.03642
88150.00000	71.91894	417.11507	71.91894
88200.00000	71.83712	423.31424	71.83712
88250.00000	71.74847	418.29360	71.74847
88300.00000	72.15722	421.67064	72.15722
88350.00000	72.20587	417.99404	72.20587
88400.00000	71.69854	415.31670	71.69854
88450.00000	72.09696	416.83701	72.09696
88500.00000	72.10017	414.66354	72.10017
88550.00000	73.06876	415.35704	73.06876
88600.00000	72.61651	409.81431	72.61651
88650.00000	72.41598	408.64989	72.41598
88700.00000	72.44774	410.05134	72.44774
88750.00000	72.96825	408.97789	72.96825
88800.00000	73.34112	407.91556	73.34112
88850.00000	72.88428	402.75239	72.88428
88900.00000	72.63795	405.13951	72.63795
88950.00000	72.47753	403.08811	72.47753
89000.00000	72.66050	403.54520	72.66050
89050.00000	72.81464	397.03581	72.81464
89100.00000	72.12738	402.44386	72.12738
89150.00000	72.20663	400.35610	72.20663
89200.00000	72.30081	400.05806	72.30081
89250.00000	72.32470	398.36049	72.32470
89300.00000	72.72477	395.86012	72.72477
89350.00000	72.27330	398.28619	72.27330
89400.00000	72.73080	399.01413	72.73080
89450.00000	72.59359	395.06742	72.59359
89500.00000	73.27608	394.68733	73.27608
89550.00000	73.21657	397.89422	73.21657
89600.00000	73.46347	394.41862	73.46347
89650.00000	73.81958	394.03969	73.81958
89700.00000	73.77354	394.64578	73.77354
89750.00000	74.17231	391.82182	74.17231
89800.00000	74.18875	394.04056	74.18875
89850.00000	74.25963	393.79932	74.25963
89900.00000	74.39103	389.59352	74.39103
89950.00000	74.95487	393.43092	74.95487
90000.00000	75.28661	400.92535	75.28661
90050.00000	75.81705	406.54759	75.81705
90100.00000	78.22512	403.11134	78.22512
90150.00000	79.56065	403.31272	79.56065
90200.00000	82.26527	398.12517	82.26527
90250.00000	83.81302	371.85921	83.81302
90300.00000	83.53085	354.23710	83.53085
90350.00000	82.18533	340.86958	82.18533
90400.00000	81.51686	340.95174	81.51686
90450.00000	80.49631	335.25122	80.49631
90500.00000	80.02840	331.50945	80.02840
90550.00000	79.41433	330.70437	79.41433
90600.00000	79.10421	328.87215	79.10421
90650.00000	79.38191	328.38054	79.38191
90700.00000	79.27125	328.26329	79.27125
90750.00000	79.32094	326.89068	79.32094
90800.00000	79.34309	323.92556	79.34309
90850.00000	79.77217	324.73703	79.77217
90900.00000	80.12412	320.72941	80.12412
90950.00000	79.77435	319.28376	79.77435
91000.00000	80.19470	315.70497	80.19470
91050.00000	80.58253	312.80514	80.58253
91100.00000	81.05534	309.07500	81.05534
91150.00000	81.18657	308.97446	81.18657
91200.00000	81.05815	304.01001	81.05815
91250.00000	81.49917	300.67667	81.49917
91300.00000	81.73635	297.44335	81.73635
91350.00000	81.81938	294.31877	81.81938
91400.00000	82.26348	290.97130	82.26348
91450.00000	82.31458	287.45669	82.31458
91500.00000	82.51627	281.55075	82.51627
91550.00000	82.82146	279.84678	82.82146
91600.00000	82.85628	274.22343	82.85628
91650.00000	83.08190	270.12504	83.08190
91700.00000	83.35020	267.68962	83.35020
91750.00000	83.49007	263.51041	83.49007
91800.00000	83.44835	259.26416	83.44835
91850.00000	83.65325	254.05640	83.65325
91900.00000	83.86259	248.74364	83.86259
91950.00000	83.79202	246.45132	83.79202
92000.00000	83.96795	242.10085	83.96795
92050.00000	83.97240	236.36557	83.97240
92100.00000	84.02792	232.02209	84.02792
92150.00000	83.95457	227.18594	83.95457
92200.00000	83.94325	222.35712	83.94325
92250.00000	83.95088	217.63158	83.95088
92300.00000	84.13651	213.12129	84.13651
92350.00000	84.26969	208.69998	84.26969
92400.00000	84.22505	201.96114	84.22505
92450.00000	83.95719	199.21929	83.95719
92500.00000	83.79718	194.20960	83.79718
92550.00000	83.61362	188.44363	83.61362
92600.00000	83.59368	185.18771	83.59368
92650.00000	83.40812	179.60273	83.40812
92700.00000	83.30782	176.30408	83.30782
92750.00000	82.96029	171.54464	82.96029
92800.00000	83.02735	167.99007	83.02735
92850.00000	82.67009	163.43147	82.67009
92900.00000	82.46846	157.72836	82.46846
92950.00000	82.19945	156.11115	82.19945
93000.00000	82.24854	150.18708	82.24854
93050.00000	81.93112	144.87632	81.93112
93100.00000	81.71589	142.48374	81.71589
93150.00000	81.70477	137.09703	81.70477
93200.00000	81.15181	134.37150	81.15181
93250.00000	80.78086	130.15594	80.78086
93300.00000	80.86334	123.46101	80.86334
93350.00000	80.41926	120.52490	80.41926
93400.00000	80.30781	117.01139	80.30781
93450.00000	79.68451	113.18700	79.68451
93500.00000	79.67906	108.20368	79.67906
93550.00000	79.16794	104.03081	79.16794
93600.00000	78.78856	100.44738	78.78856
93650.00000	78.58572	99.46254	78.58572
93700.00000	78.22257	95.29247	78.22257
93750.00000	77.60838	89.76334	77.60838
93800.00000	77.39545	87.77198	77.39545
93850.00000	76.97709	87.46609	76.97709
93900.00000	76.81530	80.84512	76.81530
93950.00000	76.29773	76.80808	76.29773
94000.00000	76.17377	77.18288	76.17377
94050.00000	75.98877	71.72796	75.98877
94100.00000	75.54437	72.00077	75.54437
94150.00000	75.67243	65.90830	75.67243
94200.00000	76.00162	62.83147	76.00162
94250.00000	75.66143	60.60004	75.66143
94300.00000	76.00132	54.13804	76.00132
94350.00000	75.77140	49.78270	75.77140
94400.00000	75.56799	47.10392	75.56799
94450.00000	75.17505	39.77761	75.17505
94500.00000	75.64845	37.90674	75.64845
94550.00000	75.37849	33.24778	75.37849
94600.00000	74.83283	27.04224	74.83283
94650.00000	74.77221	23.80088	74.77221
94700.00000	75.13377	15.31591	75.13377
94750.00000	74.51302	12.39197	74.51302
94800.00000	74.25430	 4.83085	74.25430
94850.00000	74.17811	-2.40945	74.17811
94900.00000	73.64233	-1.40186	73.64233
94950.00000	73.60953	-12.13079	73.60953
95000.00000	73.88728	-15.21466	73.88728
95050.00000	72.93326	-22.35116	72.93326
95100.00000	72.69660	-23.95124	72.69660
95150.00000	71.28214	-31.73671	71.28214
95200.00000	71.62686	-36.86740	71.62686
95250.00000	71.35327	-34.43365	71.35327
95300.00000	71.69383	-42.58643	71.69383
95350.00000	69.35709	-49.17172	69.35709
95400.00000	69.87788	-56.92860	69.87788
95450.00000	69.06119	-60.70772	69.06119
95500.00000	69.62303	-57.93360	69.62303
95550.00000	68.96881	-64.09498	68.96881
95600.00000	68.04779	-66.43711	68.04779
95650.00000	66.64878	-86.70998	66.64878
95700.00000	68.02271	-70.68911	68.02271
95750.00000	68.28026	-76.47943	68.28026
95800.00000	66.65072	-71.83647	66.65072
95850.00000	67.92266	-72.47170	67.92266
95900.00000	67.31988	-82.14115	67.31988
95950.00000	69.05186	-69.79953	69.05186
96000.00000	68.14941	-96.59779	68.14941
96050.00000	70.00060	-106.06702	70.00060
96100.00000	70.10347	-113.73961	70.10347
96150.00000	70.44837	-116.23530	70.44837
96200.00000	70.22115	-131.23492	70.22115
96250.00000	70.38213	-142.06932	70.38213
96300.00000	71.15088	-149.08307	71.15088
96350.00000	71.21397	-153.72836	71.21397
96400.00000	71.89959	-171.90597	71.89959
96450.00000	70.99514	-181.15740	70.99514
96500.00000	71.18139	-191.68349	71.18139
96550.00000	68.22360	-179.50840	68.22360
96600.00000	70.59032	-198.84813	70.59032
96650.00000	68.33623	-233.66478	68.33623
96700.00000	69.73658	-224.32775	69.73658
96750.00000	71.60414	-221.93266	71.60414
96800.00000	69.65283	-231.86581	69.65283
96850.00000	69.21745	-258.97677	69.21745
96900.00000	69.95523	-269.91407	69.95523
96950.00000	72.92033	-265.61804	72.92033
97000.00000	69.64770	-284.92875	69.64770
97050.00000	71.33856	-279.00609	71.33856
97100.00000	71.37352	-282.35339	71.37352
97150.00000	73.16783	-314.22888	73.16783
97200.00000	72.45247	-312.53339	72.45247
97250.00000	73.04713	-329.24737	73.04713
97300.00000	72.35779	-345.96997	72.35779
97350.00000	70.86713	-378.18556	70.86713
97400.00000	67.06321	-366.78637	67.06321
97450.00000	66.98102	-370.61027	66.98102
97500.00000	66.58933	-361.45137	66.58933
97550.00000	64.15590	-345.72599	64.15590
97600.00000	62.03449	-375.38584	62.03449
97650.00000	62.48838	-371.18637	62.48838
97700.00000	64.24533	-369.44204	64.24533
97750.00000	59.81643	-347.23990	59.81643
97800.00000	59.88448	-355.32874	59.88448
97850.00000	60.86193	-363.38709	60.86193
97900.00000	61.60860	-388.44095	61.60860
97950.00000	59.98614	-342.08760	59.98614
98000.00000	59.14805	-372.54619	59.14805
98050.00000	57.96503	-347.50288	57.96503
98100.00000	58.74154	-332.58189	58.74154
98150.00000	55.44400	-343.40599	55.44400
98200.00000	58.03377	-355.03294	58.03377
98250.00000	62.20876	-336.99096	62.20876
98300.00000	55.76847	-347.27398	55.76847
98350.00000	58.43258	-377.77936	58.43258
98400.00000	58.93794	-344.63345	58.93794
98450.00000	60.55954	-311.69589	60.55954
98500.00000	59.58791	-325.54864	59.58791
98550.00000	57.73139	-366.71041	57.73139
98600.00000	57.51239	-328.31602	57.51239
98650.00000	61.83416	-342.55371	61.83416
98700.00000	58.49952	-344.00776	58.49952
98750.00000	57.10558	-336.56429	57.10558
98800.00000	59.39820	-360.82811	59.39820
98850.00000	61.31616	-380.67507	61.31616
98900.00000	56.75709	-374.49635	56.75709
98950.00000	45.18173	-402.57220	45.18173
99000.00000	55.84164	-331.42851	55.84164
99050.00000	52.67929	-374.49069	52.67929
99100.00000	55.32095	-397.70039	55.32095
99150.00000	55.85765	-361.90750	55.85765
99200.00000	48.75056	-352.08568	48.75056
99250.00000	57.31350	-378.63036	57.31350
99300.00000	51.93845	-406.88750	51.93845
99350.00000	51.03903	-370.82868	51.03903
99400.00000	45.22746	-416.70696	45.22746
99450.00000	43.05839	-519.22880	43.05839
99500.00000	47.64380	-422.61116	47.64380
99550.00000	51.13779	-385.00824	51.13779
99600.00000	47.09939	-333.76129	47.09939
99650.00000	47.89277	-383.91747	47.89277
99700.00000	49.39318	-284.63441	49.39318
99750.00000	52.26153	-392.36332	52.26153
99800.00000	56.16241	-336.31782	56.16241
99850.00000	48.06003	-391.14376	48.06003
99900.00000	55.18443	-389.09973	55.18443
99950.00000	46.65323	-347.60675	46.65323
