---ACOUSTIC CALIBRATION---
Filename: C:\Data\CL0809 DATA\CL0809500\RightSecondary.calib
Date: 8/9/2019 3:24:48 PM
Format: 4
Probe Tube Correction File: C:\Data\Probe Tube Calibrations\74_ProbeTube.calib
Experiment VIs: 2128
EPL_CFTS.exe V15.0.1f5 (2015)
DAQmx V15.1

Attenuation (dB): 40.000000
Min Freq (Hz): 50.000000
Max Freq (Hz): 99950.000000
Freq Step (Hz): 50.000000
Sample Rate (Hz): 200000.000000
[Smoothing]
Method=None
MA.Iterations=0
MA.Length=0
Loess.Length=0
Loess.Type=Linear
Loess.Robust=FALSE


Freq(Hz)	Mag(dB)	Phase(deg)	Unsmoothed(dB)

50.00000	98.71941	343.76635	98.71941
100.00000	67.37048	408.65537	67.37048
150.00000	60.90097	495.53922	60.90097
200.00000	59.36630	819.20121	59.36630
250.00000	50.48331	1035.79103	50.48331
300.00000	67.56412	1197.64178	67.56412
350.00000	65.39062	1377.27431	65.39062
400.00000	63.60490	1447.31943	63.60490
450.00000	68.78661	1476.78353	68.78661
500.00000	72.82739	1586.28334	72.82739
550.00000	78.90213	1521.61754	78.90213
600.00000	77.25931	1476.49552	77.25931
650.00000	84.73523	1466.96300	84.73523
700.00000	83.98243	1467.26245	83.98243
750.00000	88.27833	1432.77277	88.27833
800.00000	89.65399	1413.99750	89.65399
850.00000	88.69885	1402.41766	88.69885
900.00000	89.26314	1395.50508	89.26314
950.00000	90.64416	1379.67566	90.64416
1000.00000	90.76244	1371.45637	90.76244
1050.00000	90.53547	1356.20939	90.53547
1100.00000	89.66091	1347.37711	89.66091
1150.00000	88.71697	1347.07806	88.71697
1200.00000	88.37675	1353.16757	88.37675
1250.00000	89.40616	1357.00883	89.40616
1300.00000	90.46359	1355.75172	90.46359
1350.00000	91.27977	1354.06111	91.27977
1400.00000	92.15667	1353.63759	92.15667
1450.00000	93.18965	1351.73218	93.18965
1500.00000	94.53569	1349.59465	94.53569
1550.00000	95.82137	1343.34861	95.82137
1600.00000	97.17926	1338.59332	97.17926
1650.00000	98.31719	1333.68292	98.31719
1700.00000	102.42180	1316.82127	102.42180
1750.00000	99.51144	1295.72819	99.51144
1800.00000	99.27601	1290.35121	99.27601
1850.00000	99.05619	1282.77413	99.05619
1900.00000	98.87434	1275.36923	98.87434
1950.00000	98.17111	1269.88583	98.17111
2000.00000	97.40336	1265.66590	97.40336
2050.00000	96.50306	1266.42209	96.50306
2100.00000	96.96586	1272.49699	96.96586
2150.00000	98.22717	1267.74805	98.22717
2200.00000	98.42791	1257.95649	98.42791
2250.00000	97.76826	1252.78306	97.76826
2300.00000	97.49348	1251.40163	97.49348
2350.00000	97.46200	1248.32576	97.46200
2400.00000	97.52968	1245.75469	97.52968
2450.00000	97.26887	1241.46512	97.26887
2500.00000	96.71038	1242.08357	96.71038
2550.00000	96.87944	1242.00618	96.87944
2600.00000	97.04243	1241.13287	97.04243
2650.00000	97.15779	1240.79932	97.15779
2700.00000	97.36037	1238.89345	97.36037
2750.00000	97.53948	1237.90274	97.53948
2800.00000	97.82786	1235.94237	97.82786
2850.00000	98.11318	1234.23269	98.11318
2900.00000	98.44317	1231.94497	98.44317
2950.00000	98.74258	1229.48953	98.74258
3000.00000	98.96162	1227.51652	98.96162
3050.00000	99.21369	1224.68906	99.21369
3100.00000	99.43240	1221.82571	99.43240
3150.00000	99.46240	1219.37219	99.46240
3200.00000	99.63713	1216.48703	99.63713
3250.00000	99.83910	1214.42475	99.83910
3300.00000	99.89053	1212.33673	99.89053
3350.00000	100.15047	1210.68758	100.15047
3400.00000	100.26702	1209.03844	100.26702
3450.00000	100.44172	1208.09430	100.44172
3500.00000	100.67539	1207.44207	100.67539
3550.00000	101.38676	1205.22763	101.38676
3600.00000	101.47685	1201.43638	101.47685
3650.00000	101.75983	1200.81166	101.75983
3700.00000	101.96419	1199.27425	101.96419
3750.00000	102.43640	1196.67645	102.43640
3800.00000	103.23373	1195.37487	103.23373
3850.00000	103.79169	1186.77087	103.79169
3900.00000	104.16954	1179.71884	104.16954
3950.00000	103.42601	1177.27295	103.42601
4000.00000	103.15270	1179.06739	103.15270
4050.00000	103.59640	1180.40524	103.59640
4100.00000	104.32137	1180.67444	104.32137
4150.00000	105.96458	1177.78841	105.96458
4200.00000	106.93766	1173.11821	106.93766
4250.00000	107.05746	1160.57628	107.05746
4300.00000	107.17949	1157.58436	107.17949
4350.00000	107.60386	1153.01290	107.60386
4400.00000	107.99769	1146.90722	107.99769
4450.00000	108.10901	1139.77481	108.10901
4500.00000	108.23779	1133.69553	108.23779
4550.00000	108.16201	1128.40741	108.16201
4600.00000	108.23513	1123.02858	108.23513
4650.00000	108.27407	1118.14212	108.27407
4700.00000	108.26956	1113.19725	108.26956
4750.00000	108.27319	1108.46785	108.27319
4800.00000	108.30776	1103.99330	108.30776
4850.00000	108.34215	1099.18307	108.34215
4900.00000	108.37530	1093.67361	108.37530
4950.00000	108.37265	1088.44679	108.37265
5000.00000	108.31115	1082.77824	108.31115
5050.00000	108.20049	1077.07108	108.20049
5100.00000	108.00171	1071.23209	108.00171
5150.00000	107.67084	1065.41558	107.67084
5200.00000	107.06881	1059.95184	107.06881
5250.00000	106.21230	1059.42273	106.21230
5300.00000	106.70160	1060.11731	106.70160
5350.00000	106.98270	1053.88406	106.98270
5400.00000	106.78747	1047.84408	106.78747
5450.00000	106.47046	1043.01382	106.47046
5500.00000	106.15820	1038.50131	106.15820
5550.00000	105.85842	1034.55696	105.85842
5600.00000	105.53298	1030.21823	105.53298
5650.00000	105.09225	1026.70762	105.09225
5700.00000	104.69123	1023.33911	104.69123
5750.00000	104.34176	1020.33899	104.34176
5800.00000	103.98236	1017.75677	103.98236
5850.00000	103.62219	1014.99846	103.62219
5900.00000	103.28005	1012.39387	103.28005
5950.00000	102.95868	1010.09067	102.95868
6000.00000	102.65484	1007.82625	102.65484
6050.00000	102.34113	1005.38941	102.34113
6100.00000	102.03369	1003.14288	102.03369
6150.00000	101.66753	1000.88512	101.66753
6200.00000	101.33566	999.18708	101.33566
6250.00000	101.00812	997.51664	101.00812
6300.00000	100.69075	996.04207	100.69075
6350.00000	100.39836	994.64798	100.39836
6400.00000	100.11059	993.45350	100.11059
6450.00000	99.83166	992.72717	99.83166
6500.00000	99.59723	992.06198	99.59723
6550.00000	99.42676	991.52746	99.42676
6600.00000	99.31150	991.19249	99.31150
6650.00000	99.25804	990.65395	99.25804
6700.00000	99.30283	989.78280	99.30283
6750.00000	99.37369	988.33780	99.37369
6800.00000	99.40907	986.42579	99.40907
6850.00000	99.40848	984.00950	99.40848
6900.00000	99.33119	981.41305	99.33119
6950.00000	99.21576	978.93235	99.21576
7000.00000	99.02766	976.51880	99.02766
7050.00000	98.84074	974.17594	98.84074
7100.00000	98.60043	972.10794	98.60043
7150.00000	98.34955	970.38993	98.34955
7200.00000	98.04765	968.84092	98.04765
7250.00000	97.71644	967.71915	97.71644
7300.00000	97.40707	966.97397	97.40707
7350.00000	97.10720	966.69312	97.10720
7400.00000	96.83092	967.03240	96.83092
7450.00000	96.67142	967.74833	96.67142
7500.00000	96.55710	968.71634	96.55710
7550.00000	96.55916	969.43642	96.55916
7600.00000	96.61790	970.14670	96.61790
7650.00000	96.78801	970.73080	96.78801
7700.00000	97.03849	970.70419	97.03849
7750.00000	97.25576	970.37367	97.25576
7800.00000	97.48794	969.73019	97.48794
7850.00000	97.72923	968.51392	97.72923
7900.00000	97.94319	966.90655	97.94319
7950.00000	98.13162	965.56118	98.13162
8000.00000	98.31425	963.93724	98.31425
8050.00000	98.46523	962.18861	98.46523
8100.00000	98.65098	960.40365	98.65098
8150.00000	98.78490	958.77666	98.78490
8200.00000	98.95245	956.75411	98.95245
8250.00000	99.08162	954.96963	99.08162
8300.00000	99.25180	952.92044	99.25180
8350.00000	99.40235	951.04242	99.40235
8400.00000	99.54539	948.95713	99.54539
8450.00000	99.67835	946.84311	99.67835
8500.00000	99.79945	944.67314	99.79945
8550.00000	99.91970	942.78161	99.91970
8600.00000	100.06037	940.52439	100.06037
8650.00000	100.19579	938.53996	100.19579
8700.00000	100.33874	936.22579	100.33874
8750.00000	100.47052	933.95393	100.47052
8800.00000	100.59439	931.49910	100.59439
8850.00000	100.78276	929.01284	100.78276
8900.00000	100.85492	926.60012	100.85492
8950.00000	100.99835	924.25604	100.99835
9000.00000	101.09894	921.67158	101.09894
9050.00000	101.18622	918.97716	101.18622
9100.00000	101.25026	916.33533	101.25026
9150.00000	101.39256	913.94464	101.39256
9200.00000	101.50997	911.09394	101.50997
9250.00000	101.55004	908.03593	101.55004
9300.00000	101.64808	905.04087	101.64808
9350.00000	101.68432	902.15532	101.68432
9400.00000	101.77256	898.96823	101.77256
9450.00000	101.82915	896.01539	101.82915
9500.00000	101.87607	892.69233	101.87607
9550.00000	101.87924	889.28244	101.87924
9600.00000	101.88274	886.17331	101.88274
9650.00000	101.89865	883.24349	101.89865
9700.00000	101.87357	880.01511	101.87357
9750.00000	101.85317	876.87859	101.85317
9800.00000	101.79698	874.12249	101.79698
9850.00000	101.77129	871.05409	101.77129
9900.00000	101.73340	868.43787	101.73340
9950.00000	101.63615	865.76411	101.63615
10000.00000	101.62807	863.37006	101.62807
10050.00000	101.57814	860.44457	101.57814
10100.00000	101.51210	857.66198	101.51210
10150.00000	101.37858	854.92354	101.37858
10200.00000	101.26528	852.65213	101.26528
10250.00000	101.12596	850.55599	101.12596
10300.00000	101.05426	848.30613	101.05426
10350.00000	100.97042	846.20211	100.97042
10400.00000	100.84835	844.04149	100.84835
10450.00000	100.81256	841.86035	100.81256
10500.00000	100.78966	839.58697	100.78966
10550.00000	100.73981	837.44576	100.73981
10600.00000	100.77180	834.90432	100.77180
10650.00000	100.75555	832.63807	100.75555
10700.00000	100.80215	830.10880	100.80215
10750.00000	100.82527	827.61916	100.82527
10800.00000	100.87646	824.77237	100.87646
10850.00000	100.92424	822.10199	100.92424
10900.00000	100.97258	819.27510	100.97258
10950.00000	100.98949	816.23798	100.98949
11000.00000	101.04105	813.27315	101.04105
11050.00000	100.99352	810.45497	100.99352
11100.00000	101.04435	807.41356	101.04435
11150.00000	100.99866	804.12516	100.99866
11200.00000	100.96080	801.18793	100.96080
11250.00000	100.86224	797.74955	100.86224
11300.00000	100.79951	794.40782	100.79951
11350.00000	100.68719	790.81397	100.68719
11400.00000	100.51098	787.18648	100.51098
11450.00000	100.36693	783.65157	100.36693
11500.00000	100.20252	779.97880	100.20252
11550.00000	100.01621	776.17266	100.01621
11600.00000	99.77466	772.68618	99.77466
11650.00000	99.53563	769.15197	99.53563
11700.00000	99.34390	765.65634	99.34390
11750.00000	99.07512	762.59563	99.07512
11800.00000	98.85269	759.66091	98.85269
11850.00000	98.60449	756.79253	98.60449
11900.00000	98.29512	754.50901	98.29512
11950.00000	98.08160	752.21149	98.08160
12000.00000	97.84188	750.44130	97.84188
12050.00000	97.55703	748.87311	97.55703
12100.00000	97.23208	747.26965	97.23208
12150.00000	96.91755	745.29806	96.91755
12200.00000	96.66623	743.69780	96.66623
12250.00000	96.37897	742.09222	96.37897
12300.00000	95.98401	740.21106	95.98401
12350.00000	95.69771	738.44438	95.69771
12400.00000	95.31639	736.25964	95.31639
12450.00000	95.12749	734.17704	95.12749
12500.00000	94.87433	732.84253	94.87433
12550.00000	94.60139	731.57281	94.60139
12600.00000	94.50179	728.50736	94.50179
12650.00000	94.32713	727.24234	94.32713
12700.00000	93.98615	724.83709	93.98615
12750.00000	93.73741	724.01472	93.73741
12800.00000	93.56476	722.07718	93.56476
12850.00000	93.17406	721.06772	93.17406
12900.00000	92.81442	719.01591	92.81442
12950.00000	92.64394	716.40336	92.64394
13000.00000	92.36659	713.74732	92.36659
13050.00000	92.09216	711.00726	92.09216
13100.00000	91.92650	707.50783	91.92650
13150.00000	91.80345	704.48852	91.80345
13200.00000	91.72742	700.08992	91.72742
13250.00000	91.99734	694.55099	91.99734
13300.00000	92.52486	694.76247	92.52486
13350.00000	93.24251	693.28971	93.24251
13400.00000	94.02386	697.05892	94.02386
13450.00000	94.43562	706.50701	94.43562
13500.00000	93.72061	720.09331	93.72061
13550.00000	92.29180	726.33905	92.29180
13600.00000	90.24759	729.43958	90.24759
13650.00000	88.22033	728.34977	88.22033
13700.00000	86.71136	723.89272	86.71136
13750.00000	85.47515	716.94106	85.47515
13800.00000	84.97104	709.19721	84.97104
13850.00000	84.84758	701.74235	84.84758
13900.00000	84.74448	693.40438	84.74448
13950.00000	85.29641	687.40488	85.29641
14000.00000	86.45266	685.10959	86.45266
14050.00000	87.87358	686.31918	87.87358
14100.00000	89.72154	692.43059	89.72154
14150.00000	90.77467	707.47697	90.77467
14200.00000	90.66600	725.43710	90.66600
14250.00000	89.22786	739.17497	89.22786
14300.00000	87.58153	745.89473	87.58153
14350.00000	86.23364	745.77522	86.23364
14400.00000	85.41065	745.21966	85.41065
14450.00000	84.61678	743.05388	84.61678
14500.00000	84.54306	740.19484	84.54306
14550.00000	84.58835	734.78737	84.58835
14600.00000	84.75143	732.01790	84.75143
14650.00000	85.19488	727.94379	85.19488
14700.00000	85.96417	722.83834	85.96417
14750.00000	86.80440	722.83109	86.80440
14800.00000	87.93044	723.43868	87.93044
14850.00000	89.02916	724.03638	89.02916
14900.00000	90.31995	727.12699	90.31995
14950.00000	90.86944	730.64529	90.86944
15000.00000	91.32711	736.98058	91.32711
15050.00000	91.27327	742.42075	91.27327
15100.00000	90.93706	744.98436	90.93706
15150.00000	90.81599	744.34877	90.81599
15200.00000	90.76097	742.86014	90.76097
15250.00000	90.67834	740.35069	90.67834
15300.00000	90.96294	736.95082	90.96294
15350.00000	91.23435	732.92778	91.23435
15400.00000	91.55427	728.02781	91.55427
15450.00000	92.12432	723.20642	92.12432
15500.00000	92.74561	721.29864	92.74561
15550.00000	93.39183	718.74233	93.39183
15600.00000	94.29604	717.09306	94.29604
15650.00000	94.93938	716.51687	94.93938
15700.00000	95.24762	716.57813	95.24762
15750.00000	95.63645	715.84622	95.63645
15800.00000	95.71231	716.09784	95.71231
15850.00000	95.80175	715.33291	95.80175
15900.00000	95.70466	713.04626	95.70466
15950.00000	95.68882	710.91711	95.68882
16000.00000	95.71665	707.82372	95.71665
16050.00000	95.92378	704.57178	95.92378
16100.00000	96.10694	701.63352	96.10694
16150.00000	96.44449	698.18760	96.44449
16200.00000	96.72638	695.20050	96.72638
16250.00000	97.09750	692.07552	97.09750
16300.00000	97.54114	689.76390	97.54114
16350.00000	97.91921	687.97500	97.91921
16400.00000	98.14246	686.30330	98.14246
16450.00000	98.47207	684.84514	98.47207
16500.00000	98.63077	682.73589	98.63077
16550.00000	98.67082	680.91685	98.67082
16600.00000	98.81024	678.17986	98.81024
16650.00000	98.88717	675.63295	98.88717
16700.00000	98.95127	672.69411	98.95127
16750.00000	99.08706	669.67130	99.08706
16800.00000	99.21400	667.03929	99.21400
16850.00000	99.44176	663.92242	99.44176
16900.00000	99.64782	661.62443	99.64782
16950.00000	99.79433	658.76089	99.79433
17000.00000	99.98752	656.70475	99.98752
17050.00000	100.14437	654.07228	100.14437
17100.00000	100.31986	652.26366	100.31986
17150.00000	100.41809	650.33790	100.41809
17200.00000	100.46460	648.03800	100.46460
17250.00000	100.54385	645.75338	100.54385
17300.00000	100.63665	643.07662	100.63665
17350.00000	100.73443	640.57838	100.73443
17400.00000	100.85424	637.80211	100.85424
17450.00000	101.00737	634.84005	101.00737
17500.00000	101.11368	632.39575	101.11368
17550.00000	101.26558	629.60929	101.26558
17600.00000	101.46185	627.40353	101.46185
17650.00000	101.59252	625.00458	101.59252
17700.00000	101.70485	622.80133	101.70485
17750.00000	101.84913	620.66237	101.84913
17800.00000	101.95835	618.49941	101.95835
17850.00000	102.07471	616.06201	102.07471
17900.00000	102.23031	613.79753	102.23031
17950.00000	102.30660	611.28977	102.30660
18000.00000	102.41975	608.78182	102.41975
18050.00000	102.55959	606.15771	102.55959
18100.00000	102.66969	603.68155	102.66969
18150.00000	102.82580	600.88111	102.82580
18200.00000	102.92464	598.12900	102.92464
18250.00000	103.05962	595.52916	103.05962
18300.00000	103.18475	592.88640	103.18475
18350.00000	103.28490	590.18409	103.28490
18400.00000	103.40805	587.35662	103.40805
18450.00000	103.52744	584.71872	103.52744
18500.00000	103.66613	581.98053	103.66613
18550.00000	103.76461	579.07855	103.76461
18600.00000	103.85407	576.37948	103.85407
18650.00000	103.96459	573.51692	103.96459
18700.00000	104.08597	570.70114	104.08597
18750.00000	104.13939	567.79557	104.13939
18800.00000	104.19230	564.84233	104.19230
18850.00000	104.27282	562.00397	104.27282
18900.00000	104.27808	559.34091	104.27808
18950.00000	104.33006	556.28441	104.33006
19000.00000	104.36841	553.49598	104.36841
19050.00000	104.42381	550.50522	104.42381
19100.00000	104.43892	547.73744	104.43892
19150.00000	104.46565	545.12217	104.46565
19200.00000	104.52171	542.32539	104.52171
19250.00000	104.51883	539.92760	104.51883
19300.00000	104.57625	537.30045	104.57625
19350.00000	104.58822	534.38933	104.58822
19400.00000	104.59105	531.97900	104.59105
19450.00000	104.63027	529.16937	104.63027
19500.00000	104.65988	526.76818	104.65988
19550.00000	104.72102	524.28184	104.72102
19600.00000	104.71963	521.79209	104.71963
19650.00000	104.76553	519.28776	104.76553
19700.00000	104.80722	516.61175	104.80722
19750.00000	104.84177	514.24369	104.84177
19800.00000	104.90783	511.97352	104.90783
19850.00000	104.93823	509.39657	104.93823
19900.00000	105.00547	506.69541	105.00547
19950.00000	105.04545	504.34509	105.04545
20000.00000	105.08947	501.40607	105.08947
20050.00000	105.15128	498.94264	105.15128
20100.00000	105.20707	496.28736	105.20707
20150.00000	105.27314	493.35183	105.27314
20200.00000	105.34467	490.87506	105.34467
20250.00000	105.38981	488.32137	105.38981
20300.00000	105.45065	485.50475	105.45065
20350.00000	105.48664	482.78213	105.48664
20400.00000	105.52747	480.08886	105.52747
20450.00000	105.58238	477.21265	105.58238
20500.00000	105.64856	474.33948	105.64856
20550.00000	105.64958	471.26117	105.64958
20600.00000	105.69409	468.56620	105.69409
20650.00000	105.75384	465.60715	105.75384
20700.00000	105.79054	462.84433	105.79054
20750.00000	105.76972	459.87544	105.76972
20800.00000	105.80323	456.91576	105.80323
20850.00000	105.79420	453.67066	105.79420
20900.00000	105.77716	450.96333	105.77716
20950.00000	105.78558	447.82542	105.78558
21000.00000	105.80422	444.68648	105.80422
21050.00000	105.78483	441.77965	105.78483
21100.00000	105.78193	438.77554	105.78193
21150.00000	105.74916	436.04791	105.74916
21200.00000	105.71345	433.13636	105.71345
21250.00000	105.62592	430.11166	105.62592
21300.00000	105.57546	426.96760	105.57546
21350.00000	105.53742	424.32439	105.53742
21400.00000	105.45274	421.01631	105.45274
21450.00000	105.45395	418.38858	105.45395
21500.00000	105.40317	415.44731	105.40317
21550.00000	105.34929	412.74333	105.34929
21600.00000	105.29401	409.98695	105.29401
21650.00000	105.21418	407.37561	105.21418
21700.00000	105.09661	404.45012	105.09661
21750.00000	105.03538	401.60696	105.03538
21800.00000	104.95028	398.73341	104.95028
21850.00000	104.87883	396.29204	104.87883
21900.00000	104.77132	393.68911	104.77132
21950.00000	104.67385	391.00075	104.67385
22000.00000	104.54058	388.63819	104.54058
22050.00000	104.44284	386.63292	104.44284
22100.00000	104.34913	384.66824	104.34913
22150.00000	104.27300	382.35936	104.27300
22200.00000	104.24255	380.14964	104.24255
22250.00000	104.21609	377.78454	104.21609
22300.00000	104.18770	375.72552	104.18770
22350.00000	104.10457	373.25121	104.10457
22400.00000	104.08916	370.72190	104.08916
22450.00000	104.07049	368.56384	104.07049
22500.00000	104.04043	366.29380	104.04043
22550.00000	104.03374	363.89410	104.03374
22600.00000	103.99597	361.66726	103.99597
22650.00000	103.98440	359.41542	103.98440
22700.00000	103.96805	356.94057	103.96805
22750.00000	103.92641	354.25717	103.92641
22800.00000	103.93677	351.70283	103.93677
22850.00000	103.88691	349.00746	103.88691
22900.00000	103.89615	346.80583	103.89615
22950.00000	103.91425	344.40953	103.91425
23000.00000	103.89955	341.86565	103.89955
23050.00000	103.82839	339.24033	103.82839
23100.00000	103.84766	336.37161	103.84766
23150.00000	103.77879	333.56268	103.77879
23200.00000	103.76474	330.34335	103.76474
23250.00000	103.79038	327.26132	103.79038
23300.00000	103.77544	324.48082	103.77544
23350.00000	103.67263	322.10113	103.67263
23400.00000	103.63710	319.17367	103.63710
23450.00000	103.56185	316.33783	103.56185
23500.00000	103.53945	313.60188	103.53945
23550.00000	103.44389	310.53275	103.44389
23600.00000	103.36468	307.56517	103.36468
23650.00000	103.19941	305.02974	103.19941
23700.00000	103.18130	302.53908	103.18130
23750.00000	103.11444	299.46545	103.11444
23800.00000	103.02918	296.46603	103.02918
23850.00000	102.98535	293.48553	102.98535
23900.00000	102.80038	290.50564	102.80038
23950.00000	102.64718	288.09684	102.64718
24000.00000	102.59567	284.77679	102.59567
24050.00000	102.40494	281.85347	102.40494
24100.00000	102.29230	278.78614	102.29230
24150.00000	102.13737	276.18023	102.13737
24200.00000	102.01726	272.73287	102.01726
24250.00000	101.84392	270.33712	101.84392
24300.00000	101.66803	267.08415	101.66803
24350.00000	101.48686	264.84576	101.48686
24400.00000	101.35962	261.74492	101.35962
24450.00000	101.08801	259.89496	101.08801
24500.00000	100.88048	256.42138	100.88048
24550.00000	100.64710	253.66191	100.64710
24600.00000	100.51791	251.11326	100.51791
24650.00000	100.31817	248.52228	100.31817
24700.00000	100.12171	245.99326	100.12171
24750.00000	99.89242	243.59922	99.89242
24800.00000	99.61296	241.61785	99.61296
24850.00000	99.41384	238.96442	99.41384
24900.00000	99.06223	237.23797	99.06223
24950.00000	98.95509	234.99195	98.95509
25000.00000	98.63659	232.82157	98.63659
25050.00000	98.45140	231.18134	98.45140
25100.00000	98.28146	229.78745	98.28146
25150.00000	97.98515	227.97720	97.98515
25200.00000	97.78698	225.90200	97.78698
25250.00000	97.50563	224.03487	97.50563
25300.00000	97.18281	222.16097	97.18281
25350.00000	97.07145	220.38994	97.07145
25400.00000	96.88004	218.83256	96.88004
25450.00000	96.69462	217.06994	96.69462
25500.00000	96.55350	216.08702	96.55350
25550.00000	96.33163	213.93362	96.33163
25600.00000	96.17942	212.45811	96.17942
25650.00000	95.90079	210.16252	95.90079
25700.00000	95.74165	209.19907	95.74165
25750.00000	95.57526	207.58293	95.57526
25800.00000	95.33637	206.85448	95.33637
25850.00000	95.18193	205.55554	95.18193
25900.00000	95.06289	204.05030	95.06289
25950.00000	94.90171	202.47786	94.90171
26000.00000	94.67754	201.42661	94.67754
26050.00000	94.64392	199.69132	94.64392
26100.00000	94.46006	198.27806	94.46006
26150.00000	94.27943	196.46380	94.27943
26200.00000	94.13486	195.85703	94.13486
26250.00000	94.00723	194.81476	94.00723
26300.00000	93.86160	192.98716	93.86160
26350.00000	93.83321	191.62684	93.83321
26400.00000	93.81350	189.57332	93.81350
26450.00000	93.55703	187.79613	93.55703
26500.00000	93.48243	186.29230	93.48243
26550.00000	93.32052	185.37179	93.32052
26600.00000	93.14008	183.71321	93.14008
26650.00000	92.96043	182.18176	92.96043
26700.00000	92.89169	180.63954	92.89169
26750.00000	92.69359	179.27612	92.69359
26800.00000	92.49102	177.60809	92.49102
26850.00000	92.32278	176.79960	92.32278
26900.00000	92.10465	175.17807	92.10465
26950.00000	91.97864	173.73828	91.97864
27000.00000	91.72344	172.66883	91.72344
27050.00000	91.59996	171.35232	91.59996
27100.00000	91.42322	170.12146	91.42322
27150.00000	91.21696	169.38985	91.21696
27200.00000	91.07035	167.77758	91.07035
27250.00000	90.81209	167.00226	90.81209
27300.00000	90.66882	166.61985	90.66882
27350.00000	90.44663	165.59834	90.44663
27400.00000	90.21700	165.13719	90.21700
27450.00000	90.28093	164.48245	90.28093
27500.00000	90.04277	163.50857	90.04277
27550.00000	89.91006	162.80955	89.91006
27600.00000	89.75316	162.30965	89.75316
27650.00000	89.58063	162.21207	89.58063
27700.00000	89.58617	161.49601	89.58617
27750.00000	89.39298	161.32618	89.39298
27800.00000	89.25747	160.48598	89.25747
27850.00000	89.18884	160.75266	89.18884
27900.00000	89.16498	160.15363	89.16498
27950.00000	89.07245	159.97119	89.07245
28000.00000	88.98646	159.51973	88.98646
28050.00000	88.94942	158.82963	88.94942
28100.00000	88.89979	158.93870	88.89979
28150.00000	88.73839	158.42346	88.73839
28200.00000	88.88077	158.68773	88.88077
28250.00000	88.86927	158.07903	88.86927
28300.00000	88.94707	156.99956	88.94707
28350.00000	89.00965	156.84104	89.00965
28400.00000	88.99724	156.13656	88.99724
28450.00000	88.94195	155.31443	88.94195
28500.00000	88.92956	154.80534	88.92956
28550.00000	89.00100	154.13313	89.00100
28600.00000	89.06483	153.50801	89.06483
28650.00000	89.10361	153.42815	89.10361
28700.00000	89.08718	152.90570	89.08718
28750.00000	89.21228	151.84324	89.21228
28800.00000	89.12394	150.19644	89.12394
28850.00000	89.19370	149.18149	89.19370
28900.00000	89.28106	148.80990	89.28106
28950.00000	89.20809	147.80748	89.20809
29000.00000	89.27801	147.08451	89.27801
29050.00000	89.46750	146.45185	89.46750
29100.00000	89.38812	146.28634	89.38812
29150.00000	89.35230	143.95576	89.35230
29200.00000	89.47171	143.52801	89.47171
29250.00000	89.43922	143.11567	89.43922
29300.00000	89.50767	141.88856	89.50767
29350.00000	89.59222	141.45811	89.59222
29400.00000	89.62107	140.35218	89.62107
29450.00000	89.71952	139.27504	89.71952
29500.00000	89.74836	137.69379	89.74836
29550.00000	89.77541	137.20824	89.77541
29600.00000	89.81994	136.45179	89.81994
29650.00000	89.83554	135.55315	89.83554
29700.00000	89.95395	135.05937	89.95395
29750.00000	89.95916	133.96589	89.95916
29800.00000	89.92856	132.61433	89.92856
29850.00000	90.13838	132.06061	90.13838
29900.00000	90.14640	131.28632	90.14640
29950.00000	90.23609	130.26737	90.23609
30000.00000	90.29574	129.69879	90.29574
30050.00000	90.42260	128.74416	90.42260
30100.00000	90.37204	127.78006	90.37204
30150.00000	90.47506	126.84062	90.47506
30200.00000	90.56927	126.10125	90.56927
30250.00000	90.73471	124.94887	90.73471
30300.00000	90.80357	124.33196	90.80357
30350.00000	90.94641	122.91562	90.94641
30400.00000	90.95158	122.48495	90.95158
30450.00000	91.08393	121.51133	91.08393
30500.00000	91.26732	120.60586	91.26732
30550.00000	91.23619	119.80262	91.23619
30600.00000	91.44221	118.66481	91.44221
30650.00000	91.57058	118.10711	91.57058
30700.00000	91.66150	117.10067	91.66150
30750.00000	91.74473	115.60027	91.74473
30800.00000	91.79835	114.58738	91.79835
30850.00000	91.99738	113.44723	91.99738
30900.00000	92.14214	112.34385	92.14214
30950.00000	92.22605	111.21521	92.22605
31000.00000	92.40307	110.16700	92.40307
31050.00000	92.52730	109.10571	92.52730
31100.00000	92.69374	108.16652	92.69374
31150.00000	92.81690	106.90194	92.81690
31200.00000	93.00021	105.61872	93.00021
31250.00000	93.13277	104.41923	93.13277
31300.00000	93.31250	102.65498	93.31250
31350.00000	93.47474	101.95828	93.47474
31400.00000	93.59892	100.73231	93.59892
31450.00000	93.84814	99.47769	93.84814
31500.00000	93.98737	97.82997	93.98737
31550.00000	94.10209	96.11611	94.10209
31600.00000	94.31609	94.46195	94.31609
31650.00000	94.50316	93.07788	94.50316
31700.00000	94.68953	91.34091	94.68953
31750.00000	94.84537	89.52922	94.84537
31800.00000	94.95571	87.45894	94.95571
31850.00000	95.11044	86.25376	95.11044
31900.00000	95.28515	84.26179	95.28515
31950.00000	95.41080	82.21949	95.41080
32000.00000	95.54849	80.50586	95.54849
32050.00000	95.68866	78.50483	95.68866
32100.00000	95.83135	76.30584	95.83135
32150.00000	95.87359	74.70695	95.87359
32200.00000	96.00749	72.70385	96.00749
32250.00000	96.15539	70.76873	96.15539
32300.00000	96.19064	68.89645	96.19064
32350.00000	96.26441	66.80465	96.26441
32400.00000	96.37320	64.53717	96.37320
32450.00000	96.42129	62.82123	96.42129
32500.00000	96.46857	60.78740	96.46857
32550.00000	96.53430	59.09956	96.53430
32600.00000	96.58889	56.90242	96.58889
32650.00000	96.65261	55.14876	96.65261
32700.00000	96.66431	53.37501	96.66431
32750.00000	96.65208	51.30485	96.65208
32800.00000	96.70266	49.79501	96.70266
32850.00000	96.77169	48.33980	96.77169
32900.00000	96.75280	46.60423	96.75280
32950.00000	96.81658	45.15342	96.81658
33000.00000	96.82172	43.34415	96.82172
33050.00000	96.78039	41.91500	96.78039
33100.00000	96.82756	40.59885	96.82756
33150.00000	96.81941	39.66357	96.81941
33200.00000	96.85559	38.27227	96.85559
33250.00000	96.87455	36.92200	96.87455
33300.00000	96.99433	36.03211	96.99433
33350.00000	96.97671	34.73232	96.97671
33400.00000	97.01268	33.24929	97.01268
33450.00000	97.05873	32.22519	97.05873
33500.00000	97.04494	31.29636	97.04494
33550.00000	97.17096	30.27320	97.17096
33600.00000	97.22515	29.46388	97.22515
33650.00000	97.23667	28.64144	97.23667
33700.00000	97.24375	27.69043	97.24375
33750.00000	97.32118	26.72481	97.32118
33800.00000	97.35546	26.48222	97.35546
33850.00000	97.45544	25.84599	97.45544
33900.00000	97.60846	25.21056	97.60846
33950.00000	97.72470	24.73530	97.72470
34000.00000	97.82342	24.37092	97.82342
34050.00000	98.01269	23.75742	98.01269
34100.00000	98.13130	23.17276	98.13130
34150.00000	98.31114	22.66898	98.31114
34200.00000	98.51037	22.22914	98.51037
34250.00000	98.74546	21.73120	98.74546
34300.00000	98.93304	21.34367	98.93304
34350.00000	99.17429	20.58636	99.17429
34400.00000	99.47478	20.11754	99.47478
34450.00000	99.68765	19.39157	99.68765
34500.00000	100.01656	18.81035	100.01656
34550.00000	100.30004	18.16612	100.30004
34600.00000	100.57652	17.22468	100.57652
34650.00000	100.89239	16.18494	100.89239
34700.00000	101.19275	15.46314	101.19275
34750.00000	101.51408	13.98406	101.51408
34800.00000	101.85049	12.93285	101.85049
34850.00000	102.20565	11.47147	102.20565
34900.00000	102.54309	10.11957	102.54309
34950.00000	102.84954	 8.00455	102.84954
35000.00000	103.10658	 6.93033	103.10658
35050.00000	103.40649	 5.80983	103.40649
35100.00000	103.73986	 4.63089	103.73986
35150.00000	104.08717	 3.33708	104.08717
35200.00000	104.46767	 2.05690	104.46767
35250.00000	104.86258	 0.41729	104.86258
35300.00000	105.28618	-1.08485	105.28618
35350.00000	105.66679	-2.75886	105.66679
35400.00000	106.08695	-4.83139	106.08695
35450.00000	106.51960	-6.89767	106.51960
35500.00000	106.89893	-8.99692	106.89893
35550.00000	107.30121	-11.25521	107.30121
35600.00000	107.72055	-13.57861	107.72055
35650.00000	108.11015	-15.92857	108.11015
35700.00000	108.51754	-18.58005	108.51754
35750.00000	108.84756	-20.99383	108.84756
35800.00000	109.26511	-23.66083	109.26511
35850.00000	109.65347	-26.29443	109.65347
35900.00000	110.04923	-29.04369	110.04923
35950.00000	110.44991	-32.02005	110.44991
36000.00000	110.84377	-34.94081	110.84377
36050.00000	111.19985	-38.11816	111.19985
36100.00000	111.55582	-41.25819	111.55582
36150.00000	111.90167	-44.46514	111.90167
36200.00000	112.26335	-47.82199	112.26335
36250.00000	112.57780	-51.13999	112.57780
36300.00000	112.90266	-54.47837	112.90266
36350.00000	113.21726	-57.97655	113.21726
36400.00000	113.55401	-61.56329	113.55401
36450.00000	113.83031	-65.09084	113.83031
36500.00000	114.11353	-68.66002	114.11353
36550.00000	114.38624	-72.22328	114.38624
36600.00000	114.64749	-75.82110	114.64749
36650.00000	114.89465	-79.28868	114.89465
36700.00000	115.15823	-82.90809	115.15823
36750.00000	115.38159	-86.51330	115.38159
36800.00000	115.61472	-90.00565	115.61472
36850.00000	115.86184	-93.41700	115.86184
36900.00000	116.10220	-97.00605	116.10220
36950.00000	116.32362	-100.44226	116.32362
37000.00000	116.55723	-103.92082	116.55723
37050.00000	116.80150	-107.29455	116.80150
37100.00000	117.04980	-110.76813	117.04980
37150.00000	117.29860	-114.27237	117.29860
37200.00000	117.55490	-117.73695	117.55490
37250.00000	117.82425	-121.29864	117.82425
37300.00000	118.09747	-124.91140	118.09747
37350.00000	118.38562	-128.54739	118.38562
37400.00000	118.67458	-132.42767	118.67458
37450.00000	118.97998	-136.26485	118.97998
37500.00000	119.28335	-140.34350	119.28335
37550.00000	119.59369	-144.64548	119.59369
37600.00000	119.89773	-149.04467	119.89773
37650.00000	120.20117	-153.65430	120.20117
37700.00000	120.49035	-158.42192	120.49035
37750.00000	120.77087	-163.48878	120.77087
37800.00000	121.02252	-168.76614	121.02252
37850.00000	121.24887	-174.17593	121.24887
37900.00000	121.41846	-179.81625	121.41846
37950.00000	121.54372	-185.50428	121.54372
38000.00000	121.63535	-191.19554	121.63535
38050.00000	121.67729	-197.05269	121.67729
38100.00000	121.66384	-202.68858	121.66384
38150.00000	121.61921	-208.23641	121.61921
38200.00000	121.54122	-213.59641	121.54122
38250.00000	121.41938	-218.69527	121.41938
38300.00000	121.31531	-223.66122	121.31531
38350.00000	121.19063	-228.49474	121.19063
38400.00000	121.05208	-233.15703	121.05208
38450.00000	120.91975	-237.58966	120.91975
38500.00000	120.79541	-241.88231	120.79541
38550.00000	120.67192	-246.20835	120.67192
38600.00000	120.55545	-250.40948	120.55545
38650.00000	120.45191	-254.64804	120.45191
38700.00000	120.33981	-258.83166	120.33981
38750.00000	120.22174	-263.04881	120.22174
38800.00000	120.08022	-267.16730	120.08022
38850.00000	119.97379	-271.39350	119.97379
38900.00000	119.83765	-275.56034	119.83765
38950.00000	119.70058	-279.71723	119.70058
39000.00000	119.54975	-283.89684	119.54975
39050.00000	119.38811	-288.04917	119.38811
39100.00000	119.21689	-292.13726	119.21689
39150.00000	119.02924	-296.25379	119.02924
39200.00000	118.83136	-300.22637	118.83136
39250.00000	118.62524	-304.14192	118.62524
39300.00000	118.41280	-307.94154	118.41280
39350.00000	118.18939	-311.67232	118.18939
39400.00000	117.98114	-315.38583	117.98114
39450.00000	117.76968	-318.95384	117.76968
39500.00000	117.55093	-322.53199	117.55093
39550.00000	117.32807	-326.05372	117.32807
39600.00000	117.09883	-329.64383	117.09883
39650.00000	116.85849	-333.09783	116.85849
39700.00000	116.62585	-336.52787	116.62585
39750.00000	116.36755	-339.79370	116.36755
39800.00000	116.10346	-343.04117	116.10346
39850.00000	115.84072	-346.18371	115.84072
39900.00000	115.57223	-349.16207	115.57223
39950.00000	115.32653	-352.08888	115.32653
40000.00000	115.07718	-354.98732	115.07718
40050.00000	114.83266	-357.75374	114.83266
40100.00000	114.58106	-360.59384	114.58106
40150.00000	114.35789	-363.39510	114.35789
40200.00000	114.13167	-366.05627	114.13167
40250.00000	113.90066	-368.69240	113.90066
40300.00000	113.66808	-371.37437	113.66808
40350.00000	113.42627	-373.99421	113.42627
40400.00000	113.20194	-376.68012	113.20194
40450.00000	112.95410	-379.28027	112.95410
40500.00000	112.73921	-381.69269	112.73921
40550.00000	112.48833	-384.26071	112.48833
40600.00000	112.24223	-386.70040	112.24223
40650.00000	112.01395	-389.12882	112.01395
40700.00000	111.76873	-391.56201	111.76873
40750.00000	111.52341	-393.82626	111.52341
40800.00000	111.28312	-396.00458	111.28312
40850.00000	111.03822	-398.41236	111.03822
40900.00000	110.77976	-400.62247	110.77976
40950.00000	110.52345	-402.64733	110.52345
41000.00000	110.25512	-404.65927	110.25512
41050.00000	109.99399	-406.61483	109.99399
41100.00000	109.72610	-408.48775	109.72610
41150.00000	109.51127	-410.21263	109.51127
41200.00000	109.25245	-411.90780	109.25245
41250.00000	109.03495	-413.56232	109.03495
41300.00000	108.76847	-415.10178	108.76847
41350.00000	108.52159	-416.60996	108.52159
41400.00000	108.32929	-418.01978	108.32929
41450.00000	108.07819	-419.31791	108.07819
41500.00000	107.87959	-420.46775	107.87959
41550.00000	107.64298	-421.23432	107.64298
41600.00000	107.44026	-422.57990	107.44026
41650.00000	107.24745	-423.37203	107.24745
41700.00000	107.11645	-424.40903	107.11645
41750.00000	106.94915	-425.06754	106.94915
41800.00000	106.81394	-425.37725	106.81394
41850.00000	106.67460	-426.11342	106.67460
41900.00000	106.59163	-427.12051	106.59163
41950.00000	106.56124	-427.53219	106.56124
42000.00000	106.54070	-427.77825	106.54070
42050.00000	106.50752	-428.58420	106.50752
42100.00000	106.51735	-429.49812	106.51735
42150.00000	106.54479	-430.12526	106.54479
42200.00000	106.59878	-431.20006	106.59878
42250.00000	106.67705	-432.11185	106.67705
42300.00000	106.72501	-433.02233	106.72501
42350.00000	106.75575	-434.19032	106.75575
42400.00000	106.85752	-435.38490	106.85752
42450.00000	106.96198	-436.91472	106.96198
42500.00000	107.04958	-438.12618	107.04958
42550.00000	107.15702	-439.84153	107.15702
42600.00000	107.21077	-441.53365	107.21077
42650.00000	107.29274	-443.21531	107.29274
42700.00000	107.37235	-444.48509	107.37235
42750.00000	107.48520	-446.51936	107.48520
42800.00000	107.51605	-448.26849	107.51605
42850.00000	107.59425	-450.20728	107.59425
42900.00000	107.74621	-452.18414	107.74621
42950.00000	107.76704	-453.85566	107.76704
43000.00000	107.92684	-455.89569	107.92684
43050.00000	107.95217	-458.23195	107.95217
43100.00000	108.07568	-460.27469	108.07568
43150.00000	108.16614	-462.33558	108.16614
43200.00000	108.24139	-464.25760	108.24139
43250.00000	108.30032	-466.50919	108.30032
43300.00000	108.40830	-468.35759	108.40830
43350.00000	108.50258	-470.50250	108.50258
43400.00000	108.54828	-473.13456	108.54828
43450.00000	108.61996	-475.42404	108.61996
43500.00000	108.70535	-477.68189	108.70535
43550.00000	108.79946	-480.18163	108.79946
43600.00000	108.82655	-482.76181	108.82655
43650.00000	108.91826	-485.29048	108.91826
43700.00000	108.95016	-487.94859	108.95016
43750.00000	109.00805	-490.96956	109.00805
43800.00000	109.05238	-493.55466	109.05238
43850.00000	109.06521	-496.03509	109.06521
43900.00000	109.10829	-498.84817	109.10829
43950.00000	109.13919	-502.15321	109.13919
44000.00000	109.11631	-504.63929	109.11631
44050.00000	109.13954	-508.03462	109.13954
44100.00000	109.08368	-510.66962	109.08368
44150.00000	109.07789	-513.36760	109.07789
44200.00000	109.03610	-516.39224	109.03610
44250.00000	109.02726	-519.17318	109.02726
44300.00000	108.93455	-522.39986	108.93455
44350.00000	108.84008	-524.82461	108.84008
44400.00000	108.76378	-527.32227	108.76378
44450.00000	108.65393	-530.03239	108.65393
44500.00000	108.54803	-532.63229	108.54803
44550.00000	108.45307	-534.99937	108.45307
44600.00000	108.29724	-537.25372	108.29724
44650.00000	108.16691	-539.92987	108.16691
44700.00000	108.06161	-541.97567	108.06161
44750.00000	107.91182	-544.19804	107.91182
44800.00000	107.82063	-545.91485	107.82063
44850.00000	107.60423	-548.31088	107.60423
44900.00000	107.49849	-550.67996	107.49849
44950.00000	107.35140	-552.60969	107.35140
45000.00000	107.23229	-554.09814	107.23229
45050.00000	107.11786	-555.87709	107.11786
45100.00000	107.06392	-557.95738	107.06392
45150.00000	106.90365	-559.27159	106.90365
45200.00000	106.86624	-560.91918	106.86624
45250.00000	106.80333	-562.29524	106.80333
45300.00000	106.68888	-563.88072	106.68888
45350.00000	106.59459	-565.40045	106.59459
45400.00000	106.61385	-566.76422	106.61385
45450.00000	106.66617	-567.67706	106.66617
45500.00000	106.56380	-569.34614	106.56380
45550.00000	106.63467	-571.19836	106.63467
45600.00000	106.65330	-572.95431	106.65330
45650.00000	106.63203	-574.53785	106.63203
45700.00000	106.60531	-576.15942	106.60531
45750.00000	106.59453	-578.04600	106.59453
45800.00000	106.54564	-580.21076	106.54564
45850.00000	106.52420	-581.65353	106.52420
45900.00000	106.52655	-583.28284	106.52655
45950.00000	106.54862	-584.94387	106.54862
46000.00000	106.57884	-586.69892	106.57884
46050.00000	106.67871	-588.77210	106.67871
46100.00000	106.71823	-590.81559	106.71823
46150.00000	106.76320	-592.75821	106.76320
46200.00000	106.70364	-595.75485	106.70364
46250.00000	106.65033	-598.13018	106.65033
46300.00000	106.63741	-600.16695	106.63741
46350.00000	106.53944	-601.90967	106.53944
46400.00000	106.39808	-604.24833	106.39808
46450.00000	106.31780	-605.94029	106.31780
46500.00000	106.20321	-607.78117	106.20321
46550.00000	106.09671	-609.22859	106.09671
46600.00000	106.02060	-610.90697	106.02060
46650.00000	105.96764	-611.58599	105.96764
46700.00000	105.85870	-612.99245	105.85870
46750.00000	105.85649	-613.52030	105.85649
46800.00000	105.77706	-614.62902	105.77706
46850.00000	105.70254	-615.72468	105.70254
46900.00000	105.72741	-616.49339	105.72741
46950.00000	105.78279	-617.30744	105.78279
47000.00000	105.76876	-617.92077	105.76876
47050.00000	105.84907	-619.28208	105.84907
47100.00000	106.00939	-619.86810	106.00939
47150.00000	106.02872	-620.15465	106.02872
47200.00000	106.20537	-621.31943	106.20537
47250.00000	106.29216	-622.97419	106.29216
47300.00000	106.53409	-623.74313	106.53409
47350.00000	106.74140	-624.71709	106.74140
47400.00000	106.81259	-625.45860	106.81259
47450.00000	107.15647	-626.99474	107.15647
47500.00000	107.29188	-627.62679	107.29188
47550.00000	107.52063	-629.36240	107.52063
47600.00000	107.69144	-630.90351	107.69144
47650.00000	107.92584	-632.28804	107.92584
47700.00000	108.18067	-634.24048	108.18067
47750.00000	108.40651	-636.23572	108.40651
47800.00000	108.70838	-637.89755	108.70838
47850.00000	108.95506	-639.89751	108.95506
47900.00000	109.22693	-641.30321	109.22693
47950.00000	109.49905	-643.63105	109.49905
48000.00000	109.80672	-646.32982	109.80672
48050.00000	110.11325	-648.41982	110.11325
48100.00000	110.32197	-651.41668	110.32197
48150.00000	110.61636	-654.00656	110.61636
48200.00000	110.87179	-657.01795	110.87179
48250.00000	111.09654	-659.36880	111.09654
48300.00000	111.42533	-662.06352	111.42533
48350.00000	111.75865	-665.16697	111.75865
48400.00000	111.87912	-668.89628	111.87912
48450.00000	112.18391	-672.15382	112.18391
48500.00000	112.37075	-675.19638	112.37075
48550.00000	112.60190	-678.28971	112.60190
48600.00000	112.84227	-683.06034	112.84227
48650.00000	112.99007	-686.08755	112.99007
48700.00000	113.13254	-689.38629	113.13254
48750.00000	113.35296	-693.75084	113.35296
48800.00000	113.47222	-696.89884	113.47222
48850.00000	113.54354	-341.70822	113.54354
48900.00000	113.79689	14.88748	113.79689
48950.00000	113.79147	370.99123	113.79147
49000.00000	113.93193	726.61021	113.93193
49050.00000	114.04251	1082.08544	114.04251
49100.00000	114.10116	1438.67862	114.10116
49150.00000	114.21357	1793.96762	114.21357
49200.00000	114.09501	2150.86186	114.09501
49250.00000	114.19293	2506.98750	114.19293
49300.00000	114.19895	2863.43231	114.19895
49350.00000	114.11257	3219.47443	114.11257
49400.00000	113.94106	3574.64513	113.94106
49450.00000	113.98017	3931.48143	113.98017
49500.00000	113.89278	4288.31564	113.89278
49550.00000	113.86680	4644.29838	113.86680
49600.00000	113.80176	5000.94013	113.80176
49650.00000	113.76441	5356.25675	113.76441
49700.00000	113.52157	5713.18400	113.52157
49750.00000	113.45180	6070.34051	113.45180
49800.00000	113.33829	6067.70343	113.33829
49850.00000	113.27239	6782.78047	113.27239
49900.00000	113.24329	6780.17232	113.24329
49950.00000	112.98699	7137.35820	112.98699
50000.00000	113.02719	7134.37957	113.02719
50050.00000	112.82242	7131.29950	112.82242
50100.00000	112.69421	7128.20814	112.69421
50150.00000	112.65951	7125.22968	112.65951
50200.00000	112.57305	7122.23914	112.57305
50250.00000	112.35739	7119.54430	112.35739
50300.00000	112.34384	7116.79841	112.34384
50350.00000	112.19547	7114.95367	112.19547
50400.00000	112.15817	7111.66742	112.15817
50450.00000	111.97769	7108.67001	111.97769
50500.00000	111.88054	7107.48278	111.88054
50550.00000	111.73357	7104.09098	111.73357
50600.00000	111.72805	7101.51638	111.72805
50650.00000	111.70197	7099.45844	111.70197
50700.00000	111.50168	7096.38542	111.50168
50750.00000	111.40131	7094.24367	111.40131
50800.00000	111.35502	7091.22821	111.35502
50850.00000	111.38088	7089.19813	111.38088
50900.00000	111.25246	7086.03121	111.25246
50950.00000	111.27255	7083.18144	111.27255
51000.00000	111.33322	7080.15398	111.33322
51050.00000	111.29086	7078.24455	111.29086
51100.00000	111.20308	7074.82535	111.20308
51150.00000	111.11845	7071.67266	111.11845
51200.00000	111.04388	7068.73277	111.04388
51250.00000	111.05477	7066.42824	111.05477
51300.00000	111.03038	7062.18545	111.03038
51350.00000	110.91239	7060.69178	110.91239
51400.00000	110.88395	7055.98031	110.88395
51450.00000	110.60874	7053.83855	110.60874
51500.00000	110.54972	7050.26163	110.54972
51550.00000	110.42045	7047.26797	110.42045
51600.00000	110.23314	7043.60969	110.23314
51650.00000	109.85553	7040.58470	109.85553
51700.00000	109.72862	7037.18091	109.72862
51750.00000	109.42356	7034.65877	109.42356
51800.00000	109.21113	7031.61001	109.21113
51850.00000	108.98421	7028.29963	108.98421
51900.00000	108.59557	7025.87776	108.59557
51950.00000	108.13693	7023.99841	108.13693
52000.00000	107.75701	7022.27764	107.75701
52050.00000	107.52295	7020.47613	107.52295
52100.00000	107.11064	7019.67970	107.11064
52150.00000	106.75624	7018.89904	106.75624
52200.00000	106.48524	7017.21185	106.48524
52250.00000	106.22154	7016.80777	106.22154
52300.00000	105.81831	7017.99752	105.81831
52350.00000	105.70931	7017.68959	105.70931
52400.00000	105.58891	7016.43569	105.58891
52450.00000	105.58958	7016.29058	105.58958
52500.00000	105.45974	7016.18414	105.45974
52550.00000	105.34273	7017.62034	105.34273
52600.00000	105.22519	7016.29510	105.22519
52650.00000	105.45929	7016.73489	105.45929
52700.00000	105.48230	7016.98979	105.48230
52750.00000	105.60912	7016.26755	105.60912
52800.00000	105.82330	7016.29950	105.82330
52850.00000	105.89132	7016.00755	105.89132
52900.00000	106.09703	7014.69427	106.09703
52950.00000	106.26734	7013.93407	106.26734
53000.00000	106.50496	7012.18300	106.50496
53050.00000	106.64986	7011.30022	106.64986
53100.00000	106.89550	7009.50488	106.89550
53150.00000	107.20072	7008.79036	107.20072
53200.00000	107.29088	7006.67185	107.29088
53250.00000	107.61744	7005.44047	107.61744
53300.00000	107.85099	7002.65587	107.85099
53350.00000	107.91724	7000.97822	107.91724
53400.00000	108.27479	6998.86006	108.27479
53450.00000	108.48453	6996.23583	108.48453
53500.00000	108.67036	6994.18718	108.67036
53550.00000	108.92077	6991.28364	108.92077
53600.00000	109.05013	6988.40404	109.05013
53650.00000	109.29595	6985.56993	109.29595
53700.00000	109.45832	6982.80688	109.45832
53750.00000	109.66187	6979.24260	109.66187
53800.00000	109.84849	6977.16782	109.84849
53850.00000	110.01652	6973.60922	110.01652
53900.00000	110.14860	6971.38479	110.14860
53950.00000	110.31830	6967.24420	110.31830
54000.00000	110.43631	6963.86985	110.43631
54050.00000	110.62113	6959.98336	110.62113
54100.00000	110.73425	6956.56566	110.73425
54150.00000	110.83313	6952.63350	110.83313
54200.00000	110.76383	6949.48723	110.76383
54250.00000	110.93479	6945.12772	110.93479
54300.00000	110.88168	6941.21525	110.88168
54350.00000	110.96854	6937.76936	110.96854
54400.00000	111.11073	6934.46812	111.11073
54450.00000	111.02889	6930.19557	111.02889
54500.00000	110.90853	6926.95427	110.90853
54550.00000	110.85469	6923.25434	110.85469
54600.00000	110.85369	6920.23027	110.85369
54650.00000	110.81472	6915.88255	110.81472
54700.00000	110.69363	6912.73360	110.69363
54750.00000	110.72379	6909.21741	110.72379
54800.00000	110.59638	6905.74890	110.59638
54850.00000	110.43972	6902.42995	110.43972
54900.00000	110.42400	6898.55299	110.42400
54950.00000	110.37023	6896.00072	110.37023
55000.00000	110.34088	6892.53513	110.34088
55050.00000	110.13988	6889.29927	110.13988
55100.00000	110.14778	6886.11512	110.14778
55150.00000	110.05071	6882.89730	110.05071
55200.00000	109.90604	6879.53985	109.90604
55250.00000	109.83177	6876.36663	109.83177
55300.00000	109.77033	6873.02168	109.77033
55350.00000	109.63697	6870.06522	109.63697
55400.00000	109.54671	6866.61229	109.54671
55450.00000	109.44333	6863.94046	109.44333
55500.00000	109.35445	6860.55981	109.35445
55550.00000	109.23634	6857.45721	109.23634
55600.00000	109.15475	6854.40579	109.15475
55650.00000	109.07820	6851.23699	109.07820
55700.00000	108.96152	6847.57211	108.96152
55750.00000	108.82802	6844.58490	108.82802
55800.00000	108.76292	6841.30316	108.76292
55850.00000	108.65023	6837.78835	108.65023
55900.00000	108.49579	6834.29706	108.49579
55950.00000	108.38018	6831.18630	108.38018
56000.00000	108.27130	6827.41230	108.27130
56050.00000	108.08326	6824.21850	108.08326
56100.00000	107.91838	6820.57584	107.91838
56150.00000	107.72742	6817.19576	107.72742
56200.00000	107.52945	6813.63665	107.52945
56250.00000	107.29673	6810.49282	107.29673
56300.00000	107.02594	6806.71224	107.02594
56350.00000	106.79163	6803.50383	106.79163
56400.00000	106.53393	6800.62547	106.53393
56450.00000	106.25720	6797.48457	106.25720
56500.00000	105.96653	6794.30497	105.96653
56550.00000	105.68644	6791.64237	105.68644
56600.00000	105.31579	6788.90394	105.31579
56650.00000	105.07610	6786.57107	105.07610
56700.00000	104.73553	6784.16072	104.73553
56750.00000	104.39927	6781.62897	104.39927
56800.00000	104.12017	6779.85213	104.12017
56850.00000	103.83187	6777.11495	103.83187
56900.00000	103.59744	6775.48355	103.59744
56950.00000	103.28560	6773.74393	103.28560
57000.00000	103.05106	6771.79619	103.05106
57050.00000	102.84996	6769.90066	102.84996
57100.00000	102.50828	6768.27498	102.50828
57150.00000	102.29123	6766.54965	102.29123
57200.00000	102.04152	6765.08990	102.04152
57250.00000	101.84583	6763.15885	101.84583
57300.00000	101.63633	6760.88530	101.63633
57350.00000	101.37912	6759.84094	101.37912
57400.00000	101.22142	6758.64685	101.22142
57450.00000	100.98194	6756.55254	100.98194
57500.00000	100.80351	6755.08786	100.80351
57550.00000	100.61152	6753.24381	100.61152
57600.00000	100.45128	6752.22919	100.45128
57650.00000	100.19230	6750.23511	100.19230
57700.00000	99.97577	6749.24546	99.97577
57750.00000	99.82490	6747.79134	99.82490
57800.00000	99.57035	6746.87470	99.57035
57850.00000	99.40648	6745.54087	99.40648
57900.00000	99.19838	6744.63232	99.19838
57950.00000	99.07857	6743.57244	99.07857
58000.00000	98.92975	6742.14948	98.92975
58050.00000	98.75142	6741.16074	98.75142
58100.00000	98.65010	6740.84281	98.65010
58150.00000	98.53545	6739.42731	98.53545
58200.00000	98.45373	6738.89398	98.45373
58250.00000	98.32768	6737.43752	98.32768
58300.00000	98.28668	6736.17258	98.28668
58350.00000	98.17479	6735.63296	98.17479
58400.00000	98.08473	6734.13187	98.08473
58450.00000	97.95490	6733.43181	97.95490
58500.00000	97.87331	6732.31481	97.87331
58550.00000	97.83582	6731.54896	97.83582
58600.00000	97.70383	6730.70646	97.70383
58650.00000	97.65157	6729.70859	97.65157
58700.00000	97.58022	6728.82267	97.58022
58750.00000	97.51085	6728.09889	97.51085
58800.00000	97.49339	6727.83098	97.49339
58850.00000	97.46170	6727.40901	97.46170
58900.00000	97.43484	6726.70004	97.43484
58950.00000	97.48520	6726.25369	97.48520
59000.00000	97.49066	6725.75661	97.49066
59050.00000	97.49995	6725.42211	97.49995
59100.00000	97.68774	6724.64235	97.68774
59150.00000	97.72276	6724.66455	97.72276
59200.00000	97.87381	6723.63903	97.87381
59250.00000	97.93843	6722.79640	97.93843
59300.00000	98.09698	6722.51561	98.09698
59350.00000	98.32468	6721.92162	98.32468
59400.00000	98.48774	6721.00387	98.48774
59450.00000	98.66791	6720.08749	98.66791
59500.00000	98.87881	6719.74135	98.87881
59550.00000	99.17055	6719.00662	99.17055
59600.00000	99.49186	6717.91500	99.49186
59650.00000	99.86625	6716.31125	99.86625
59700.00000	100.26731	6714.68382	100.26731
59750.00000	100.67131	6713.09128	100.67131
59800.00000	101.06723	6710.58479	101.06723
59850.00000	101.47706	6707.64046	101.47706
59900.00000	101.86363	6704.19247	101.86363
59950.00000	102.25045	6700.86016	102.25045
60000.00000	102.60347	6696.88427	102.60347
60050.00000	102.90621	6692.22840	102.90621
60100.00000	103.12219	6687.82017	103.12219
60150.00000	103.30018	6683.10521	103.30018
60200.00000	103.40593	6677.95759	103.40593
60250.00000	103.42358	6673.08361	103.42358
60300.00000	103.39774	6668.53255	103.39774
60350.00000	103.30135	6663.96173	103.30135
60400.00000	103.21926	6659.31766	103.21926
60450.00000	103.03792	6655.22452	103.03792
60500.00000	102.88539	6651.39848	102.88539
60550.00000	102.65837	6647.50756	102.65837
60600.00000	102.43084	6644.28125	102.43084
60650.00000	102.22595	6640.87260	102.22595
60700.00000	101.97396	6637.70353	101.97396
60750.00000	101.71709	6634.89782	101.71709
60800.00000	101.45877	6631.81052	101.45877
60850.00000	101.20296	6629.15463	101.20296
60900.00000	100.96302	6626.87396	100.96302
60950.00000	100.69525	6624.72371	100.69525
61000.00000	100.44077	6623.00721	100.44077
61050.00000	100.23168	6620.54813	100.23168
61100.00000	99.97645	6618.99970	99.97645
61150.00000	99.79027	6617.46443	99.79027
61200.00000	99.61192	6616.17088	99.61192
61250.00000	99.43416	6614.87702	99.43416
61300.00000	99.23824	6613.73169	99.23824
61350.00000	99.09910	6612.67900	99.09910
61400.00000	99.03050	6611.54113	99.03050
61450.00000	98.87668	6610.84205	98.87668
61500.00000	98.79492	6609.99687	98.79492
61550.00000	98.77182	6609.03719	98.77182
61600.00000	98.81945	6608.57339	98.81945
61650.00000	98.75685	6607.41123	98.75685
61700.00000	98.79488	6606.72308	98.79488
61750.00000	98.85584	6605.64369	98.85584
61800.00000	99.01553	6605.56698	99.01553
61850.00000	98.99444	6604.21441	98.99444
61900.00000	99.23699	6603.40497	99.23699
61950.00000	99.38675	6602.46145	99.38675
62000.00000	99.65460	6601.28777	99.65460
62050.00000	99.88769	6599.54481	99.88769
62100.00000	100.19235	6597.78698	100.19235
62150.00000	100.40910	6595.56150	100.40910
62200.00000	100.72894	6593.41686	100.72894
62250.00000	100.94436	6590.88158	100.94436
62300.00000	101.17651	6588.11085	101.17651
62350.00000	101.39782	6585.11569	101.39782
62400.00000	101.61252	6581.87600	101.61252
62450.00000	101.83942	6578.85277	101.83942
62500.00000	102.02876	6575.50079	102.02876
62550.00000	102.21788	6571.97554	102.21788
62600.00000	102.28965	6568.13224	102.28965
62650.00000	102.38268	6564.48874	102.38268
62700.00000	102.44137	6560.72718	102.44137
62750.00000	102.53244	6557.12634	102.53244
62800.00000	102.58388	6553.25163	102.58388
62850.00000	102.58625	6549.79769	102.58625
62900.00000	102.56489	6545.99223	102.56489
62950.00000	102.46258	6542.59642	102.46258
63000.00000	102.42441	6539.07854	102.42441
63050.00000	102.44197	6535.77083	102.44197
63100.00000	102.30257	6532.15152	102.30257
63150.00000	102.29050	6529.21960	102.29050
63200.00000	102.15779	6525.77312	102.15779
63250.00000	102.11932	6523.12260	102.11932
63300.00000	102.01636	6519.99207	102.01636
63350.00000	101.93346	6517.22902	101.93346
63400.00000	101.84665	6514.51556	101.84665
63450.00000	101.86274	6511.35095	101.86274
63500.00000	101.75815	6508.88444	101.75815
63550.00000	101.70508	6506.25813	101.70508
63600.00000	101.68902	6503.75562	101.68902
63650.00000	101.65543	6500.94290	101.65543
63700.00000	101.65890	6498.07087	101.65890
63750.00000	101.69945	6495.27832	101.69945
63800.00000	101.65669	6492.58014	101.65669
63850.00000	101.66677	6489.63235	101.66677
63900.00000	101.80159	6487.04810	101.80159
63950.00000	101.77004	6483.50241	101.77004
64000.00000	101.77769	6479.79495	101.77769
64050.00000	101.84023	6476.10498	101.84023
64100.00000	101.86422	6471.73107	101.86422
64150.00000	101.75049	6467.34108	101.75049
64200.00000	101.55901	6462.97267	101.55901
64250.00000	101.29358	6458.69540	101.29358
64300.00000	100.91164	6455.36734	100.91164
64350.00000	100.62184	6451.98708	100.62184
64400.00000	100.29152	6449.93048	100.29152
64450.00000	99.96395	6447.60614	99.96395
64500.00000	99.74576	6446.61109	99.74576
64550.00000	99.50810	6444.63114	99.50810
64600.00000	99.42777	6444.00657	99.42777
64650.00000	99.30697	6442.16630	99.30697
64700.00000	99.37645	6440.46371	99.37645
64750.00000	99.44494	6438.65425	99.44494
64800.00000	99.41644	6436.22103	99.41644
64850.00000	99.45546	6433.28976	99.45546
64900.00000	99.51934	6431.51942	99.51934
64950.00000	99.46866	6428.84608	99.46866
65000.00000	99.52043	6425.85230	99.52043
65050.00000	99.58667	6422.86990	99.58667
65100.00000	99.56423	6419.49190	99.56423
65150.00000	99.51956	6416.65521	99.51956
65200.00000	99.54121	6413.51321	99.54121
65250.00000	99.46552	6410.31825	99.46552
65300.00000	99.47261	6406.88645	99.47261
65350.00000	99.39652	6403.21083	99.39652
65400.00000	99.31078	6400.16221	99.31078
65450.00000	99.28936	6396.03954	99.28936
65500.00000	99.15209	6392.49463	99.15209
65550.00000	98.99843	6389.29607	98.99843
65600.00000	98.82055	6384.96938	98.82055
65650.00000	98.59890	6381.63402	98.59890
65700.00000	98.38831	6378.02056	98.38831
65750.00000	98.18283	6375.23751	98.18283
65800.00000	97.93857	6371.60531	97.93857
65850.00000	97.72279	6368.97222	97.72279
65900.00000	97.41559	6366.23790	97.41559
65950.00000	97.13843	6362.55349	97.13843
66000.00000	96.90433	6360.11464	96.90433
66050.00000	96.62891	6357.44880	96.62891
66100.00000	96.35712	6355.45590	96.35712
66150.00000	96.09783	6352.49254	96.09783
66200.00000	95.75023	6350.28412	95.75023
66250.00000	95.61818	6348.85019	95.61818
66300.00000	95.25656	6346.07785	95.25656
66350.00000	95.17569	6343.94209	95.17569
66400.00000	94.87219	6341.88580	94.87219
66450.00000	94.58510	6339.74433	94.58510
66500.00000	94.45423	6337.46561	94.45423
66550.00000	94.17880	6336.15787	94.17880
66600.00000	93.83450	6334.68721	93.83450
66650.00000	93.78512	6333.36426	93.78512
66700.00000	93.57228	6331.70493	93.57228
66750.00000	93.37463	6330.58774	93.37463
66800.00000	93.20656	6328.30627	93.20656
66850.00000	93.09769	6326.36207	93.09769
66900.00000	93.03852	6325.31011	93.03852
66950.00000	92.74789	6323.74498	92.74789
67000.00000	92.71305	6321.57191	92.71305
67050.00000	92.60062	6319.99273	92.60062
67100.00000	92.51442	6318.45539	92.51442
67150.00000	92.41058	6316.21922	92.41058
67200.00000	92.15039	6314.77115	92.15039
67250.00000	91.99856	6313.57926	91.99856
67300.00000	91.91415	6313.35686	91.91415
67350.00000	91.62585	6311.44895	91.62585
67400.00000	91.68299	6310.21794	91.68299
67450.00000	91.63288	6309.63208	91.63288
67500.00000	91.75488	6308.37199	91.75488
67550.00000	91.74641	6307.05173	91.74641
67600.00000	91.84830	6304.24906	91.84830
67650.00000	91.94316	6302.73611	91.94316
67700.00000	92.02524	6300.63264	92.02524
67750.00000	92.01730	6297.61544	92.01730
67800.00000	92.00546	6296.39061	92.00546
67850.00000	92.07654	6292.73626	92.07654
67900.00000	91.96679	6290.18025	91.96679
67950.00000	91.91984	6288.16468	91.91984
68000.00000	91.88188	6285.91376	91.88188
68050.00000	91.81015	6282.80798	91.81015
68100.00000	91.81151	6279.95510	91.81151
68150.00000	91.45711	6278.02913	91.45711
68200.00000	91.40345	6275.07561	91.40345
68250.00000	91.37636	6273.62568	91.37636
68300.00000	91.39686	6270.52679	91.39686
68350.00000	91.15109	6269.54136	91.15109
68400.00000	91.11631	6267.09221	91.11631
68450.00000	91.03958	6264.95394	91.03958
68500.00000	90.95410	6262.90736	90.95410
68550.00000	90.78859	6261.02231	90.78859
68600.00000	90.75022	6259.10923	90.75022
68650.00000	90.75120	6256.76351	90.75120
68700.00000	90.60486	6255.34913	90.60486
68750.00000	90.55720	6253.66154	90.55720
68800.00000	90.40433	6251.78056	90.40433
68850.00000	90.47160	6250.17213	90.47160
68900.00000	90.50585	6248.35875	90.50585
68950.00000	90.47613	6247.47083	90.47613
69000.00000	90.60968	6245.62011	90.60968
69050.00000	90.66582	6243.71231	90.66582
69100.00000	90.77178	6241.67289	90.77178
69150.00000	91.01909	6239.40188	91.01909
69200.00000	91.07283	6237.02304	91.07283
69250.00000	91.35253	6234.76143	91.35253
69300.00000	91.40745	6231.50418	91.40745
69350.00000	91.64931	6228.33794	91.64931
69400.00000	91.70865	6225.18032	91.70865
69450.00000	91.91071	6220.77859	91.91071
69500.00000	92.00442	6216.59699	92.00442
69550.00000	91.99460	6212.56874	91.99460
69600.00000	92.00388	6207.52545	92.00388
69650.00000	92.03904	6203.98162	92.03904
69700.00000	91.92083	6199.41375	91.92083
69750.00000	91.86112	6194.61281	91.86112
69800.00000	91.67174	6190.30308	91.67174
69850.00000	91.43819	6185.82115	91.43819
69900.00000	91.26348	6181.51957	91.26348
69950.00000	90.98583	6177.49644	90.98583
70000.00000	90.74382	6173.63882	90.74382
70050.00000	90.44612	6170.69443	90.44612
70100.00000	90.15619	6166.96039	90.15619
70150.00000	89.89284	6163.54038	89.89284
70200.00000	89.64026	6159.87006	89.64026
70250.00000	89.39785	6157.10768	89.39785
70300.00000	89.02094	6154.48102	89.02094
70350.00000	88.81187	6151.31300	88.81187
70400.00000	88.40601	6148.07781	88.40601
70450.00000	88.05218	6144.20718	88.05218
70500.00000	87.85882	6141.65941	87.85882
70550.00000	87.46410	6138.39381	87.46410
70600.00000	87.11170	6137.17129	87.11170
70650.00000	86.55981	6134.84981	86.55981
70700.00000	86.39699	6132.17488	86.39699
70750.00000	85.91200	6130.83551	85.91200
70800.00000	85.42263	6132.20389	85.42263
70850.00000	85.50732	6132.40986	85.50732
70900.00000	85.62666	6130.86567	85.62666
70950.00000	86.00010	6131.00390	86.00010
71000.00000	86.55752	6128.07583	86.55752
71050.00000	86.94041	6124.82264	86.94041
71100.00000	87.07109	6119.36808	87.07109
71150.00000	87.47093	6114.12267	87.47093
71200.00000	87.26098	6106.78220	87.26098
71250.00000	87.38649	6101.39530	87.38649
71300.00000	87.21448	6094.43426	87.21448
71350.00000	86.94192	6088.55429	86.94192
71400.00000	86.85137	6080.99611	86.85137
71450.00000	86.47256	6073.99816	86.47256
71500.00000	85.89086	6067.67031	85.89086
71550.00000	85.56396	6058.75099	85.56396
71600.00000	84.82321	6052.93051	84.82321
71650.00000	83.98561	6044.66296	83.98561
71700.00000	83.01049	6038.60161	83.01049
71750.00000	82.20218	6035.76118	82.20218
71800.00000	81.05809	6029.62831	81.05809
71850.00000	80.03259	6028.16674	80.03259
71900.00000	79.02907	6024.27847	79.02907
71950.00000	77.94438	6020.17596	77.94438
72000.00000	77.48157	6024.71705	77.48157
72050.00000	76.22169	6015.55049	76.22169
72100.00000	76.20535	6020.21667	76.20535
72150.00000	75.88316	6016.53208	75.88316
72200.00000	75.71236	6006.23878	75.71236
72250.00000	75.63562	6002.45233	75.63562
72300.00000	75.28167	6002.28747	75.28167
72350.00000	74.65411	5992.31224	74.65411
72400.00000	74.53458	5989.27682	74.53458
72450.00000	73.76052	5976.44341	73.76052
72500.00000	74.11297	5978.87631	74.11297
72550.00000	73.78721	5969.86895	73.78721
72600.00000	72.60624	5964.96306	72.60624
72650.00000	74.10190	5954.02289	74.10190
72700.00000	73.38463	5950.69200	73.38463
72750.00000	74.00363	5938.86379	74.00363
72800.00000	72.84525	5937.22805	72.84525
72850.00000	74.25989	5922.06170	74.25989
72900.00000	74.72518	5913.64526	74.72518
72950.00000	74.97941	5909.85621	74.97941
73000.00000	75.73605	5895.72480	75.73605
73050.00000	76.54856	5895.56986	76.54856
73100.00000	76.47246	5887.36186	76.47246
73150.00000	76.64444	5877.38740	76.64444
73200.00000	78.07667	5875.15976	78.07667
73250.00000	78.27257	5861.40974	78.27257
73300.00000	79.06902	5856.94162	79.06902
73350.00000	79.54520	5856.20830	79.54520
73400.00000	80.70693	5845.28196	80.70693
73450.00000	80.63455	5840.52611	80.63455
73500.00000	80.99926	5832.86557	80.99926
73550.00000	81.37908	5824.51764	81.37908
73600.00000	81.99068	5820.65694	81.99068
73650.00000	81.95836	5815.23670	81.95836
73700.00000	82.62534	5807.30327	82.62534
73750.00000	82.91525	5805.00694	82.91525
73800.00000	82.90796	5798.15808	82.90796
73850.00000	83.33728	5790.89979	83.33728
73900.00000	83.10233	5787.04610	83.10233
73950.00000	83.49592	5780.70158	83.49592
74000.00000	83.52805	5780.51193	83.52805
74050.00000	83.93357	5771.31699	83.93357
74100.00000	84.39020	5768.09398	84.39020
74150.00000	84.94618	5762.41532	84.94618
74200.00000	84.81963	5754.54619	84.81963
74250.00000	85.09866	5748.41864	85.09866
74300.00000	85.82934	5731.03376	85.82934
74350.00000	85.98426	5717.84289	85.98426
74400.00000	84.11348	5668.94752	84.11348
74450.00000	80.37422	5497.96174	80.37422
74500.00000	85.70381	5432.26333	85.70381
74550.00000	85.05743	5409.69085	85.05743
74600.00000	84.07910	5387.25498	84.07910
74650.00000	85.70293	5381.91249	85.70293
74700.00000	83.93352	5376.88049	83.93352
74750.00000	85.28389	5364.69667	85.28389
74800.00000	85.48584	5366.70914	85.48584
74850.00000	83.66050	5354.33918	83.66050
74900.00000	85.26831	5349.75810	85.26831
74950.00000	84.09672	5350.60012	84.09672
75000.00000	84.11259	5343.12194	84.11259
75050.00000	84.66070	5342.65627	84.66070
75100.00000	83.12208	5339.96326	83.12208
75150.00000	83.27239	5332.52580	83.27239
75200.00000	83.75661	5335.10591	83.75661
75250.00000	82.33969	5324.82682	82.33969
75300.00000	83.65390	5321.93639	83.65390
75350.00000	82.99632	5328.06309	82.99632
75400.00000	81.83673	5317.60115	81.83673
75450.00000	83.35876	5320.87954	83.35876
75500.00000	81.70001	5322.27557	81.70001
75550.00000	82.11043	5308.57383	82.11043
75600.00000	83.12758	5318.73792	83.12758
75650.00000	81.03279	5311.86727	81.03279
75700.00000	82.27143	5300.83342	82.27143
75750.00000	82.40800	5313.18898	82.40800
75800.00000	79.96305	5296.63899	79.96305
75850.00000	82.64543	5297.77398	82.64543
75900.00000	80.54246	5307.60257	80.54246
75950.00000	80.36890	5289.33423	80.36890
76000.00000	81.90281	5299.11900	81.90281
76050.00000	79.27462	5300.17027	79.27462
76100.00000	81.24570	5284.59794	81.24570
76150.00000	80.84663	5302.30656	80.84663
76200.00000	78.50171	5285.80734	78.50171
76250.00000	81.29327	5285.29414	81.29327
76300.00000	79.53865	5303.92490	79.53865
76350.00000	79.79457	5283.71239	79.79457
76400.00000	81.36440	5292.42538	81.36440
76450.00000	79.30968	5299.34409	79.30968
76500.00000	81.22729	5279.69645	81.22729
76550.00000	81.84598	5298.52826	81.84598
76600.00000	79.30805	5282.30513	79.30805
76650.00000	82.35029	5281.71852	82.35029
76700.00000	81.24258	5296.67862	81.24258
76750.00000	80.11306	5274.54988	80.11306
76800.00000	82.72635	5278.75384	82.72635
76850.00000	80.47915	5286.00034	80.47915
76900.00000	82.04717	5264.66564	82.04717
76950.00000	83.46782	5280.49204	83.46782
77000.00000	80.95288	5268.12402	80.95288
77050.00000	83.35607	5264.20721	83.35607
77100.00000	82.47613	5274.10711	82.47613
77150.00000	81.08510	5252.85664	81.08510
77200.00000	83.84224	5257.26761	83.84224
77250.00000	81.56708	5257.73674	81.56708
77300.00000	82.41562	5244.96609	82.41562
77350.00000	83.27801	5254.82636	83.27801
77400.00000	80.36920	5245.89128	80.36920
77450.00000	83.00997	5240.08769	83.00997
77500.00000	81.73584	5252.95414	81.73584
77550.00000	80.49938	5231.22329	80.49938
77600.00000	82.44897	5242.54999	82.44897
77650.00000	80.41865	5242.16255	80.41865
77700.00000	82.20525	5224.90079	82.20525
77750.00000	81.80990	5241.33560	81.80990
77800.00000	79.56087	5229.26624	79.56087
77850.00000	81.71828	5226.24954	81.71828
77900.00000	80.94647	5238.21683	80.94647
77950.00000	79.98849	5222.63164	79.98849
78000.00000	82.08828	5228.51554	82.08828
78050.00000	79.82517	5233.61834	79.82517
78100.00000	81.32752	5222.33922	81.32752
78150.00000	81.36298	5226.38073	81.36298
78200.00000	79.92419	5217.46573	79.92419
78250.00000	81.83685	5221.64543	81.83685
78300.00000	81.41635	5225.13344	81.41635
78350.00000	81.45761	5212.40003	81.45761
78400.00000	82.53963	5218.85534	82.53963
78450.00000	81.05607	5216.74904	81.05607
78500.00000	82.25562	5207.99131	82.25562
78550.00000	82.69893	5214.62094	82.69893
78600.00000	81.89318	5206.86658	81.89318
78650.00000	83.16251	5205.53607	83.16251
78700.00000	82.38165	5207.11108	82.38165
78750.00000	82.88665	5200.10539	82.88665
78800.00000	83.47359	5203.80856	83.47359
78850.00000	82.72597	5200.07304	82.72597
78900.00000	83.73010	5194.66025	83.73010
78950.00000	83.28650	5196.18260	83.28650
79000.00000	83.74492	5188.65487	83.74492
79050.00000	84.24382	5188.12208	84.24382
79100.00000	83.65652	5185.84334	83.65652
79150.00000	84.35364	5182.01732	84.35364
79200.00000	84.54539	5181.46359	84.54539
79250.00000	84.45581	5175.45643	84.45581
79300.00000	84.97319	5173.95779	84.97319
79350.00000	84.69164	5170.86873	84.69164
79400.00000	85.03372	5166.81772	85.03372
79450.00000	85.04487	5164.45827	85.04487
79500.00000	85.27983	5160.45688	85.27983
79550.00000	85.63044	5158.08692	85.63044
79600.00000	85.46364	5153.45959	85.46364
79650.00000	85.70247	5148.75890	85.70247
79700.00000	85.73474	5146.04529	85.73474
79750.00000	85.67502	5141.83117	85.67502
79800.00000	85.88725	5138.65030	85.88725
79850.00000	85.55456	5135.06937	85.55456
79900.00000	85.62165	5130.47967	85.62165
79950.00000	85.62436	5125.77298	85.62436
80000.00000	85.29395	5123.59891	85.29395
80050.00000	85.30769	5119.75623	85.30769
80100.00000	85.31145	5115.56136	85.31145
80150.00000	84.81111	5111.95818	84.81111
80200.00000	84.96289	5109.63950	84.96289
80250.00000	84.81903	5106.16844	84.81903
80300.00000	84.61208	5105.09288	84.61208
80350.00000	84.60847	5100.12337	84.60847
80400.00000	84.26359	5098.10354	84.26359
80450.00000	84.24398	5095.79246	84.24398
80500.00000	84.01866	5091.24235	84.01866
80550.00000	83.72590	5087.98623	83.72590
80600.00000	83.82452	5084.57071	83.82452
80650.00000	83.55277	5084.47063	83.55277
80700.00000	83.10781	5081.60454	83.10781
80750.00000	83.46433	5077.83415	83.46433
80800.00000	82.94453	5077.52079	82.94453
80850.00000	82.88270	5074.81174	82.88270
80900.00000	82.77089	5074.59144	82.77089
80950.00000	82.61225	5072.51891	82.61225
81000.00000	82.35197	5070.98168	82.35197
81050.00000	82.34373	5068.17664	82.34373
81100.00000	82.29337	5066.99860	82.29337
81150.00000	82.52592	5066.03481	82.52592
81200.00000	82.42688	5063.75902	82.42688
81250.00000	82.31554	5060.57891	82.31554
81300.00000	82.39332	5057.66634	82.39332
81350.00000	82.44432	5054.52410	82.44432
81400.00000	82.42346	5053.01691	82.42346
81450.00000	82.31512	5048.00753	82.31512
81500.00000	82.58782	5045.12900	82.58782
81550.00000	82.22819	5040.68121	82.22819
81600.00000	82.02383	5034.21816	82.02383
81650.00000	81.70305	5030.20146	81.70305
81700.00000	81.34441	5024.11194	81.34441
81750.00000	80.79851	5020.08646	80.79851
81800.00000	79.87711	5010.09238	79.87711
81850.00000	78.40442	5003.66777	78.40442
81900.00000	76.71262	4992.36583	76.71262
81950.00000	73.72195	4980.14074	73.72195
82000.00000	67.38823	4974.34664	67.38823
82050.00000	46.21089	4862.45742	46.21089
82100.00000	68.68624	4781.70246	68.68624
82150.00000	75.13943	4764.87010	75.13943
82200.00000	78.38599	4758.20768	78.38599
82250.00000	80.54090	4746.91221	80.54090
82300.00000	81.86853	4737.05974	81.86853
82350.00000	82.98569	4728.60966	82.98569
82400.00000	83.92877	4721.55550	83.92877
82450.00000	84.69444	4714.64356	84.69444
82500.00000	85.24064	4706.82912	85.24064
82550.00000	85.78369	4700.17016	85.78369
82600.00000	86.19689	4694.30771	86.19689
82650.00000	86.55709	4686.52367	86.55709
82700.00000	86.76985	4679.67974	86.76985
82750.00000	86.83618	4672.75715	86.83618
82800.00000	86.86352	4667.77714	86.86352
82850.00000	86.76336	4661.94959	86.76336
82900.00000	86.75235	4655.92107	86.75235
82950.00000	86.66624	4650.60516	86.66624
83000.00000	86.68504	4645.75898	86.68504
83050.00000	86.68288	4643.06160	86.68288
83100.00000	86.86617	4639.17462	86.86617
83150.00000	86.72980	4636.40641	86.72980
83200.00000	86.89428	4634.15549	86.89428
83250.00000	86.90063	4631.98365	86.90063
83300.00000	86.95002	4629.88201	86.95002
83350.00000	86.92766	4627.49251	86.92766
83400.00000	87.02559	4625.54870	87.02559
83450.00000	87.36335	4623.41488	87.36335
83500.00000	87.55820	4621.55093	87.55820
83550.00000	87.71153	4618.34243	87.71153
83600.00000	87.96373	4616.53472	87.96373
83650.00000	87.99773	4613.07508	87.99773
83700.00000	88.22986	4609.68664	88.22986
83750.00000	88.54662	4607.07110	88.54662
83800.00000	88.62546	4603.41446	88.62546
83850.00000	88.91474	4600.85217	88.91474
83900.00000	89.03864	4596.66078	89.03864
83950.00000	89.34410	4592.85124	89.34410
84000.00000	89.56096	4587.88942	89.56096
84050.00000	89.56122	4584.65886	89.56122
84100.00000	89.79379	4580.27894	89.79379
84150.00000	89.97313	4576.55347	89.97313
84200.00000	90.04488	4572.05069	90.04488
84250.00000	90.17990	4567.22369	90.17990
84300.00000	90.26326	4563.54413	90.26326
84350.00000	90.41713	4558.83068	90.41713
84400.00000	90.57556	4554.41863	90.57556
84450.00000	90.74193	4549.81330	90.74193
84500.00000	90.72938	4545.58962	90.72938
84550.00000	90.85572	4541.56032	90.85572
84600.00000	90.98530	4536.02756	90.98530
84650.00000	91.05091	4531.10698	91.05091
84700.00000	91.17180	4526.03892	91.17180
84750.00000	91.24842	4520.84138	91.24842
84800.00000	91.28922	4515.43684	91.28922
84850.00000	91.27773	4510.10324	91.27773
84900.00000	91.24038	4504.61152	91.24038
84950.00000	91.35631	4499.54099	91.35631
85000.00000	91.38790	4493.42343	91.38790
85050.00000	91.38599	4487.61293	91.38599
85100.00000	91.33455	4481.47111	91.33455
85150.00000	91.26083	4476.11793	91.26083
85200.00000	91.17308	4469.84484	91.17308
85250.00000	91.52199	4463.17030	91.52199
85300.00000	90.84566	4457.71963	90.84566
85350.00000	90.62517	4451.48859	90.62517
85400.00000	90.51495	4445.85024	90.51495
85450.00000	90.30589	4439.59173	90.30589
85500.00000	89.91691	4433.30792	89.91691
85550.00000	89.75092	4426.81692	89.75092
85600.00000	89.31020	4421.42891	89.31020
85650.00000	88.91735	4415.65854	88.91735
85700.00000	88.59703	4408.67762	88.59703
85750.00000	88.30276	4403.85957	88.30276
85800.00000	88.02745	4399.51365	88.02745
85850.00000	87.42173	4392.87018	87.42173
85900.00000	87.15669	4386.11801	87.15669
85950.00000	86.72512	4381.17727	86.72512
86000.00000	86.74718	4377.04699	86.74718
86050.00000	86.05295	4370.28930	86.05295
86100.00000	85.87396	4366.18742	85.87396
86150.00000	85.46927	4358.08431	85.46927
86200.00000	85.35781	4353.61309	85.35781
86250.00000	84.60638	4349.02025	84.60638
86300.00000	84.06916	4341.02612	84.06916
86350.00000	83.73135	4334.82040	83.73135
86400.00000	82.61541	4325.93568	82.61541
86450.00000	81.95860	4321.89434	81.95860
86500.00000	81.53198	4319.74502	81.53198
86550.00000	81.07078	4311.22382	81.07078
86600.00000	80.72096	4306.43281	80.72096
86650.00000	80.19297	4303.01203	80.19297
86700.00000	79.71127	4298.80010	79.71127
86750.00000	79.59247	4291.46288	79.59247
86800.00000	78.76079	4283.78771	78.76079
86850.00000	78.55956	4280.34277	78.55956
86900.00000	77.94449	4275.56522	77.94449
86950.00000	77.86840	4268.20073	77.86840
87000.00000	77.67620	4263.06517	77.67620
87050.00000	77.74200	4256.17101	77.74200
87100.00000	76.91699	4247.95357	76.91699
87150.00000	76.56553	4242.51300	76.56553
87200.00000	76.83790	4234.71143	76.83790
87250.00000	75.66777	4230.09911	75.66777
87300.00000	75.47381	4218.93921	75.47381
87350.00000	75.40629	4215.23532	75.40629
87400.00000	74.79940	4204.80975	74.79940
87450.00000	74.62165	4198.89492	74.62165
87500.00000	74.94901	4193.56316	74.94901
87550.00000	74.53228	4186.11821	74.53228
87600.00000	74.14347	4177.64414	74.14347
87650.00000	74.01595	4169.35441	74.01595
87700.00000	74.10727	4164.92987	74.10727
87750.00000	73.76280	4155.93988	73.76280
87800.00000	72.66444	4150.53273	72.66444
87850.00000	72.28392	4145.28362	72.28392
87900.00000	71.91586	4141.49612	71.91586
87950.00000	71.94365	4130.11743	71.94365
88000.00000	71.64096	4124.73259	71.64096
88050.00000	70.69159	4122.62961	70.69159
88100.00000	71.47109	4117.81862	71.47109
88150.00000	70.86108	4110.48687	70.86108
88200.00000	69.27755	4109.48985	69.27755
88250.00000	69.84727	4103.14699	69.84727
88300.00000	69.22687	4097.06396	69.22687
88350.00000	69.34894	4096.21740	69.34894
88400.00000	67.87395	4090.74140	67.87395
88450.00000	67.89553	4087.99006	67.89553
88500.00000	66.57389	4084.66694	66.57389
88550.00000	66.79205	4082.82475	66.79205
88600.00000	66.50686	4080.41613	66.50686
88650.00000	65.15412	4075.36694	65.15412
88700.00000	66.03988	4075.44227	66.03988
88750.00000	63.20834	4070.03079	63.20834
88800.00000	62.20198	4076.69733	62.20198
88850.00000	60.46480	4066.42734	60.46480
88900.00000	59.57330	4064.36241	59.57330
88950.00000	53.69390	4071.29528	53.69390
89000.00000	47.86934	4095.23137	47.86934
89050.00000	46.28046	4140.72280	46.28046
89100.00000	50.70472	4181.30228	50.70472
89150.00000	57.95681	4179.20882	57.95681
89200.00000	61.99851	4183.26079	61.99851
89250.00000	63.54877	4174.21061	63.54877
89300.00000	64.71022	4167.50068	64.71022
89350.00000	66.71986	4166.24646	66.71986
89400.00000	67.51653	4166.89828	67.51653
89450.00000	68.38655	4162.94038	68.38655
89500.00000	69.57691	4153.41338	69.57691
89550.00000	70.40086	4148.29840	70.40086
89600.00000	71.14309	4142.40363	71.14309
89650.00000	72.01818	4137.20854	72.01818
89700.00000	72.33070	4137.90867	72.33070
89750.00000	72.56293	4134.84816	72.56293
89800.00000	72.94474	4131.97873	72.94474
89850.00000	73.06985	4126.95769	73.06985
89900.00000	73.52344	4121.04778	73.52344
89950.00000	74.34109	4124.32063	74.34109
90000.00000	74.67112	4127.90727	74.67112
90050.00000	75.26666	4133.97958	75.26666
90100.00000	77.88927	4129.33121	77.88927
90150.00000	79.67810	4126.89820	79.67810
90200.00000	82.87463	4116.95122	82.87463
90250.00000	84.30683	4093.92541	84.30683
90300.00000	84.02114	4069.35274	84.02114
90350.00000	82.87890	4055.29804	82.87890
90400.00000	82.13662	4052.47412	82.13662
90450.00000	81.81922	4047.24996	81.81922
90500.00000	81.26638	4042.18022	81.26638
90550.00000	80.97433	4034.52923	80.97433
90600.00000	80.62220	4033.93307	80.62220
90650.00000	80.84268	4026.91394	80.84268
90700.00000	80.78985	4023.39311	80.78985
90750.00000	80.59169	4019.11601	80.59169
90800.00000	80.47628	4012.48999	80.47628
90850.00000	80.69976	4008.85309	80.69976
90900.00000	80.68774	4004.05550	80.68774
90950.00000	80.62686	4000.28766	80.62686
91000.00000	80.66658	3994.14014	80.66658
91050.00000	80.73540	3990.50858	80.73540
91100.00000	80.76931	3984.15712	80.76931
91150.00000	80.40687	3982.67183	80.40687
91200.00000	80.32413	3973.78427	80.32413
91250.00000	80.25656	3970.13100	80.25656
91300.00000	80.06552	3966.57560	80.06552
91350.00000	79.73773	3960.14988	79.73773
91400.00000	79.48184	3956.88682	79.48184
91450.00000	79.44713	3953.70582	79.44713
91500.00000	79.24773	3946.67191	79.24773
91550.00000	78.93014	3942.38373	78.93014
91600.00000	78.30052	3938.24860	78.30052
91650.00000	77.68445	3933.79503	77.68445
91700.00000	77.28290	3929.27354	77.28290
91750.00000	76.99642	3927.25501	76.99642
91800.00000	76.43442	3924.32976	76.43442
91850.00000	76.30103	3921.02562	76.30103
91900.00000	75.96458	3920.63733	75.96458
91950.00000	75.29769	3915.70375	75.29769
92000.00000	74.72201	3916.50347	74.72201
92050.00000	74.27666	3914.84629	74.27666
92100.00000	74.09925	3910.09620	74.09925
92150.00000	74.06591	3907.51996	74.06591
92200.00000	72.71015	3918.47411	72.71015
92250.00000	72.69450	3915.15742	72.69450
92300.00000	71.86398	3915.01448	71.86398
92350.00000	72.93176	3913.49101	72.93176
92400.00000	71.58024	3917.83529	71.58024
92450.00000	71.92678	3923.23277	71.92678
92500.00000	71.64364	3924.04330	71.64364
92550.00000	71.84911	3922.09389	71.84911
92600.00000	72.34471	3927.40338	72.34471
92650.00000	72.30881	3921.13154	72.30881
92700.00000	72.72278	3925.64973	72.72278
92750.00000	72.72179	3924.52956	72.72179
92800.00000	73.83639	3923.33554	73.83639
92850.00000	73.39515	3924.79543	73.39515
92900.00000	74.10315	3925.46773	74.10315
92950.00000	73.82685	3921.34898	73.82685
93000.00000	74.42033	3919.48487	74.42033
93050.00000	74.26066	3921.00553	74.26066
93100.00000	74.62966	3918.37666	74.62966
93150.00000	75.47866	3918.74464	75.47866
93200.00000	75.22936	3915.94922	75.22936
93250.00000	75.53466	3917.42983	75.53466
93300.00000	75.66926	3914.29831	75.66926
93350.00000	76.15216	3911.54970	76.15216
93400.00000	76.14773	3909.79201	76.14773
93450.00000	77.17699	3907.22000	77.17699
93500.00000	76.43862	3903.15927	76.43862
93550.00000	76.53340	3902.39604	76.53340
93600.00000	77.34029	3899.70463	77.34029
93650.00000	77.25936	3896.71139	77.25936
93700.00000	77.25377	3894.43592	77.25377
93750.00000	77.25339	3889.07012	77.25339
93800.00000	77.33942	3886.32235	77.33942
93850.00000	77.57401	3883.75328	77.57401
93900.00000	77.36966	3881.63380	77.36966
93950.00000	77.84664	3879.44752	77.84664
94000.00000	77.80680	3875.78783	77.80680
94050.00000	77.17864	3875.43788	77.17864
94100.00000	77.56701	3871.25707	77.56701
94150.00000	77.44836	3870.61881	77.44836
94200.00000	77.45947	3868.46434	77.45947
94250.00000	77.48985	3865.81892	77.48985
94300.00000	77.20424	3863.68105	77.20424
94350.00000	77.50218	3860.40889	77.50218
94400.00000	77.26731	3860.09167	77.26731
94450.00000	77.41052	3857.11495	77.41052
94500.00000	77.16267	3854.19524	77.16267
94550.00000	77.59956	3849.81210	77.59956
94600.00000	77.34411	3847.80135	77.34411
94650.00000	76.99442	3843.25492	76.99442
94700.00000	77.17635	3844.62367	77.17635
94750.00000	77.78117	3840.16801	77.78117
94800.00000	77.27437	3835.47718	77.27437
94850.00000	77.72883	3836.56374	77.72883
94900.00000	77.26450	3838.01269	77.26450
94950.00000	77.61289	3828.89108	77.61289
95000.00000	77.99755	3832.83311	77.99755
95050.00000	77.42541	3827.10948	77.42541
95100.00000	77.47619	3825.36101	77.47619
95150.00000	77.63994	3822.70534	77.63994
95200.00000	78.21133	3819.87957	78.21133
95250.00000	77.92740	3816.68106	77.92740
95300.00000	78.59408	3811.96207	78.59408
95350.00000	78.24865	3808.97672	78.24865
95400.00000	78.49029	3802.98304	78.49029
95450.00000	78.37006	3802.15540	78.37006
95500.00000	78.15836	3798.64487	78.15836
95550.00000	77.96967	3794.50068	77.96967
95600.00000	78.25847	3794.23434	78.25847
95650.00000	77.84311	3789.41769	77.84311
95700.00000	78.04078	3788.40603	78.04078
95750.00000	78.59857	3785.58145	78.59857
95800.00000	77.56049	3782.00069	77.56049
95850.00000	78.27206	3785.23702	78.27206
95900.00000	78.95660	3780.11928	78.95660
95950.00000	79.27512	3778.91485	79.27512
96000.00000	78.82009	3779.61182	78.82009
96050.00000	79.61796	3775.75583	79.61796
96100.00000	81.01946	3764.75790	81.01946
96150.00000	80.22470	3758.66798	80.22470
96200.00000	81.11524	3756.94661	81.11524
96250.00000	81.49891	3749.13102	81.49891
96300.00000	82.34234	3744.63567	82.34234
96350.00000	82.13857	3740.87709	82.13857
96400.00000	82.18084	3738.40699	82.18084
96450.00000	81.76962	3736.51282	81.76962
96500.00000	82.31077	3729.16583	82.31077
96550.00000	82.18340	3728.00134	82.18340
96600.00000	81.83095	3723.50434	81.83095
96650.00000	83.15508	3714.00210	83.15508
96700.00000	81.88173	3711.63062	81.88173
96750.00000	83.06487	3707.64113	83.06487
96800.00000	83.09946	3706.18526	83.09946
96850.00000	83.20461	3692.11115	83.20461
96900.00000	84.37542	3688.97272	84.37542
96950.00000	85.75942	3690.39385	85.75942
97000.00000	85.00698	3681.10483	85.00698
97050.00000	84.68192	3686.44144	84.68192
97100.00000	86.21686	3681.22819	86.21686
97150.00000	88.38245	3658.88880	88.38245
97200.00000	87.31931	3665.00256	87.31931
97250.00000	86.55996	3629.14850	86.55996
97300.00000	87.56795	3618.75583	87.56795
97350.00000	84.90209	3599.26401	84.90209
97400.00000	83.71528	3590.70921	83.71528
97450.00000	79.05511	3587.47077	79.05511
97500.00000	78.41841	3605.40954	78.41841
97550.00000	76.29163	3606.37595	76.29163
97600.00000	76.77001	3596.25810	76.77001
97650.00000	74.58781	3599.11929	74.58781
97700.00000	77.05112	3597.12766	77.05112
97750.00000	74.47247	3599.70189	74.47247
97800.00000	74.68441	3597.80932	74.68441
97850.00000	74.28838	3601.72362	74.28838
97900.00000	74.48916	3588.63662	74.48916
97950.00000	72.76556	3602.60765	72.76556
98000.00000	72.81084	3590.16820	72.81084
98050.00000	72.64892	3594.57725	72.64892
98100.00000	72.26108	3600.34273	72.26108
98150.00000	73.02148	3595.72348	73.02148
98200.00000	71.11596	3589.33246	71.11596
98250.00000	72.21506	3593.88241	72.21506
98300.00000	70.55034	3594.70482	70.55034
98350.00000	70.79427	3595.03055	70.79427
98400.00000	70.71761	3587.10078	70.71761
98450.00000	70.65967	3598.97716	70.65967
98500.00000	69.98317	3584.38800	69.98317
98550.00000	69.96763	3576.92112	69.96763
98600.00000	69.42664	3588.32753	69.42664
98650.00000	67.14038	3579.32376	67.14038
98700.00000	65.56028	3575.36946	65.56028
98750.00000	66.68044	3580.65052	66.68044
98800.00000	66.39985	3578.21745	66.39985
98850.00000	66.48725	3565.92886	66.48725
98900.00000	64.22755	3569.86019	64.22755
98950.00000	66.20991	3556.64418	66.20991
99000.00000	64.63375	3557.23897	64.63375
99050.00000	65.63215	3556.50894	65.63215
99100.00000	64.16359	3549.34419	64.16359
99150.00000	64.55283	3557.67330	64.55283
99200.00000	64.45260	3543.89095	64.45260
99250.00000	62.38115	3537.04645	62.38115
99300.00000	59.38621	3514.46755	59.38621
99350.00000	62.99598	3515.44823	62.99598
99400.00000	57.57468	3526.64245	57.57468
99450.00000	55.22257	3538.98943	55.22257
99500.00000	58.47735	3506.83392	58.47735
99550.00000	61.18398	3513.56138	61.18398
99600.00000	53.74177	3512.68324	53.74177
99650.00000	58.34544	3508.42341	58.34544
99700.00000	53.77350	3475.26890	53.77350
99750.00000	56.04299	3488.37673	56.04299
99800.00000	51.73532	3500.17492	51.73532
99850.00000	47.23021	3389.69914	47.23021
99900.00000	54.25549	3429.17429	54.25549
99950.00000	54.10791	3511.09626	54.10791
