---ACOUSTIC CALIBRATION---
Filename: C:\Data\CL0809 DATA\CL0809500\RightPrimary.calib
Date: 8/9/2019 3:24:15 PM
Format: 4
Probe Tube Correction File: C:\Data\Probe Tube Calibrations\74_ProbeTube.calib
Experiment VIs: 2128
EPL_CFTS.exe V15.0.1f5 (2015)
DAQmx V15.1

Attenuation (dB): 40.000000
Min Freq (Hz): 50.000000
Max Freq (Hz): 99950.000000
Freq Step (Hz): 50.000000
Sample Rate (Hz): 200000.000000
[Smoothing]
Method=None
MA.Iterations=0
MA.Length=0
Loess.Length=0
Loess.Type=Linear
Loess.Robust=FALSE


Freq(Hz)	Mag(dB)	Phase(deg)	Unsmoothed(dB)

50.00000	91.03223	293.75146	91.03223
100.00000	66.54304	278.93284	66.54304
150.00000	67.81423	411.24389	67.81423
200.00000	64.34531	556.62339	64.34531
250.00000	54.90143	767.15804	54.90143
300.00000	62.60657	844.64559	62.60657
350.00000	54.35978	995.09816	54.35978
400.00000	47.13846	1108.21382	47.13846
450.00000	52.82483	1114.24741	52.82483
500.00000	53.97847	1179.94996	53.97847
550.00000	66.42051	1168.17421	66.42051
600.00000	63.96164	1138.87975	63.96164
650.00000	72.27214	1118.41270	72.27214
700.00000	72.60221	1128.69725	72.60221
750.00000	75.88722	1099.69074	75.88722
800.00000	77.65956	1083.66064	77.65956
850.00000	76.53405	1078.54453	76.53405
900.00000	76.96786	1088.05484	76.96786
950.00000	80.08886	1085.81393	80.08886
1000.00000	82.25227	1087.22720	82.25227
1050.00000	85.53381	1078.77176	85.53381
1100.00000	88.05305	1064.11264	88.05305
1150.00000	89.48986	1049.59245	89.48986
1200.00000	90.20557	1037.48083	90.20557
1250.00000	90.60107	1028.47112	90.60107
1300.00000	91.82498	1023.82395	91.82498
1350.00000	93.32678	1011.09815	93.32678
1400.00000	93.78555	997.72685	93.78555
1450.00000	93.64513	986.77854	93.64513
1500.00000	93.57102	980.06289	93.57102
1550.00000	93.73830	974.30529	93.73830
1600.00000	94.38668	970.90235	94.38668
1650.00000	95.11774	967.04942	95.11774
1700.00000	98.90584	951.40934	98.90584
1750.00000	95.87213	931.14335	95.87213
1800.00000	95.38308	925.89255	95.38308
1850.00000	94.97169	920.02167	94.97169
1900.00000	94.89135	914.65226	94.89135
1950.00000	94.40081	909.84669	94.40081
2000.00000	94.16072	907.31643	94.16072
2050.00000	94.54915	904.83036	94.54915
2100.00000	94.95754	899.37375	94.95754
2150.00000	95.30586	890.77828	95.30586
2200.00000	94.97886	880.14820	94.97886
2250.00000	94.00301	875.04805	94.00301
2300.00000	93.74910	873.83471	93.74910
2350.00000	93.90132	868.27631	93.90132
2400.00000	93.91716	862.39935	93.91716
2450.00000	93.39024	854.39667	93.39024
2500.00000	92.50812	851.18374	92.50812
2550.00000	92.13098	848.19721	92.13098
2600.00000	91.67129	844.51412	91.67129
2650.00000	91.19866	841.73346	91.19866
2700.00000	90.68091	838.66553	90.68091
2750.00000	90.17331	836.98178	90.17331
2800.00000	89.69029	834.68182	89.69029
2850.00000	89.30619	833.40225	89.30619
2900.00000	89.05192	832.28119	89.05192
2950.00000	88.81029	830.40470	88.81029
3000.00000	88.47799	828.84416	88.47799
3050.00000	88.20355	826.19655	88.20355
3100.00000	87.86602	824.30529	87.86602
3150.00000	87.22509	822.68506	87.22509
3200.00000	86.80217	820.56423	86.80217
3250.00000	86.39854	820.26223	86.39854
3300.00000	85.76727	818.76168	85.76727
3350.00000	85.42849	818.56517	85.42849
3400.00000	84.88994	818.03082	84.88994
3450.00000	84.10161	817.13416	84.10161
3500.00000	83.31678	817.67792	83.31678
3550.00000	82.68575	817.84077	82.68575
3600.00000	81.31441	817.53239	81.31441
3650.00000	80.23714	825.09830	80.23714
3700.00000	78.97228	832.98950	78.97228
3750.00000	77.82902	845.95370	77.82902
3800.00000	78.34336	861.91075	78.34336
3850.00000	79.27068	869.88639	79.27068
3900.00000	80.74570	877.43610	80.74570
3950.00000	81.03025	884.16677	81.03025
4000.00000	81.69499	895.58231	81.69499
4050.00000	83.44027	902.28879	83.44027
4100.00000	85.18321	907.88731	85.18321
4150.00000	87.72683	909.03229	87.72683
4200.00000	89.53659	909.12120	89.53659
4250.00000	90.47344	900.56097	90.47344
4300.00000	91.42530	901.31926	91.42530
4350.00000	92.81442	901.40019	92.81442
4400.00000	94.34585	897.03264	94.34585
4450.00000	95.31334	890.56870	95.31334
4500.00000	96.10874	884.81569	96.10874
4550.00000	96.47253	880.95787	96.47253
4600.00000	96.99460	879.34450	96.99460
4650.00000	97.86751	878.47264	97.86751
4700.00000	98.86390	876.65324	98.86390
4750.00000	99.93928	874.10319	99.93928
4800.00000	101.05572	870.93459	101.05572
4850.00000	102.18821	867.09635	102.18821
4900.00000	103.36436	862.17071	103.36436
4950.00000	104.58779	857.04855	104.58779
5000.00000	105.86442	850.93544	105.86442
5050.00000	107.28073	843.91115	107.28073
5100.00000	108.90812	835.36462	108.90812
5150.00000	110.88025	823.68553	110.88025
5200.00000	113.27964	804.07887	113.27964
5250.00000	114.82792	766.55107	114.82792
5300.00000	111.51749	723.63900	111.51749
5350.00000	105.73451	708.10857	105.73451
5400.00000	101.21183	713.15720	101.21183
5450.00000	98.45481	722.52114	98.45481
5500.00000	95.93675	733.65075	95.93675
5550.00000	94.33902	756.12135	94.33902
5600.00000	95.61616	777.93106	95.61616
5650.00000	97.93116	786.05860	97.93116
5700.00000	99.75079	784.70287	99.75079
5750.00000	100.73872	780.82621	100.73872
5800.00000	101.21351	778.34141	101.21351
5850.00000	101.62233	777.31940	101.62233
5900.00000	102.12802	776.87541	102.12802
5950.00000	102.78519	776.55150	102.78519
6000.00000	103.52616	775.87520	103.52616
6050.00000	104.33623	774.53672	104.33623
6100.00000	105.20473	772.50033	105.20473
6150.00000	106.06059	769.89258	106.06059
6200.00000	106.97196	767.05248	106.97196
6250.00000	107.93113	763.34572	107.93113
6300.00000	108.92671	758.69504	108.92671
6350.00000	109.90105	753.03533	109.90105
6400.00000	110.83425	746.37310	110.83425
6450.00000	111.67128	738.72773	111.67128
6500.00000	112.36641	730.50249	112.36641
6550.00000	112.97607	721.79243	112.97607
6600.00000	113.48878	712.75703	113.48878
6650.00000	113.89624	703.04519	113.89624
6700.00000	114.13794	692.64125	114.13794
6750.00000	114.14621	682.09413	114.14621
6800.00000	113.93206	671.98486	113.93206
6850.00000	113.53438	662.67298	113.53438
6900.00000	113.02356	654.49727	113.02356
6950.00000	112.46336	647.40056	112.46336
7000.00000	111.90915	641.17886	111.90915
7050.00000	111.39366	635.70076	111.39366
7100.00000	110.90483	630.66549	110.90483
7150.00000	110.44009	625.99521	110.44009
7200.00000	110.00096	621.54444	110.00096
7250.00000	109.58169	617.39682	109.58169
7300.00000	109.19375	613.46744	109.19375
7350.00000	108.83156	609.66647	108.83156
7400.00000	108.48835	605.84161	108.48835
7450.00000	108.13716	602.05945	108.13716
7500.00000	107.78935	598.41173	107.78935
7550.00000	107.42668	594.72733	107.42668
7600.00000	107.03290	591.22293	107.03290
7650.00000	106.65270	587.89395	106.65270
7700.00000	106.26524	584.87385	106.26524
7750.00000	105.88529	582.06939	105.88529
7800.00000	105.51531	579.49229	105.51531
7850.00000	105.14674	576.96710	105.14674
7900.00000	104.81102	574.62884	104.81102
7950.00000	104.48845	572.60035	104.48845
8000.00000	104.17952	570.82268	104.17952
8050.00000	103.89134	568.97470	103.89134
8100.00000	103.64892	567.32060	103.64892
8150.00000	103.42474	565.76753	103.42474
8200.00000	103.22027	564.23316	103.22027
8250.00000	103.07090	562.77645	103.07090
8300.00000	102.93736	561.27151	102.93736
8350.00000	102.81479	559.52861	102.81479
8400.00000	102.72851	557.87892	102.72851
8450.00000	102.61930	556.04524	102.61930
8500.00000	102.52907	554.45509	102.52907
8550.00000	102.49851	552.82473	102.49851
8600.00000	102.47222	550.90980	102.47222
8650.00000	102.43963	549.11874	102.43963
8700.00000	102.40531	547.08510	102.40531
8750.00000	102.41722	545.00174	102.41722
8800.00000	102.41327	542.95355	102.41327
8850.00000	102.45396	540.54809	102.45396
8900.00000	102.44030	538.37529	102.44030
8950.00000	102.48569	536.05924	102.48569
9000.00000	102.48498	533.46856	102.48498
9050.00000	102.45808	531.12139	102.45808
9100.00000	102.53008	528.72922	102.53008
9150.00000	102.60473	526.03278	102.60473
9200.00000	102.63822	523.12941	102.63822
9250.00000	102.59028	520.32863	102.59028
9300.00000	102.68361	517.46808	102.68361
9350.00000	102.67223	514.25902	102.67223
9400.00000	102.68235	510.95942	102.68235
9450.00000	102.72012	507.82028	102.72012
9500.00000	102.68316	504.17414	102.68316
9550.00000	102.60987	500.48439	102.60987
9600.00000	102.53466	497.27565	102.53466
9650.00000	102.47379	494.06135	102.47379
9700.00000	102.34379	490.45678	102.34379
9750.00000	102.20312	487.00869	102.20312
9800.00000	101.96716	483.60988	101.96716
9850.00000	101.67477	480.69456	101.67477
9900.00000	101.29845	478.88375	101.29845
9950.00000	100.91723	478.59742	100.91723
10000.00000	101.01554	480.81210	101.01554
10050.00000	101.68861	479.91823	101.68861
10100.00000	102.20437	475.21230	102.20437
10150.00000	102.30049	469.91956	102.30049
10200.00000	102.27128	465.37020	102.27128
10250.00000	102.16819	461.28187	102.16819
10300.00000	102.06533	457.50195	102.06533
10350.00000	101.96118	453.98828	101.96118
10400.00000	101.83573	450.48964	101.83573
10450.00000	101.74012	447.07130	101.74012
10500.00000	101.66975	443.51355	101.66975
10550.00000	101.56377	440.48590	101.56377
10600.00000	101.54462	436.78751	101.54462
10650.00000	101.45902	433.55757	101.45902
10700.00000	101.41703	429.83165	101.41703
10750.00000	101.36254	426.39840	101.36254
10800.00000	101.32543	422.42622	101.32543
10850.00000	101.30195	418.63027	101.30195
10900.00000	101.24221	414.81271	101.24221
10950.00000	101.17089	410.78507	101.17089
11000.00000	101.12964	406.81282	101.12964
11050.00000	101.01139	402.77126	101.01139
11100.00000	100.93876	398.41839	100.93876
11150.00000	100.81244	394.11110	100.81244
11200.00000	100.73278	389.86396	100.73278
11250.00000	100.54114	385.09989	100.54114
11300.00000	100.37627	380.55024	100.37627
11350.00000	100.18138	375.87589	100.18138
11400.00000	99.93032	371.00639	99.93032
11450.00000	99.69081	366.02202	99.69081
11500.00000	99.45171	361.05025	99.45171
11550.00000	99.12748	355.95036	99.12748
11600.00000	98.79793	350.98206	98.79793
11650.00000	98.45937	346.11739	98.45937
11700.00000	98.13018	341.03145	98.13018
11750.00000	97.72561	336.25256	97.72561
11800.00000	97.36413	331.64009	97.36413
11850.00000	97.00707	326.78614	97.00707
11900.00000	96.58343	322.48631	96.58343
11950.00000	96.20632	317.98525	96.20632
12000.00000	95.82725	314.04489	95.82725
12050.00000	95.41512	309.95173	95.41512
12100.00000	94.92448	305.68208	94.92448
12150.00000	94.45892	301.46569	94.45892
12200.00000	94.01804	296.72934	94.01804
12250.00000	93.57450	292.59545	93.57450
12300.00000	92.94861	287.99106	92.94861
12350.00000	92.48447	283.66611	92.48447
12400.00000	91.89951	278.40757	91.89951
12450.00000	91.46447	273.51145	91.46447
12500.00000	91.03410	269.37058	91.03410
12550.00000	90.51566	263.97159	90.51566
12600.00000	90.13413	258.03994	90.13413
12650.00000	89.66110	252.74151	89.66110
12700.00000	89.18871	247.05656	89.18871
12750.00000	88.64341	241.42901	88.64341
12800.00000	88.25687	235.72172	88.25687
12850.00000	87.68075	230.37228	87.68075
12900.00000	87.26408	223.78581	87.26408
12950.00000	86.97993	216.81380	86.97993
13000.00000	86.50867	210.29129	86.50867
13050.00000	86.22482	202.97475	86.22482
13100.00000	85.99466	194.60159	85.99466
13150.00000	85.90513	188.39514	85.90513
13200.00000	85.93419	179.17434	85.93419
13250.00000	86.44350	169.10614	86.44350
13300.00000	87.13126	164.61111	87.13126
13350.00000	88.20691	157.99615	88.20691
13400.00000	89.50618	156.79978	89.50618
13450.00000	90.28098	162.15721	90.28098
13500.00000	89.92587	171.09739	89.92587
13550.00000	88.84848	173.43620	88.84848
13600.00000	87.24343	173.10613	87.24343
13650.00000	86.05574	167.49886	86.05574
13700.00000	84.98923	159.54157	84.98923
13750.00000	84.42841	148.08517	84.42841
13800.00000	84.36065	136.85769	84.36065
13850.00000	84.61534	124.90904	84.61534
13900.00000	84.87982	111.85599	84.87982
13950.00000	86.05655	103.16441	86.05655
14000.00000	87.61662	95.81027	87.61662
14050.00000	89.53509	91.34522	89.53509
14100.00000	91.97331	91.53284	91.97331
14150.00000	93.41527	102.39216	93.41527
14200.00000	93.58505	114.89170	93.58505
14250.00000	92.53027	123.92032	92.53027
14300.00000	91.22665	126.37105	91.22665
14350.00000	90.23062	122.68401	90.23062
14400.00000	89.61869	117.14682	89.61869
14450.00000	89.13875	111.42915	89.13875
14500.00000	88.83577	104.15820	88.83577
14550.00000	89.08939	96.09987	89.08939
14600.00000	89.41897	89.52560	89.41897
14650.00000	89.99832	82.60801	89.99832
14700.00000	90.77525	75.65165	90.77525
14750.00000	91.70673	70.83017	91.70673
14800.00000	92.72082	66.87078	92.72082
14850.00000	93.94660	64.80290	93.94660
14900.00000	95.14279	64.38059	95.14279
14950.00000	95.81192	66.89075	95.81192
15000.00000	96.13495	69.50025	96.13495
15050.00000	96.08963	71.99034	96.08963
15100.00000	95.97238	71.85290	95.97238
15150.00000	95.68779	69.14639	95.68779
15200.00000	95.68382	65.92221	95.68382
15250.00000	95.45603	61.12008	95.45603
15300.00000	95.42544	54.82868	95.42544
15350.00000	95.68508	49.37866	95.68508
15400.00000	95.84992	44.15413	95.84992
15450.00000	96.30897	38.56219	96.30897
15500.00000	96.82766	33.72978	96.82766
15550.00000	97.47102	29.99153	97.47102
15600.00000	98.08324	26.98003	98.08324
15650.00000	98.74714	24.43466	98.74714
15700.00000	98.98340	23.05393	98.98340
15750.00000	99.35188	22.01827	99.35188
15800.00000	99.38376	20.40376	99.38376
15850.00000	99.43236	18.88722	99.43236
15900.00000	99.42413	16.17819	99.42413
15950.00000	99.41521	13.07159	99.41521
16000.00000	99.42204	 9.36608	99.42204
16050.00000	99.56129	 4.87737	99.56129
16100.00000	99.68304	 0.36439	99.68304
16150.00000	99.95225	-4.28117	99.95225
16200.00000	100.18237	-7.68252	100.18237
16250.00000	100.50770	-11.79868	100.50770
16300.00000	100.84422	-15.29047	100.84422
16350.00000	101.15382	-18.32593	101.15382
16400.00000	101.34991	-20.92500	101.34991
16450.00000	101.54866	-23.43530	101.54866
16500.00000	101.65198	-26.21833	101.65198
16550.00000	101.72596	-28.73188	101.72596
16600.00000	101.75896	-32.07575	101.75896
16650.00000	101.71501	-35.39299	101.71501
16700.00000	101.82879	-38.98116	101.82879
16750.00000	101.89198	-42.73714	101.89198
16800.00000	101.97908	-46.15535	101.97908
16850.00000	102.07890	-50.27790	102.07890
16900.00000	102.22980	-53.76212	102.22980
16950.00000	102.31044	-56.90217	102.31044
17000.00000	102.46013	-60.08099	102.46013
17050.00000	102.51313	-62.61795	102.51313
17100.00000	102.62144	-65.34552	102.62144
17150.00000	102.63426	-68.15959	102.63426
17200.00000	102.56430	-70.83649	102.56430
17250.00000	102.63569	-73.82577	102.63569
17300.00000	102.62865	-76.93738	102.62865
17350.00000	102.67039	-80.19086	102.67039
17400.00000	102.67101	-83.26903	102.67101
17450.00000	102.68558	-86.17395	102.68558
17500.00000	102.73686	-89.30008	102.73686
17550.00000	102.81153	-92.33920	102.81153
17600.00000	102.88235	-95.03391	102.88235
17650.00000	102.93012	-97.61339	102.93012
17700.00000	102.97723	-99.91551	102.97723
17750.00000	103.04598	-102.46517	103.04598
17800.00000	103.07889	-104.69926	103.07889
17850.00000	103.08223	-107.27229	103.08223
17900.00000	103.18415	-109.76414	103.18415
17950.00000	103.21796	-112.53961	103.21796
18000.00000	103.29636	-115.12540	103.29636
18050.00000	103.34205	-117.96217	103.34205
18100.00000	103.43100	-120.67970	103.43100
18150.00000	103.50208	-123.59542	103.50208
18200.00000	103.57582	-126.38630	103.57582
18250.00000	103.65721	-129.18478	103.65721
18300.00000	103.72451	-131.94491	103.72451
18350.00000	103.80884	-134.97996	103.80884
18400.00000	103.85464	-137.92073	103.85464
18450.00000	103.91974	-140.62695	103.91974
18500.00000	103.97316	-143.44662	103.97316
18550.00000	104.02981	-146.66835	104.02981
18600.00000	104.02878	-149.49772	104.02878
18650.00000	104.11585	-152.47622	104.11585
18700.00000	104.16629	-155.12922	104.16629
18750.00000	104.18654	-158.23653	104.18654
18800.00000	104.20923	-161.11269	104.20923
18850.00000	104.22979	-163.93539	104.22979
18900.00000	104.19206	-166.76802	104.19206
18950.00000	104.20860	-169.70841	104.20860
19000.00000	104.21394	-172.70470	104.21394
19050.00000	104.21752	-175.58888	104.21752
19100.00000	104.23738	-178.55442	104.23738
19150.00000	104.24421	-181.16809	104.24421
19200.00000	104.23982	-184.09852	104.23982
19250.00000	104.21458	-186.62660	104.21458
19300.00000	104.25179	-189.28557	104.25179
19350.00000	104.23595	-192.26353	104.23595
19400.00000	104.21522	-194.70694	104.21522
19450.00000	104.20048	-197.61377	104.20048
19500.00000	104.20093	-200.18108	104.20093
19550.00000	104.19959	-202.83881	104.19959
19600.00000	104.18947	-205.52740	104.18947
19650.00000	104.17677	-208.08803	104.17677
19700.00000	104.19615	-210.68400	104.19615
19750.00000	104.18125	-213.28101	104.18125
19800.00000	104.18663	-215.69027	104.18663
19850.00000	104.20647	-218.53248	104.20647
19900.00000	104.21386	-221.07878	104.21386
19950.00000	104.21450	-223.55461	104.21450
20000.00000	104.18920	-226.52166	104.18920
20050.00000	104.21031	-229.03983	104.21031
20100.00000	104.21839	-231.76424	104.21839
20150.00000	104.23717	-234.43796	104.23717
20200.00000	104.23397	-237.15930	104.23397
20250.00000	104.23789	-239.62622	104.23789
20300.00000	104.25217	-242.21405	104.25217
20350.00000	104.24769	-244.75126	104.24769
20400.00000	104.25095	-247.45379	104.25095
20450.00000	104.26463	-250.05541	104.26463
20500.00000	104.25904	-252.74372	104.25904
20550.00000	104.24162	-255.64284	104.24162
20600.00000	104.26498	-258.16184	104.26498
20650.00000	104.27839	-260.91449	104.27839
20700.00000	104.28096	-263.53685	104.28096
20750.00000	104.25497	-266.15058	104.25497
20800.00000	104.26222	-268.82171	104.26222
20850.00000	104.24124	-271.65975	104.24124
20900.00000	104.22007	-274.23513	104.22007
20950.00000	104.21147	-277.06290	104.21147
21000.00000	104.23914	-279.89622	104.23914
21050.00000	104.24627	-282.51814	104.24627
21100.00000	104.24952	-285.36090	104.24952
21150.00000	104.24761	-287.88373	104.24761
21200.00000	104.23700	-290.47300	104.23700
21250.00000	104.19983	-293.08958	104.19983
21300.00000	104.18882	-296.02931	104.18882
21350.00000	104.16589	-298.76160	104.16589
21400.00000	104.16193	-301.71828	104.16193
21450.00000	104.19799	-304.35713	104.19799
21500.00000	104.23587	-306.78563	104.23587
21550.00000	104.23300	-309.69728	104.23300
21600.00000	104.23804	-312.70172	104.23804
21650.00000	104.23777	-315.37214	104.23777
21700.00000	104.20229	-318.58417	104.20229
21750.00000	104.18336	-321.57824	104.18336
21800.00000	104.17411	-324.85160	104.17411
21850.00000	104.18181	-327.81991	104.18181
21900.00000	104.13597	-330.84215	104.13597
21950.00000	104.07139	-333.91745	104.07139
22000.00000	103.97711	-337.05076	103.97711
22050.00000	103.90260	-339.77287	103.90260
22100.00000	103.84708	-342.56698	103.84708
22150.00000	103.81691	-345.54280	103.81691
22200.00000	103.74256	-348.57514	103.74256
22250.00000	103.70600	-351.51757	103.70600
22300.00000	103.60914	-354.45155	103.60914
22350.00000	103.52037	-357.58788	103.52037
22400.00000	103.47971	-360.72768	103.47971
22450.00000	103.39930	-363.38174	103.39930
22500.00000	103.29008	-366.74630	103.29008
22550.00000	103.20424	-369.70896	103.20424
22600.00000	103.07144	-372.42412	103.07144
22650.00000	102.97177	-375.32513	102.97177
22700.00000	102.86908	-378.18874	102.86908
22750.00000	102.73595	-381.33660	102.73595
22800.00000	102.59451	-383.97328	102.59451
22850.00000	102.50342	-386.66496	102.50342
22900.00000	102.41063	-389.11139	102.41063
22950.00000	102.33645	-391.97117	102.33645
23000.00000	102.19526	-394.55248	102.19526
23050.00000	102.08106	-397.32146	102.08106
23100.00000	101.94716	-400.50560	101.94716
23150.00000	101.82226	-403.21299	101.82226
23200.00000	101.70670	-406.20672	101.70670
23250.00000	101.62586	-408.92950	101.62586
23300.00000	101.55493	-412.01574	101.55493
23350.00000	101.32796	-414.51214	101.32796
23400.00000	101.21455	-417.30438	101.21455
23450.00000	101.04695	-419.80590	101.04695
23500.00000	100.90936	-422.28073	100.90936
23550.00000	100.75733	-425.22146	100.75733
23600.00000	100.68663	-427.90742	100.68663
23650.00000	100.43615	-430.60218	100.43615
23700.00000	100.34251	-432.90060	100.34251
23750.00000	100.14214	-435.98086	100.14214
23800.00000	99.95111	-438.81147	99.95111
23850.00000	99.81494	-441.21415	99.81494
23900.00000	99.62850	-444.16642	99.62850
23950.00000	99.47471	-446.51511	99.47471
24000.00000	99.37290	-449.35005	99.37290
24050.00000	99.09696	-451.98278	99.09696
24100.00000	98.84732	-454.80268	98.84732
24150.00000	98.66678	-456.73679	98.66678
24200.00000	98.47816	-459.94735	98.47816
24250.00000	98.22760	-462.07181	98.22760
24300.00000	97.97843	-464.42616	97.97843
24350.00000	97.80766	-466.62644	97.80766
24400.00000	97.62820	-469.24696	97.62820
24450.00000	97.32157	-470.28569	97.32157
24500.00000	97.06495	-473.66117	97.06495
24550.00000	96.85738	-476.33473	96.85738
24600.00000	96.60125	-478.19429	96.60125
24650.00000	96.40488	-480.54753	96.40488
24700.00000	96.12668	-482.46259	96.12668
24750.00000	95.87481	-484.93340	95.87481
24800.00000	95.65174	-486.12978	95.65174
24850.00000	95.40101	-488.32104	95.40101
24900.00000	95.07836	-489.72400	95.07836
24950.00000	95.01028	-491.74623	95.01028
25000.00000	94.70954	-493.69405	94.70954
25050.00000	94.48399	-494.48540	94.48399
25100.00000	94.19498	-495.82175	94.19498
25150.00000	93.89026	-497.56682	93.89026
25200.00000	93.66069	-498.70804	93.66069
25250.00000	93.36713	-500.14595	93.36713
25300.00000	93.09288	-501.20015	93.09288
25350.00000	93.03729	-502.75811	93.03729
25400.00000	92.96883	-503.94740	92.96883
25450.00000	92.74524	-505.96856	92.74524
25500.00000	92.45240	-506.53087	92.45240
25550.00000	92.22020	-508.21738	92.22020
25600.00000	92.02400	-508.58221	92.02400
25650.00000	91.78073	-510.57032	91.78073
25700.00000	91.59524	-511.22628	91.59524
25750.00000	91.51458	-511.97039	91.51458
25800.00000	91.42931	-512.78809	91.42931
25850.00000	91.26563	-514.25140	91.26563
25900.00000	91.09232	-515.26793	91.09232
25950.00000	91.00463	-515.95913	91.00463
26000.00000	90.84264	-517.27873	90.84264
26050.00000	90.73684	-518.02683	90.73684
26100.00000	90.67075	-518.79939	90.67075
26150.00000	90.56206	-520.31521	90.56206
26200.00000	90.50552	-520.52832	90.50552
26250.00000	90.44507	-522.47671	90.44507
26300.00000	90.25148	-523.74295	90.25148
26350.00000	90.25866	-524.64171	90.25866
26400.00000	90.31503	-526.41340	90.31503
26450.00000	90.04416	-528.15967	90.04416
26500.00000	89.91629	-529.22254	89.91629
26550.00000	89.90957	-529.75147	89.90957
26600.00000	89.77643	-531.54427	89.77643
26650.00000	89.69701	-533.49259	89.69701
26700.00000	89.61013	-534.12429	89.61013
26750.00000	89.46760	-535.34522	89.46760
26800.00000	89.35260	-537.06227	89.35260
26850.00000	89.24809	-538.03200	89.24809
26900.00000	89.17748	-539.66178	89.17748
26950.00000	89.05509	-541.27677	89.05509
27000.00000	88.87383	-542.74131	88.87383
27050.00000	88.71580	-543.79800	88.71580
27100.00000	88.59032	-544.62807	88.59032
27150.00000	88.46423	-545.89600	88.46423
27200.00000	88.33842	-547.12437	88.33842
27250.00000	88.23465	-547.99750	88.23465
27300.00000	88.14490	-548.44269	88.14490
27350.00000	88.02199	-550.50265	88.02199
27400.00000	87.89260	-551.32372	87.89260
27450.00000	87.81096	-552.48686	87.81096
27500.00000	87.58690	-553.26043	87.58690
27550.00000	87.45733	-553.89328	87.45733
27600.00000	87.38263	-554.95385	87.38263
27650.00000	87.26132	-555.39669	87.26132
27700.00000	87.13522	-555.86532	87.13522
27750.00000	86.98271	-557.13079	86.98271
27800.00000	86.95306	-557.58352	86.95306
27850.00000	86.81594	-558.55569	86.81594
27900.00000	86.84880	-558.75034	86.84880
27950.00000	86.69237	-559.20254	86.69237
28000.00000	86.53925	-559.26794	86.53925
28050.00000	86.45576	-559.95691	86.45576
28100.00000	86.35489	-560.49848	86.35489
28150.00000	86.38928	-561.65222	86.38928
28200.00000	86.45132	-561.62862	86.45132
28250.00000	86.29898	-562.48464	86.29898
28300.00000	86.29329	-563.48989	86.29329
28350.00000	86.14652	-563.23020	86.14652
28400.00000	86.17112	-562.93700	86.17112
28450.00000	86.06943	-563.32617	86.06943
28500.00000	86.22335	-564.24160	86.22335
28550.00000	86.14482	-564.99923	86.14482
28600.00000	86.30813	-564.95481	86.30813
28650.00000	86.23890	-564.74130	86.23890
28700.00000	86.21716	-565.74655	86.21716
28750.00000	86.25529	-566.11701	86.25529
28800.00000	86.24288	-567.23550	86.24288
28850.00000	86.30165	-567.39658	86.30165
28900.00000	86.45648	-568.44788	86.45648
28950.00000	86.40672	-568.40309	86.40672
29000.00000	86.51857	-569.44465	86.51857
29050.00000	86.60749	-569.58356	86.60749
29100.00000	86.64817	-570.39639	86.64817
29150.00000	86.71491	-571.49525	86.71491
29200.00000	86.85859	-571.45613	86.85859
29250.00000	86.96430	-572.57472	86.96430
29300.00000	86.92080	-573.70823	86.92080
29350.00000	87.09749	-573.92493	87.09749
29400.00000	87.09916	-575.09814	87.09916
29450.00000	87.15583	-576.32736	87.15583
29500.00000	87.29797	-577.21685	87.29797
29550.00000	87.42189	-577.40829	87.42189
29600.00000	87.36685	-578.91483	87.36685
29650.00000	87.45776	-579.93614	87.45776
29700.00000	87.57849	-580.84220	87.57849
29750.00000	87.56917	-581.96540	87.56917
29800.00000	87.70171	-582.15290	87.70171
29850.00000	87.78708	-583.48117	87.78708
29900.00000	87.92274	-584.00354	87.92274
29950.00000	88.03769	-584.87674	88.03769
30000.00000	88.12045	-586.32418	88.12045
30050.00000	88.14520	-587.29625	88.14520
30100.00000	88.26658	-588.17625	88.26658
30150.00000	88.40591	-589.30677	88.40591
30200.00000	88.41610	-590.24751	88.41610
30250.00000	88.55149	-591.37860	88.55149
30300.00000	88.65758	-591.47047	88.65758
30350.00000	88.74669	-592.70214	88.74669
30400.00000	88.82831	-594.36249	88.82831
30450.00000	88.92236	-595.13618	88.92236
30500.00000	89.09456	-595.89679	89.09456
30550.00000	89.12292	-596.87886	89.12292
30600.00000	89.30158	-598.53648	89.30158
30650.00000	89.45970	-598.59556	89.45970
30700.00000	89.52783	-600.03468	89.52783
30750.00000	89.64630	-601.64985	89.64630
30800.00000	89.77270	-602.26933	89.77270
30850.00000	89.84131	-602.67984	89.84131
30900.00000	90.04118	-604.10144	90.04118
30950.00000	90.15004	-605.81559	90.15004
31000.00000	90.35173	-606.35939	90.35173
31050.00000	90.34320	-608.06582	90.34320
31100.00000	90.58682	-608.77611	90.58682
31150.00000	90.71076	-609.88276	90.71076
31200.00000	90.81824	-611.01722	90.81824
31250.00000	90.94445	-612.13688	90.94445
31300.00000	91.18402	-613.50327	91.18402
31350.00000	91.33940	-615.02190	91.33940
31400.00000	91.51618	-616.17066	91.51618
31450.00000	91.64232	-617.48783	91.64232
31500.00000	91.80109	-618.66424	91.80109
31550.00000	92.03089	-620.19652	92.03089
31600.00000	92.17848	-621.81726	92.17848
31650.00000	92.32449	-623.54945	92.32449
31700.00000	92.49980	-624.78258	92.49980
31750.00000	92.60038	-626.48321	92.60038
31800.00000	92.83278	-628.46687	92.83278
31850.00000	92.93734	-629.57335	92.93734
31900.00000	93.08575	-631.64890	93.08575
31950.00000	93.26455	-633.23876	93.26455
32000.00000	93.40210	-635.20136	93.40210
32050.00000	93.46632	-636.72950	93.46632
32100.00000	93.62765	-638.51375	93.62765
32150.00000	93.78346	-640.30444	93.78346
32200.00000	93.92088	-641.91659	93.92088
32250.00000	93.98578	-643.76087	93.98578
32300.00000	94.10846	-645.59106	94.10846
32350.00000	94.16452	-647.27287	94.16452
32400.00000	94.29416	-649.14180	94.29416
32450.00000	94.50203	-650.53291	94.50203
32500.00000	94.50391	-652.56092	94.50391
32550.00000	94.62748	-654.63348	94.62748
32600.00000	94.68573	-656.22558	94.68573
32650.00000	94.74422	-657.56033	94.74422
32700.00000	94.78411	-659.14859	94.78411
32750.00000	94.88161	-660.79112	94.88161
32800.00000	94.99406	-662.72351	94.99406
32850.00000	95.04938	-663.83734	95.04938
32900.00000	95.11855	-665.55197	95.11855
32950.00000	95.23359	-666.92385	95.23359
33000.00000	95.26980	-667.92715	95.26980
33050.00000	95.41364	-669.44100	95.41364
33100.00000	95.56399	-670.22165	95.56399
33150.00000	95.56336	-672.08782	95.56336
33200.00000	95.73071	-672.93706	95.73071
33250.00000	95.82441	-674.09412	95.82441
33300.00000	95.98567	-675.14554	95.98567
33350.00000	96.08974	-676.70419	96.08974
33400.00000	96.27885	-678.13489	96.27885
33450.00000	96.39524	-679.38956	96.39524
33500.00000	96.51328	-680.52227	96.51328
33550.00000	96.65436	-681.80187	96.65436
33600.00000	96.74630	-683.31698	96.74630
33650.00000	96.91021	-684.61297	96.91021
33700.00000	97.05767	-685.56585	97.05767
33750.00000	97.21695	-687.02789	97.21695
33800.00000	97.38341	-688.19694	97.38341
33850.00000	97.64817	-689.30190	97.64817
33900.00000	97.83869	-690.87461	97.83869
33950.00000	98.02559	-691.75461	98.02559
34000.00000	98.26200	-693.57058	98.26200
34050.00000	98.42933	-694.76645	98.42933
34100.00000	98.61572	-696.11880	98.61572
34150.00000	98.85024	-697.67319	98.85024
34200.00000	99.04221	-698.99226	99.04221
34250.00000	99.29983	-700.68078	99.29983
34300.00000	99.49614	-702.08920	99.49614
34350.00000	99.72458	-703.89891	99.72458
34400.00000	99.99478	-705.24508	99.99478
34450.00000	100.14654	-706.79593	100.14654
34500.00000	100.46168	-708.72051	100.46168
34550.00000	100.73779	-710.24978	100.73779
34600.00000	100.98099	-711.82275	100.98099
34650.00000	101.28139	-714.01780	101.28139
34700.00000	101.53706	-715.48163	101.53706
34750.00000	101.78518	-717.65090	101.78518
34800.00000	102.12119	-719.66975	102.12119
34850.00000	102.41217	-721.78682	102.41217
34900.00000	102.68005	-724.10660	102.68005
34950.00000	102.95751	-726.75904	102.95751
35000.00000	103.22002	-729.32276	103.22002
35050.00000	103.42444	-731.86277	103.42444
35100.00000	103.53842	-734.45104	103.53842
35150.00000	103.67174	-736.38271	103.67174
35200.00000	103.90528	-737.92578	103.90528
35250.00000	104.19067	-739.64239	104.19067
35300.00000	104.47053	-741.63801	104.47053
35350.00000	104.79118	-743.90914	104.79118
35400.00000	105.09350	-746.41223	105.09350
35450.00000	105.37239	-749.16461	105.37239
35500.00000	105.70326	-752.06443	105.70326
35550.00000	105.94589	-754.95004	105.94589
35600.00000	106.21901	-757.93387	106.21901
35650.00000	106.44893	-760.69211	106.44893
35700.00000	106.67093	-763.90158	106.67093
35750.00000	106.91261	-766.98465	106.91261
35800.00000	107.15989	-770.18946	107.15989
35850.00000	107.35525	-773.51783	107.35525
35900.00000	107.53453	-776.59227	107.53453
35950.00000	107.69828	-779.86738	107.69828
36000.00000	107.87329	-782.91055	107.87329
36050.00000	108.02127	-786.33942	108.02127
36100.00000	108.14913	-789.46154	108.14913
36150.00000	108.28389	-792.83484	108.28389
36200.00000	108.43701	-795.88997	108.43701
36250.00000	108.52603	-799.21681	108.52603
36300.00000	108.60881	-802.37697	108.60881
36350.00000	108.69831	-805.62164	108.69831
36400.00000	108.75449	-808.84264	108.75449
36450.00000	108.83190	-811.79258	108.83190
36500.00000	108.88946	-814.79783	108.88946
36550.00000	108.92026	-817.85365	108.92026
36600.00000	108.94551	-820.58525	108.94551
36650.00000	108.98438	-823.47169	108.98438
36700.00000	109.03304	-826.08524	109.03304
36750.00000	109.02167	-828.76163	109.02167
36800.00000	109.05110	-831.42583	109.05110
36850.00000	109.07804	-833.79381	109.07804
36900.00000	109.08161	-836.27337	109.08161
36950.00000	109.11088	-838.45909	109.11088
37000.00000	109.11809	-840.68637	109.11809
37050.00000	109.15543	-842.75276	109.15543
37100.00000	109.18865	-844.74729	109.18865
37150.00000	109.21301	-846.71299	109.21301
37200.00000	109.25481	-848.54168	109.25481
37250.00000	109.32315	-850.07662	109.32315
37300.00000	109.36955	-851.67057	109.36955
37350.00000	109.46313	-853.13339	109.46313
37400.00000	109.54790	-854.46230	109.54790
37450.00000	109.66385	-855.75218	109.66385
37500.00000	109.81804	-856.65279	109.81804
37550.00000	110.03005	-857.78392	110.03005
37600.00000	110.26402	-858.65306	110.26402
37650.00000	110.54763	-859.73186	110.54763
37700.00000	110.86675	-860.54793	110.86675
37750.00000	111.27972	-861.59056	111.27972
37800.00000	111.73354	-862.94655	111.73354
37850.00000	112.23530	-864.57097	112.23530
37900.00000	112.78466	-866.63469	112.78466
37950.00000	113.33619	-869.22171	113.33619
38000.00000	113.90485	-872.13876	113.90485
38050.00000	114.46909	-875.74877	114.46909
38100.00000	114.99701	-879.63789	114.99701
38150.00000	115.48992	-884.03915	115.48992
38200.00000	115.93046	-888.60344	115.93046
38250.00000	116.32841	-893.29744	116.32841
38300.00000	116.68576	-898.11131	116.68576
38350.00000	117.01846	-903.12914	117.01846
38400.00000	117.32475	-908.13971	117.32475
38450.00000	117.57880	-913.24308	117.57880
38500.00000	117.81703	-918.28136	117.81703
38550.00000	118.02771	-923.46081	118.02771
38600.00000	118.19088	-928.55312	118.19088
38650.00000	118.35337	-933.66998	118.35337
38700.00000	118.48637	-938.72568	118.48637
38750.00000	118.58725	-943.81243	118.58725
38800.00000	118.66868	-948.81355	118.66868
38850.00000	118.75144	-953.80970	118.75144
38900.00000	118.80828	-958.75824	118.80828
38950.00000	118.84472	-963.70140	118.84472
39000.00000	118.87197	-968.61480	118.87197
39050.00000	118.88957	-973.47544	118.88957
39100.00000	118.89093	-978.40544	118.89093
39150.00000	118.86559	-983.26363	118.86559
39200.00000	118.83044	-988.08666	118.83044
39250.00000	118.78599	-992.76191	118.78599
39300.00000	118.72740	-997.44180	118.72740
39350.00000	118.67160	-1002.06695	118.67160
39400.00000	118.60790	-1006.76498	118.60790
39450.00000	118.54195	-1011.36346	118.54195
39500.00000	118.46401	-1015.97690	118.46401
39550.00000	118.38495	-1020.57087	118.38495
39600.00000	118.27504	-1025.36469	118.27504
39650.00000	118.15123	-1030.04781	118.15123
39700.00000	118.00857	-1034.79877	118.00857
39750.00000	117.83606	-1039.46284	117.83606
39800.00000	117.63274	-1044.02026	117.63274
39850.00000	117.43105	-1048.58730	117.43105
39900.00000	117.18836	-1052.88610	117.18836
39950.00000	116.96129	-1057.27904	116.96129
40000.00000	116.69987	-1061.59142	116.69987
40050.00000	116.43114	-1065.68671	116.43114
40100.00000	116.13769	-1069.65964	116.13769
40150.00000	115.86137	-1073.54061	115.86137
40200.00000	115.55159	-1077.33179	115.55159
40250.00000	115.23868	-1080.97148	115.23868
40300.00000	114.92120	-1084.48397	114.92120
40350.00000	114.61499	-1087.84697	114.61499
40400.00000	114.27700	-1091.17762	114.27700
40450.00000	113.94692	-1094.35536	113.94692
40500.00000	113.60753	-1097.27010	113.60753
40550.00000	113.27568	-1100.24330	113.27568
40600.00000	112.94612	-1102.94094	112.94612
40650.00000	112.60659	-1105.65931	112.60659
40700.00000	112.26911	-1108.28989	112.26911
40750.00000	111.92262	-1110.57712	111.92262
40800.00000	111.58408	-1112.73952	111.58408
40850.00000	111.27089	-1114.74906	111.27089
40900.00000	110.97671	-1116.68441	110.97671
40950.00000	110.67887	-1118.52553	110.67887
41000.00000	110.38681	-1120.32332	110.38681
41050.00000	110.12646	-1121.90072	110.12646
41100.00000	109.86190	-1123.53193	109.86190
41150.00000	109.63247	-1124.87897	109.63247
41200.00000	109.42055	-1126.33081	109.42055
41250.00000	109.20293	-1127.60303	109.20293
41300.00000	109.03196	-1128.85337	109.03196
41350.00000	108.87235	-1130.07982	108.87235
41400.00000	108.69914	-1131.36742	108.69914
41450.00000	108.58326	-1132.41946	108.58326
41500.00000	108.44827	-1133.57547	108.44827
41550.00000	108.33015	-1134.77637	108.33015
41600.00000	108.25362	-1135.99978	108.25362
41650.00000	108.20330	-1136.99888	108.20330
41700.00000	108.17513	-1138.23234	108.17513
41750.00000	108.15674	-1139.31831	108.15674
41800.00000	108.17256	-1140.92607	108.17256
41850.00000	108.15345	-1142.55232	108.15345
41900.00000	108.21364	-1144.37475	108.21364
41950.00000	108.22061	-1146.04735	108.22061
42000.00000	108.26059	-1148.40810	108.26059
42050.00000	108.26621	-1150.12935	108.26621
42100.00000	108.28092	-1152.48488	108.28092
42150.00000	108.29365	-1154.77998	108.29365
42200.00000	108.28002	-1157.13988	108.28002
42250.00000	108.24991	-1159.32089	108.24991
42300.00000	108.23239	-1161.45521	108.23239
42350.00000	108.19348	-1164.09781	108.19348
42400.00000	108.09945	-1166.39491	108.09945
42450.00000	108.03103	-1168.86799	108.03103
42500.00000	107.94487	-1171.41279	107.94487
42550.00000	107.83771	-1173.54947	107.83771
42600.00000	107.70686	-1175.80166	107.70686
42650.00000	107.61931	-1177.78428	107.61931
42700.00000	107.48837	-1179.80025	107.48837
42750.00000	107.36588	-1181.71052	107.36588
42800.00000	107.29512	-1183.93813	107.29512
42850.00000	107.16190	-1185.67883	107.16190
42900.00000	107.05670	-1187.74190	107.05670
42950.00000	106.95468	-1189.10470	106.95468
43000.00000	106.85798	-1190.92603	106.85798
43050.00000	106.76587	-1192.41354	106.76587
43100.00000	106.71015	-1194.27876	106.71015
43150.00000	106.64261	-1195.39609	106.64261
43200.00000	106.54343	-1197.30409	106.54343
43250.00000	106.48849	-1198.47718	106.48849
43300.00000	106.44498	-1199.66764	106.44498
43350.00000	106.39267	-1201.34282	106.39267
43400.00000	106.39369	-1202.66968	106.39369
43450.00000	106.32886	-1204.13459	106.32886
43500.00000	106.25773	-1205.52318	106.25773
43550.00000	106.23218	-1206.64741	106.23218
43600.00000	106.24930	-1208.33277	106.24930
43650.00000	106.32484	-1209.53875	106.32484
43700.00000	106.29310	-1211.15603	106.29310
43750.00000	106.29113	-1212.93063	106.29113
43800.00000	106.29690	-1214.48313	106.29690
43850.00000	106.29113	-1215.86765	106.29113
43900.00000	106.38663	-1217.59211	106.38663
43950.00000	106.36566	-1219.29797	106.36566
44000.00000	106.43606	-1220.36266	106.43606
44050.00000	106.45733	-1221.78463	106.45733
44100.00000	106.50717	-1223.54736	106.50717
44150.00000	106.53744	-1224.85358	106.53744
44200.00000	106.59815	-1226.71716	106.59815
44250.00000	106.63878	-1228.22232	106.63878
44300.00000	106.67990	-1229.69845	106.67990
44350.00000	106.78776	-1231.33803	106.78776
44400.00000	106.92742	-1233.12664	106.92742
44450.00000	106.92475	-1234.12256	106.92475
44500.00000	106.98129	-1235.24148	106.98129
44550.00000	107.08777	-1236.86301	107.08777
44600.00000	107.18727	-1238.27719	107.18727
44650.00000	107.27075	-1240.02368	107.27075
44700.00000	107.40128	-1241.92179	107.40128
44750.00000	107.52431	-1243.78277	107.52431
44800.00000	107.63426	-1245.01833	107.63426
44850.00000	107.81006	-1247.00858	107.81006
44900.00000	107.91585	-1248.77284	107.91585
44950.00000	108.00907	-1250.78656	108.00907
45000.00000	108.20328	-1252.75256	108.20328
45050.00000	108.38694	-1254.79233	108.38694
45100.00000	108.53156	-1256.48993	108.53156
45150.00000	108.68324	-1258.32656	108.68324
45200.00000	108.86786	-1260.76410	108.86786
45250.00000	109.11670	-1262.74708	109.11670
45300.00000	109.31645	-1264.70795	109.31645
45350.00000	109.45429	-1266.37023	109.45429
45400.00000	109.71566	-1269.01570	109.71566
45450.00000	109.93953	-1271.39539	109.93953
45500.00000	110.14241	-1273.70989	110.14241
45550.00000	110.36478	-1275.88884	110.36478
45600.00000	110.62289	-1278.68456	110.62289
45650.00000	110.88861	-1281.41328	110.88861
45700.00000	111.13137	-1284.38555	111.13137
45750.00000	111.40703	-1287.43654	111.40703
45800.00000	111.59733	-1291.02240	111.59733
45850.00000	111.86956	-1294.95089	111.86956
45900.00000	112.03128	-1298.86793	112.03128
45950.00000	112.25255	-1302.83481	112.25255
46000.00000	112.39777	-1306.78490	112.39777
46050.00000	112.53791	-1310.73264	112.53791
46100.00000	112.62207	-1315.00683	112.62207
46150.00000	112.73339	-1319.03419	112.73339
46200.00000	112.78060	-1323.50455	112.78060
46250.00000	112.86703	-1327.73849	112.86703
46300.00000	112.85004	-1331.80596	112.85004
46350.00000	112.88175	-1335.95631	112.88175
46400.00000	112.78757	-1340.19810	112.78757
46450.00000	112.78220	-1343.80626	112.78220
46500.00000	112.68364	-1347.85818	112.68364
46550.00000	112.60477	-1352.00226	112.60477
46600.00000	112.46840	-1355.36014	112.46840
46650.00000	112.35769	-1358.99699	112.35769
46700.00000	112.24239	-1362.48770	112.24239
46750.00000	112.10480	-1366.10985	112.10480
46800.00000	112.04051	-1369.37093	112.04051
46850.00000	111.90945	-1372.88446	111.90945
46900.00000	111.79350	-1376.09488	111.79350
46950.00000	111.65713	-1379.25239	111.65713
47000.00000	111.53284	-1382.63454	111.53284
47050.00000	111.41544	-1386.08429	111.41544
47100.00000	111.28956	-1388.91370	111.28956
47150.00000	111.12532	-1391.58384	111.12532
47200.00000	111.04839	-1395.10900	111.04839
47250.00000	110.87291	-1397.39690	110.87291
47300.00000	110.79575	-1400.48078	110.79575
47350.00000	110.66728	-1403.57251	110.66728
47400.00000	110.54459	-1406.09648	110.54459
47450.00000	110.44298	-1409.06211	110.44298
47500.00000	110.36858	-1411.15018	110.36858
47550.00000	110.25764	-1413.95846	110.25764
47600.00000	110.14510	-1416.91412	110.14510
47650.00000	109.96994	-1419.32488	109.96994
47700.00000	109.94663	-1422.20736	109.94663
47750.00000	109.79980	-1424.93267	109.79980
47800.00000	109.71741	-1427.14691	109.71741
47850.00000	109.64702	-1429.86884	109.64702
47900.00000	109.56958	-1432.18271	109.56958
47950.00000	109.51462	-1435.36600	109.51462
48000.00000	109.44300	-1438.20047	109.44300
48050.00000	109.39611	-1440.52155	109.39611
48100.00000	109.33316	-1443.99081	109.33316
48150.00000	109.31393	-1446.39342	109.31393
48200.00000	109.19361	-1449.48055	109.19361
48250.00000	109.12934	-1452.18161	109.12934
48300.00000	109.15776	-1455.09590	109.15776
48350.00000	109.13514	-1457.76373	109.13514
48400.00000	108.94344	-1461.64073	108.94344
48450.00000	108.98789	-1464.84921	108.98789
48500.00000	108.89189	-1468.13252	108.89189
48550.00000	108.79154	-1470.64167	108.79154
48600.00000	108.65190	-1475.23873	108.65190
48650.00000	108.52616	-1478.35992	108.52616
48700.00000	108.36733	-1481.35801	108.36733
48750.00000	108.27716	-1485.25725	108.27716
48800.00000	108.00870	-1488.30464	108.00870
48850.00000	107.75294	-1132.90088	107.75294
48900.00000	107.70356	-1135.85528	107.70356
48950.00000	107.26985	-779.38771	107.26985
49000.00000	107.01550	-423.19201	107.01550
49050.00000	106.70805	-426.67246	106.70805
49100.00000	106.37118	-68.87248	106.37118
49150.00000	106.09321	287.41300	106.09321
49200.00000	105.53120	285.98287	105.53120
49250.00000	105.26556	283.89867	105.26556
49300.00000	104.87024	641.74968	104.87024
49350.00000	104.49756	640.16022	104.49756
49400.00000	104.00302	637.79926	104.00302
49450.00000	103.80928	637.22944	103.80928
49500.00000	103.50153	995.88563	103.50153
49550.00000	103.15850	995.40424	103.15850
49600.00000	102.91803	1353.90910	102.91803
49650.00000	102.71167	1711.91419	102.71167
49700.00000	102.26482	2071.25798	102.26482
49750.00000	102.15028	2071.83115	102.15028
49800.00000	101.97271	2070.71559	101.97271
49850.00000	101.90293	2789.01822	101.90293
49900.00000	101.75039	2788.87670	101.75039
49950.00000	101.60016	3148.79445	101.60016
50000.00000	101.61603	3148.41569	101.61603
50050.00000	101.42552	3147.51260	101.42552
50100.00000	101.38090	3146.52077	101.38090
50150.00000	101.47403	3145.32420	101.47403
50200.00000	101.39859	3143.41235	101.39859
50250.00000	101.26415	3143.54955	101.26415
50300.00000	101.35021	3141.79362	101.35021
50350.00000	101.22824	3141.71806	101.22824
50400.00000	101.41615	3140.06887	101.41615
50450.00000	101.41504	3138.75874	101.41504
50500.00000	101.45187	3138.38029	101.45187
50550.00000	101.35886	3136.22320	101.35886
50600.00000	101.56724	3134.23543	101.56724
50650.00000	101.64353	3133.41214	101.64353
50700.00000	101.52699	3130.78662	101.52699
50750.00000	101.47172	3128.94900	101.47172
50800.00000	101.59988	3127.19561	101.59988
50850.00000	101.65005	3125.82200	101.65005
50900.00000	101.47569	3123.13747	101.47569
50950.00000	101.69908	3121.48662	101.69908
51000.00000	101.78536	3118.31831	101.78536
51050.00000	101.76722	3117.19405	101.76722
51100.00000	101.69905	3114.02244	101.69905
51150.00000	101.65676	3111.93074	101.65676
51200.00000	101.46397	3108.84352	101.46397
51250.00000	101.58682	3107.47946	101.58682
51300.00000	101.58690	3104.44404	101.58690
51350.00000	101.52313	3102.84244	101.52313
51400.00000	101.53362	3098.71002	101.53362
51450.00000	101.38810	3097.76736	101.38810
51500.00000	101.32769	3095.30999	101.32769
51550.00000	101.18387	3093.35893	101.18387
51600.00000	101.00709	3090.20940	101.00709
51650.00000	100.73833	3088.19686	100.73833
51700.00000	100.63210	3086.31191	100.63210
51750.00000	100.43292	3084.05999	100.43292
51800.00000	100.31636	3082.44808	100.31636
51850.00000	100.18123	3079.45888	100.18123
51900.00000	99.78758	3078.45601	99.78758
51950.00000	99.54466	3076.12586	99.54466
52000.00000	99.16311	3075.67725	99.16311
52050.00000	99.15759	3074.30169	99.15759
52100.00000	98.84702	3073.65351	98.84702
52150.00000	98.65024	3073.25121	98.65024
52200.00000	98.54905	3073.65378	98.54905
52250.00000	98.53093	3071.81822	98.53093
52300.00000	98.05564	3073.16660	98.05564
52350.00000	98.22959	3071.42012	98.22959
52400.00000	98.11213	3070.63102	98.11213
52450.00000	98.21983	3071.44707	98.21983
52500.00000	98.15275	3069.79313	98.15275
52550.00000	98.17969	3070.64250	98.17969
52600.00000	98.10809	3069.35540	98.10809
52650.00000	98.36044	3070.34000	98.36044
52700.00000	98.31974	3069.67407	98.31974
52750.00000	98.52889	3068.60036	98.52889
52800.00000	98.63331	3067.59395	98.63331
52850.00000	98.49126	3066.45439	98.49126
52900.00000	98.92338	3065.04345	98.92338
52950.00000	98.92353	3063.64538	98.92353
53000.00000	98.95936	3063.69463	98.95936
53050.00000	99.16890	3062.19141	99.16890
53100.00000	99.30642	3060.90594	99.30642
53150.00000	99.52591	3059.61398	99.52591
53200.00000	99.37011	3058.23726	99.37011
53250.00000	99.66337	3055.92693	99.66337
53300.00000	99.86512	3053.26848	99.86512
53350.00000	99.91316	3052.61605	99.91316
53400.00000	100.15224	3051.99035	100.15224
53450.00000	100.22381	3048.89314	100.22381
53500.00000	100.28371	3047.73807	100.28371
53550.00000	100.64003	3045.77653	100.64003
53600.00000	100.55272	3042.90852	100.55272
53650.00000	100.93620	3040.59990	100.93620
53700.00000	100.92567	3038.62273	100.92567
53750.00000	101.09210	3036.58173	101.09210
53800.00000	101.15974	3033.72126	101.15974
53850.00000	101.21326	3032.08756	101.21326
53900.00000	101.32052	3029.56626	101.32052
53950.00000	101.15376	3027.60684	101.15376
54000.00000	101.37668	3025.30176	101.37668
54050.00000	101.38192	3022.42772	101.38192
54100.00000	101.49021	3020.16021	101.49021
54150.00000	101.47707	3017.05109	101.47707
54200.00000	101.25972	3015.62054	101.25972
54250.00000	101.35986	3013.29159	101.35986
54300.00000	101.41746	3010.92920	101.41746
54350.00000	101.40687	3008.63781	101.40687
54400.00000	101.42934	3007.75581	101.42934
54450.00000	101.50764	3004.43945	101.50764
54500.00000	101.30238	3002.97395	101.30238
54550.00000	101.24339	3002.31293	101.24339
54600.00000	101.23011	2999.62786	101.23011
54650.00000	101.28602	2997.87411	101.28602
54700.00000	101.20841	2995.99814	101.20841
54750.00000	101.30145	2995.01341	101.30145
54800.00000	101.35782	2993.68001	101.35782
54850.00000	101.27896	2992.70657	101.27896
54900.00000	101.44169	2990.37690	101.44169
54950.00000	101.41362	2990.42594	101.41362
55000.00000	101.71305	2988.82161	101.71305
55050.00000	101.56543	2987.76435	101.56543
55100.00000	101.76990	2986.87400	101.76990
55150.00000	101.89950	2984.24686	101.89950
55200.00000	101.98868	2983.77020	101.98868
55250.00000	102.17807	2982.17165	102.17807
55300.00000	102.43071	2980.40976	102.43071
55350.00000	102.66135	2979.44058	102.66135
55400.00000	102.75203	2977.28079	102.75203
55450.00000	103.18220	2976.10469	103.18220
55500.00000	103.32096	2974.37314	103.32096
55550.00000	103.60207	2972.16537	103.60207
55600.00000	103.79867	2969.78977	103.79867
55650.00000	104.04794	2967.86794	104.04794
55700.00000	104.41115	2965.35529	104.41115
55750.00000	104.69868	2963.25518	104.69868
55800.00000	104.93965	2960.32135	104.93965
55850.00000	105.22797	2957.73201	105.22797
55900.00000	105.43766	2954.52667	105.43766
55950.00000	105.72839	2951.60231	105.72839
56000.00000	105.94541	2948.44965	105.94541
56050.00000	106.19873	2945.47071	106.19873
56100.00000	106.43206	2942.07002	106.43206
56150.00000	106.71482	2938.75843	106.71482
56200.00000	106.87813	2935.14810	106.87813
56250.00000	107.09861	2931.42170	107.09861
56300.00000	107.26714	2927.48265	107.26714
56350.00000	107.47095	2923.52129	107.47095
56400.00000	107.66885	2919.93626	107.66885
56450.00000	107.78916	2916.00344	107.78916
56500.00000	107.95907	2912.00876	107.95907
56550.00000	108.02159	2907.60623	108.02159
56600.00000	108.13706	2903.28708	108.13706
56650.00000	108.20789	2899.13304	108.20789
56700.00000	108.26087	2895.18144	108.26087
56750.00000	108.37042	2890.85436	108.37042
56800.00000	108.37572	2886.79769	108.37572
56850.00000	108.38555	2882.34733	108.38555
56900.00000	108.38218	2878.17468	108.38218
56950.00000	108.33616	2873.95167	108.33616
57000.00000	108.25034	2869.83320	108.25034
57050.00000	108.18858	2865.64526	108.18858
57100.00000	108.09862	2861.58852	108.09862
57150.00000	107.98021	2857.52954	107.98021
57200.00000	107.86654	2853.77784	107.86654
57250.00000	107.77839	2849.57428	107.77839
57300.00000	107.63365	2845.88411	107.63365
57350.00000	107.48949	2842.13941	107.48949
57400.00000	107.32225	2838.76049	107.32225
57450.00000	107.12598	2834.68788	107.12598
57500.00000	106.94158	2831.57890	106.94158
57550.00000	106.77338	2827.87149	106.77338
57600.00000	106.51771	2824.65154	106.51771
57650.00000	106.35695	2821.65527	106.35695
57700.00000	106.11389	2818.51835	106.11389
57750.00000	105.95630	2815.46353	105.95630
57800.00000	105.72307	2812.76908	105.72307
57850.00000	105.54771	2810.28874	105.54771
57900.00000	105.31246	2807.65704	105.31246
57950.00000	105.10463	2805.47045	105.10463
58000.00000	104.99681	2803.44471	104.99681
58050.00000	104.87859	2801.36222	104.87859
58100.00000	104.77516	2798.93857	104.77516
58150.00000	104.68082	2796.87052	104.68082
58200.00000	104.62333	2794.23336	104.62333
58250.00000	104.59133	2791.82364	104.59133
58300.00000	104.55879	2789.20001	104.55879
58350.00000	104.47430	2786.37773	104.47430
58400.00000	104.44391	2783.47138	104.44391
58450.00000	104.38647	2780.74727	104.38647
58500.00000	104.26979	2777.71308	104.26979
58550.00000	104.22383	2774.71917	104.22383
58600.00000	104.06735	2771.75044	104.06735
58650.00000	103.98701	2769.00790	103.98701
58700.00000	103.86012	2765.91434	103.86012
58750.00000	103.70784	2763.03825	103.70784
58800.00000	103.63320	2759.85012	103.63320
58850.00000	103.50601	2756.92917	103.50601
58900.00000	103.31001	2753.91880	103.31001
58950.00000	103.14169	2750.72472	103.14169
59000.00000	102.97259	2747.93593	102.97259
59050.00000	102.78497	2744.74023	102.78497
59100.00000	102.51412	2741.88308	102.51412
59150.00000	102.32583	2739.34776	102.32583
59200.00000	102.06638	2736.63776	102.06638
59250.00000	101.79683	2734.15359	101.79683
59300.00000	101.57079	2731.58833	101.57079
59350.00000	101.27840	2729.19932	101.27840
59400.00000	101.04833	2726.93121	101.04833
59450.00000	100.75066	2725.04414	100.75066
59500.00000	100.52403	2723.21903	100.52403
59550.00000	100.26068	2721.55866	100.26068
59600.00000	100.01642	2719.68690	100.01642
59650.00000	99.84209	2718.29830	99.84209
59700.00000	99.58524	2716.36027	99.58524
59750.00000	99.38088	2715.33826	99.38088
59800.00000	99.20928	2713.96975	99.20928
59850.00000	99.05544	2712.37444	99.05544
59900.00000	98.88039	2711.18180	98.88039
59950.00000	98.73701	2709.82501	98.73701
60000.00000	98.61167	2708.17692	98.61167
60050.00000	98.53235	2706.63160	98.53235
60100.00000	98.34276	2704.77432	98.34276
60150.00000	98.13239	2703.38892	98.13239
60200.00000	98.01679	2701.51265	98.01679
60250.00000	97.80632	2699.80535	97.80632
60300.00000	97.61415	2698.99534	97.61415
60350.00000	97.34591	2697.61484	97.34591
60400.00000	97.14149	2697.27565	97.14149
60450.00000	96.92289	2696.58608	96.92289
60500.00000	96.68965	2696.38975	96.68965
60550.00000	96.61717	2696.41725	96.61717
60600.00000	96.57922	2696.65353	96.57922
60650.00000	96.58242	2697.03548	96.58242
60700.00000	96.58724	2696.87256	96.58724
60750.00000	96.68391	2697.04170	96.68391
60800.00000	96.83292	2696.82449	96.83292
60850.00000	97.06568	2696.32783	97.06568
60900.00000	97.21292	2694.93607	97.21292
60950.00000	97.34445	2694.54462	97.34445
61000.00000	97.58237	2693.28656	97.58237
61050.00000	97.73051	2691.50316	97.73051
61100.00000	97.92856	2690.15525	97.92856
61150.00000	98.07949	2688.30101	98.07949
61200.00000	98.18794	2686.98294	98.18794
61250.00000	98.37986	2684.90780	98.37986
61300.00000	98.46886	2683.26310	98.46886
61350.00000	98.61210	2681.24543	98.61210
61400.00000	98.72478	2679.54661	98.72478
61450.00000	98.88410	2677.76482	98.88410
61500.00000	99.02621	2676.29658	99.02621
61550.00000	99.17471	2674.15625	99.17471
61600.00000	99.33733	2672.36811	99.33733
61650.00000	99.52735	2670.36642	99.52735
61700.00000	99.67636	2668.17951	99.67636
61750.00000	99.85641	2666.27665	99.85641
61800.00000	100.00866	2663.79390	100.00866
61850.00000	100.20024	2661.45979	100.20024
61900.00000	100.40949	2659.02908	100.40949
61950.00000	100.54211	2656.36978	100.54211
62000.00000	100.75808	2653.63048	100.75808
62050.00000	100.92914	2651.12014	100.92914
62100.00000	101.09063	2648.42655	101.09063
62150.00000	101.29852	2645.55601	101.29852
62200.00000	101.45800	2642.50525	101.45800
62250.00000	101.60243	2639.58899	101.60243
62300.00000	101.75208	2636.31525	101.75208
62350.00000	101.88806	2632.89265	101.88806
62400.00000	101.99639	2629.28167	101.99639
62450.00000	102.13267	2625.62980	102.13267
62500.00000	102.19756	2621.74477	102.19756
62550.00000	102.25630	2618.30998	102.25630
62600.00000	102.27835	2614.34529	102.27835
62650.00000	102.32213	2610.99055	102.32213
62700.00000	102.30810	2606.94036	102.30810
62750.00000	102.23434	2603.09475	102.23434
62800.00000	102.18018	2599.45885	102.18018
62850.00000	102.09128	2596.26573	102.09128
62900.00000	102.00874	2592.65158	102.00874
62950.00000	101.82249	2589.47186	101.82249
63000.00000	101.71027	2586.19189	101.71027
63050.00000	101.53921	2583.38936	101.53921
63100.00000	101.39057	2580.61744	101.39057
63150.00000	101.23364	2577.57495	101.23364
63200.00000	101.08947	2575.49179	101.08947
63250.00000	100.93593	2573.12758	100.93593
63300.00000	100.82859	2570.81452	100.82859
63350.00000	100.70952	2569.28375	100.70952
63400.00000	100.64129	2566.99545	100.64129
63450.00000	100.61610	2565.58450	100.61610
63500.00000	100.53892	2563.45005	100.53892
63550.00000	100.51047	2561.56278	100.51047
63600.00000	100.52028	2559.80119	100.52028
63650.00000	100.59875	2557.76668	100.59875
63700.00000	100.65405	2555.92567	100.65405
63750.00000	100.70591	2553.89633	100.70591
63800.00000	100.82819	2551.73382	100.82819
63850.00000	100.92563	2549.34959	100.92563
63900.00000	101.05517	2547.00947	101.05517
63950.00000	101.22749	2544.34422	101.22749
64000.00000	101.30159	2541.35290	101.30159
64050.00000	101.39387	2538.62059	101.39387
64100.00000	101.57134	2535.62757	101.57134
64150.00000	101.70704	2532.58785	101.70704
64200.00000	101.84153	2529.18054	101.84153
64250.00000	101.96807	2525.43375	101.96807
64300.00000	102.05308	2521.67807	102.05308
64350.00000	102.17868	2517.37734	102.17868
64400.00000	102.20419	2513.06733	102.20419
64450.00000	102.23547	2508.91207	102.23547
64500.00000	102.20589	2504.44119	102.20589
64550.00000	102.10623	2499.74639	102.10623
64600.00000	101.96459	2495.29730	101.96459
64650.00000	101.75980	2491.07010	101.75980
64700.00000	101.57132	2486.66502	101.57132
64750.00000	101.34769	2483.43393	101.34769
64800.00000	101.06748	2480.19832	101.06748
64850.00000	100.97288	2476.78557	100.97288
64900.00000	100.73538	2473.76461	100.73538
64950.00000	100.65838	2470.72200	100.65838
65000.00000	100.55109	2466.87603	100.55109
65050.00000	100.42733	2462.76960	100.42733
65100.00000	100.26701	2458.98338	100.26701
65150.00000	100.06987	2454.27958	100.06987
65200.00000	99.71724	2449.94685	99.71724
65250.00000	99.37895	2445.04069	99.37895
65300.00000	98.80693	2440.15224	98.80693
65350.00000	98.18346	2435.56084	98.18346
65400.00000	97.35936	2432.14166	97.35936
65450.00000	96.46855	2429.42541	96.46855
65500.00000	95.46186	2428.51325	95.46186
65550.00000	94.64345	2430.62312	94.64345
65600.00000	93.93387	2432.20455	93.93387
65650.00000	93.41919	2436.34453	93.41919
65700.00000	93.24778	2440.97696	93.24778
65750.00000	93.34352	2443.34809	93.34352
65800.00000	93.54888	2447.00238	93.54888
65850.00000	93.95598	2447.31260	93.95598
65900.00000	94.26014	2448.25138	94.26014
65950.00000	94.74893	2448.56796	94.74893
66000.00000	95.21191	2447.58598	95.21191
66050.00000	95.58784	2446.41764	95.58784
66100.00000	96.08660	2445.73226	96.08660
66150.00000	96.59693	2442.95551	96.59693
66200.00000	97.06270	2440.05638	97.06270
66250.00000	97.53234	2436.86163	97.53234
66300.00000	97.93649	2431.56479	97.93649
66350.00000	98.04338	2426.22899	98.04338
66400.00000	98.28004	2422.04363	98.28004
66450.00000	98.30636	2416.48939	98.30636
66500.00000	98.23308	2411.96591	98.23308
66550.00000	97.97457	2407.22660	97.97457
66600.00000	97.80903	2403.08520	97.80903
66650.00000	97.54990	2399.56220	97.54990
66700.00000	97.38514	2396.52343	97.38514
66750.00000	97.06932	2393.59787	97.06932
66800.00000	96.89554	2390.68939	96.89554
66850.00000	96.71642	2388.12321	96.71642
66900.00000	96.52437	2385.56332	96.52437
66950.00000	96.40384	2383.19862	96.40384
67000.00000	96.21692	2380.32840	96.21692
67050.00000	96.03176	2378.53756	96.03176
67100.00000	95.92047	2375.70100	95.92047
67150.00000	95.72433	2374.35699	95.72433
67200.00000	95.53494	2372.09082	95.53494
67250.00000	95.43172	2370.18818	95.43172
67300.00000	95.41500	2368.28730	95.41500
67350.00000	95.35000	2366.83952	95.35000
67400.00000	95.33041	2365.27714	95.33041
67450.00000	95.31068	2363.13497	95.31068
67500.00000	95.28709	2361.26479	95.28709
67550.00000	95.38782	2358.45058	95.38782
67600.00000	95.36029	2355.82076	95.36029
67650.00000	95.22070	2353.66025	95.22070
67700.00000	95.22387	2351.00858	95.22387
67750.00000	95.16941	2347.75517	95.16941
67800.00000	95.02340	2345.10694	95.02340
67850.00000	94.90131	2342.34955	94.90131
67900.00000	94.83982	2339.85589	94.83982
67950.00000	94.61121	2338.04346	94.61121
68000.00000	94.50675	2335.53476	94.50675
68050.00000	94.28576	2333.45417	94.28576
68100.00000	94.15697	2331.80833	94.15697
68150.00000	93.99026	2330.48134	93.99026
68200.00000	94.01195	2329.00380	94.01195
68250.00000	93.85476	2327.69991	93.85476
68300.00000	93.83159	2326.70146	93.83159
68350.00000	93.82275	2325.24556	93.82275
68400.00000	93.85492	2323.97410	93.85492
68450.00000	93.87536	2322.64582	93.87536
68500.00000	94.08794	2321.85737	94.08794
68550.00000	94.09576	2320.72978	94.09576
68600.00000	94.34671	2318.36318	94.34671
68650.00000	94.60884	2317.28777	94.60884
68700.00000	94.80155	2314.98373	94.80155
68750.00000	95.05697	2312.69907	95.05697
68800.00000	95.31868	2310.04018	95.31868
68850.00000	95.62181	2307.20708	95.62181
68900.00000	95.93040	2303.69166	95.93040
68950.00000	96.18572	2300.22783	96.18572
69000.00000	96.41172	2296.20888	96.41172
69050.00000	96.60034	2291.91192	96.60034
69100.00000	96.82667	2287.25845	96.82667
69150.00000	96.91178	2282.45610	96.91178
69200.00000	97.09028	2277.93810	97.09028
69250.00000	97.13015	2272.72763	97.13015
69300.00000	97.19409	2267.62423	97.19409
69350.00000	97.18712	2262.43638	97.18712
69400.00000	97.16464	2257.14167	97.16464
69450.00000	97.13493	2251.26091	97.13493
69500.00000	97.04385	2245.60181	97.04385
69550.00000	96.92957	2239.27007	96.92957
69600.00000	96.65908	2233.42826	96.65908
69650.00000	96.34365	2227.48236	96.34365
69700.00000	95.94163	2221.28166	95.94163
69750.00000	95.56963	2215.01910	95.56963
69800.00000	95.06092	2208.96127	95.06092
69850.00000	94.35599	2202.92583	94.35599
69900.00000	93.66817	2197.72887	93.66817
69950.00000	92.83528	2192.41017	92.83528
70000.00000	91.92735	2188.02600	91.92735
70050.00000	90.84077	2184.51222	90.84077
70100.00000	89.74194	2181.50045	89.74194
70150.00000	88.59673	2178.84677	88.59673
70200.00000	87.36194	2179.94337	87.36194
70250.00000	86.34741	2181.01323	86.34741
70300.00000	85.14790	2183.86451	85.14790
70350.00000	84.32147	2190.40419	84.32147
70400.00000	83.80067	2196.42071	83.80067
70450.00000	83.78685	2200.82861	83.78685
70500.00000	83.86018	2207.23592	83.86018
70550.00000	84.20614	2211.78238	84.20614
70600.00000	84.66540	2214.69347	84.66540
70650.00000	85.12349	2214.37123	85.12349
70700.00000	85.72173	2215.28360	85.72173
70750.00000	86.30410	2214.02471	86.30410
70800.00000	86.63537	2213.71032	86.63537
70850.00000	86.91643	2211.31295	86.91643
70900.00000	87.39037	2209.76233	87.39037
70950.00000	87.75089	2208.01510	87.75089
71000.00000	88.05451	2206.50874	88.05451
71050.00000	88.34839	2203.93124	88.34839
71100.00000	88.70826	2201.44434	88.70826
71150.00000	89.19242	2198.39006	89.19242
71200.00000	89.49054	2195.14907	89.49054
71250.00000	89.89654	2192.02099	89.89654
71300.00000	90.24815	2187.04765	90.24815
71350.00000	90.47028	2182.22141	90.47028
71400.00000	90.60772	2176.83610	90.60772
71450.00000	90.95320	2171.87098	90.95320
71500.00000	90.86619	2167.18501	90.86619
71550.00000	90.99572	2161.75335	90.99572
71600.00000	90.95910	2155.80280	90.95910
71650.00000	90.71586	2150.98458	90.71586
71700.00000	90.75381	2144.31671	90.75381
71750.00000	90.58937	2139.69445	90.58937
71800.00000	90.20419	2133.23400	90.20419
71850.00000	89.87454	2127.19604	89.87454
71900.00000	89.34741	2122.63501	89.34741
71950.00000	88.95962	2115.76960	88.95962
72000.00000	88.46374	2114.16283	88.46374
72050.00000	87.82106	2110.44969	87.82106
72100.00000	87.27318	2108.14016	87.27318
72150.00000	87.00788	2105.87824	87.00788
72200.00000	86.83855	2101.71569	86.83855
72250.00000	86.45888	2098.06762	86.45888
72300.00000	86.17893	2095.25296	86.17893
72350.00000	85.70989	2090.70380	85.70989
72400.00000	85.57836	2085.66195	85.57836
72450.00000	84.86135	2082.46621	84.86135
72500.00000	84.23505	2077.84591	84.23505
72550.00000	83.94205	2072.98255	83.94205
72600.00000	82.97902	2071.60917	82.97902
72650.00000	82.01639	2066.05403	82.01639
72700.00000	81.21437	2062.95362	81.21437
72750.00000	80.35119	2063.34571	80.35119
72800.00000	78.75798	2062.04058	78.75798
72850.00000	77.80063	2060.80340	77.80063
72900.00000	76.22721	2061.72509	76.22721
72950.00000	75.96067	2072.35007	75.96067
73000.00000	75.23133	2077.92988	75.23133
73050.00000	74.86300	2086.88295	74.86300
73100.00000	75.70316	2090.11018	75.70316
73150.00000	76.20464	2099.73954	76.20464
73200.00000	76.26839	2095.47120	76.26839
73250.00000	76.79670	2097.07637	76.79670
73300.00000	77.45741	2095.30938	77.45741
73350.00000	78.62784	2091.52275	78.62784
73400.00000	78.66103	2091.88938	78.66103
73450.00000	77.75878	2089.54162	77.75878
73500.00000	79.03738	2081.39516	79.03738
73550.00000	78.88686	2083.93330	78.88686
73600.00000	78.48628	2078.17314	78.48628
73650.00000	78.88803	2076.74656	78.88803
73700.00000	79.41322	2075.68989	79.41322
73750.00000	79.97655	2071.92835	79.97655
73800.00000	80.05207	2070.59603	80.05207
73850.00000	80.31747	2065.99950	80.31747
73900.00000	80.28477	2059.94704	80.28477
73950.00000	80.99274	2055.66052	80.99274
74000.00000	81.09646	2046.80873	81.09646
74050.00000	81.26343	2041.02937	81.26343
74100.00000	81.16774	2037.04284	81.16774
74150.00000	81.48961	2020.73138	81.48961
74200.00000	81.69709	2017.34495	81.69709
74250.00000	80.96140	2001.75700	80.96140
74300.00000	81.61355	1977.82160	81.61355
74350.00000	81.21335	1967.54079	81.21335
74400.00000	79.13742	1906.64601	79.13742
74450.00000	74.79999	1733.80813	74.79999
74500.00000	78.64084	1662.60906	78.64084
74550.00000	77.97076	1627.76877	77.97076
74600.00000	77.03656	1604.41630	77.03656
74650.00000	77.68074	1582.74631	77.68074
74700.00000	76.53224	1568.53690	76.53224
74750.00000	76.37632	1553.02606	76.37632
74800.00000	75.74531	1537.29867	75.74531
74850.00000	76.20310	1524.62665	76.20310
74900.00000	76.62857	1507.64044	76.62857
74950.00000	75.91378	1493.84196	75.91378
75000.00000	76.29568	1477.60424	76.29568
75050.00000	77.90926	1470.02650	77.90926
75100.00000	77.77020	1461.01625	77.77020
75150.00000	77.67964	1446.36225	77.67964
75200.00000	78.30541	1434.95098	78.30541
75250.00000	78.39024	1431.29426	78.39024
75300.00000	78.32023	1423.10062	78.32023
75350.00000	78.51097	1418.62469	78.51097
75400.00000	78.84563	1412.63069	78.84563
75450.00000	78.42596	1406.82010	78.42596
75500.00000	78.98836	1404.94834	78.98836
75550.00000	79.05482	1396.17173	79.05482
75600.00000	79.84492	1394.01692	79.84492
75650.00000	79.21428	1388.51153	79.21428
75700.00000	79.88178	1384.31621	79.88178
75750.00000	79.92251	1386.79079	79.92251
75800.00000	79.78344	1377.62712	79.78344
75850.00000	80.13431	1377.59587	80.13431
75900.00000	80.06826	1374.85973	80.06826
75950.00000	80.49571	1370.22359	80.49571
76000.00000	81.05324	1366.47305	81.05324
76050.00000	80.05364	1361.69227	80.05364
76100.00000	81.02820	1361.87546	81.02820
76150.00000	80.88772	1358.92675	80.88772
76200.00000	80.93529	1353.13089	80.93529
76250.00000	81.48218	1352.11773	81.48218
76300.00000	80.89654	1349.03849	80.89654
76350.00000	82.00535	1346.68529	82.00535
76400.00000	81.70366	1345.66449	81.70366
76450.00000	81.27302	1340.41366	81.27302
76500.00000	82.35101	1337.89183	82.35101
76550.00000	81.85227	1335.01552	81.85227
76600.00000	82.37069	1329.78650	82.37069
76650.00000	82.98832	1330.98575	82.98832
76700.00000	82.12874	1327.50830	82.12874
76750.00000	82.91960	1320.30018	82.91960
76800.00000	82.91253	1323.18804	82.91253
76850.00000	82.99584	1314.70216	82.99584
76900.00000	83.70453	1310.84220	83.70453
76950.00000	83.32604	1312.53895	83.32604
77000.00000	83.56083	1303.69825	83.56083
77050.00000	84.01169	1307.04622	84.01169
77100.00000	83.10774	1297.95662	83.10774
77150.00000	84.45583	1294.52280	84.45583
77200.00000	83.84900	1296.91461	83.84900
77250.00000	83.52435	1285.84515	83.52435
77300.00000	84.73274	1286.00963	84.73274
77350.00000	83.58004	1282.03598	83.58004
77400.00000	84.09180	1276.27789	84.09180
77450.00000	83.91623	1278.47305	83.91623
77500.00000	82.94563	1271.89751	82.94563
77550.00000	84.47925	1270.62503	84.47925
77600.00000	83.21084	1272.63701	83.21084
77650.00000	83.05137	1259.95157	83.05137
77700.00000	84.11438	1262.58405	84.11438
77750.00000	82.96898	1262.80085	82.96898
77800.00000	83.53863	1253.87155	83.53863
77850.00000	83.67483	1259.61556	83.67483
77900.00000	82.69011	1249.78211	82.69011
77950.00000	84.07863	1248.12397	84.07863
78000.00000	82.91507	1251.77284	82.91507
78050.00000	83.40621	1241.61829	83.40621
78100.00000	84.03563	1243.76126	84.03563
78150.00000	82.63642	1239.14985	82.63642
78200.00000	84.14506	1235.32012	84.14506
78250.00000	84.05686	1235.94506	84.05686
78300.00000	83.34264	1227.72089	83.34264
78350.00000	84.25863	1228.26647	84.25863
78400.00000	83.17455	1228.08326	83.17455
78450.00000	84.03175	1216.44965	84.03175
78500.00000	84.30552	1221.95314	84.30552
78550.00000	83.42974	1213.52792	83.42974
78600.00000	84.22388	1210.31029	84.22388
78650.00000	83.43980	1211.22701	83.43980
78700.00000	84.07845	1201.26698	84.07845
78750.00000	84.05325	1202.86163	84.05325
78800.00000	83.13570	1197.18635	83.13570
78850.00000	83.83894	1193.15523	83.83894
78900.00000	83.35234	1195.81061	83.35234
78950.00000	83.33644	1187.02254	83.33644
79000.00000	83.80510	1186.63876	83.80510
79050.00000	83.10001	1182.00550	83.10001
79100.00000	83.28686	1178.28817	83.28686
79150.00000	83.24306	1178.84719	83.24306
79200.00000	82.86207	1170.92239	82.86207
79250.00000	83.42938	1170.02772	83.42938
79300.00000	82.51985	1166.94734	82.51985
79350.00000	82.54721	1161.13476	82.54721
79400.00000	82.64355	1162.54417	82.64355
79450.00000	82.14072	1155.67187	82.14072
79500.00000	82.52391	1155.49160	82.52391
79550.00000	81.92089	1154.99558	81.92089
79600.00000	81.89037	1147.16557	81.89037
79650.00000	81.91679	1148.28335	81.91679
79700.00000	81.40721	1142.11592	81.40721
79750.00000	81.81234	1141.00713	81.81234
79800.00000	81.22783	1139.48604	81.22783
79850.00000	81.06316	1134.72277	81.06316
79900.00000	81.07060	1134.80586	81.07060
79950.00000	80.78447	1129.84823	80.78447
80000.00000	81.02040	1128.68858	81.02040
80050.00000	80.29645	1128.67115	80.29645
80100.00000	80.37344	1121.84483	80.37344
80150.00000	80.17362	1120.54578	80.17362
80200.00000	79.95620	1119.33023	79.95620
80250.00000	79.84150	1113.76921	79.84150
80300.00000	79.08958	1113.44605	79.08958
80350.00000	78.83179	1107.78904	78.83179
80400.00000	78.45310	1107.50630	78.45310
80450.00000	77.83165	1107.55845	77.83165
80500.00000	77.48387	1105.58103	77.48387
80550.00000	77.15751	1104.49799	77.15751
80600.00000	76.71231	1102.25264	76.71231
80650.00000	76.56671	1106.02554	76.56671
80700.00000	75.93471	1107.84459	75.93471
80750.00000	76.65578	1105.21779	76.65578
80800.00000	75.97055	1110.22318	75.97055
80850.00000	76.03661	1108.43031	76.03661
80900.00000	76.30360	1108.88564	76.30360
80950.00000	76.01717	1109.17251	76.01717
81000.00000	76.20978	1109.31928	76.20978
81050.00000	76.61365	1107.63053	76.61365
81100.00000	76.74136	1104.00131	76.74136
81150.00000	77.03896	1103.34208	77.03896
81200.00000	76.33229	1099.96649	76.33229
81250.00000	76.51893	1098.11892	76.51893
81300.00000	76.14918	1096.60607	76.14918
81350.00000	76.07716	1093.02475	76.07716
81400.00000	75.88259	1095.78975	75.88259
81450.00000	75.45406	1094.30249	75.45406
81500.00000	75.17172	1094.83304	75.17172
81550.00000	74.95118	1097.44032	74.95118
81600.00000	74.99292	1096.08982	74.99292
81650.00000	75.12724	1098.98253	75.12724
81700.00000	75.19203	1100.04633	75.19203
81750.00000	75.87782	1100.99178	75.87782
81800.00000	75.79295	1099.97847	75.79295
81850.00000	75.96724	1101.28094	75.96724
81900.00000	76.69120	1099.17802	76.69120
81950.00000	76.69255	1096.95099	76.69255
82000.00000	76.76433	1094.58263	76.76433
82050.00000	76.90314	1092.81096	76.90314
82100.00000	77.10275	1091.79802	77.10275
82150.00000	76.78957	1091.27206	76.78957
82200.00000	77.31364	1087.47502	77.31364
82250.00000	77.07875	1086.64198	77.07875
82300.00000	76.82581	1084.24259	76.82581
82350.00000	76.54383	1082.04385	76.54383
82400.00000	76.04688	1084.15927	76.04688
82450.00000	75.59250	1085.20276	75.59250
82500.00000	75.46200	1086.56515	75.46200
82550.00000	74.89706	1090.57098	74.89706
82600.00000	74.74915	1099.76508	74.74915
82650.00000	75.29178	1108.39833	75.29178
82700.00000	77.01329	1118.18355	77.01329
82750.00000	78.91230	1118.13309	78.91230
82800.00000	80.96815	1115.91968	80.96815
82850.00000	82.35134	1109.96914	82.35134
82900.00000	83.60720	1103.74295	83.60720
82950.00000	84.50551	1096.35632	84.50551
83000.00000	85.22613	1089.88554	85.22613
83050.00000	85.80406	1083.89227	85.80406
83100.00000	86.49051	1078.90026	86.49051
83150.00000	86.91524	1074.37953	86.91524
83200.00000	87.50240	1069.54759	87.50240
83250.00000	87.99159	1064.99036	87.99159
83300.00000	88.49561	1059.99263	88.49561
83350.00000	88.78017	1056.02659	88.78017
83400.00000	89.34833	1051.58682	89.34833
83450.00000	89.74013	1046.98355	89.74013
83500.00000	90.16745	1042.15548	90.16745
83550.00000	90.49846	1036.74438	90.49846
83600.00000	90.94972	1031.72253	90.94972
83650.00000	91.19666	1026.06003	91.19666
83700.00000	91.55419	1020.69214	91.55419
83750.00000	91.92860	1014.11030	91.92860
83800.00000	92.10997	1007.58185	92.10997
83850.00000	92.29510	1000.99000	92.29510
83900.00000	92.43213	993.88674	92.43213
83950.00000	92.49136	987.03605	92.49136
84000.00000	92.53344	978.73510	92.53344
84050.00000	92.34330	972.50066	92.34330
84100.00000	92.19048	964.68613	92.19048
84150.00000	91.81454	957.59728	91.81454
84200.00000	91.47151	951.05099	91.47151
84250.00000	90.81905	944.84104	90.81905
84300.00000	90.17474	939.71235	90.17474
84350.00000	89.43184	935.53836	89.43184
84400.00000	88.84805	933.26442	88.84805
84450.00000	88.21638	932.33792	88.21638
84500.00000	87.98683	933.29293	87.98683
84550.00000	87.88331	932.85991	87.88331
84600.00000	88.15540	931.61151	88.15540
84650.00000	88.46325	929.79465	88.46325
84700.00000	88.82570	926.13474	88.82570
84750.00000	89.13969	921.56731	89.13969
84800.00000	89.36983	916.14265	89.36983
84850.00000	89.42151	910.18468	89.42151
84900.00000	89.46506	903.93750	89.46506
84950.00000	89.32042	898.06399	89.32042
85000.00000	89.15220	892.16588	89.15220
85050.00000	88.98623	885.70460	88.98623
85100.00000	88.68099	880.11810	88.68099
85150.00000	88.38417	874.93296	88.38417
85200.00000	87.90875	869.76257	87.90875
85250.00000	87.91747	863.81668	87.91747
85300.00000	87.09480	859.77951	87.09480
85350.00000	86.44262	855.34758	86.44262
85400.00000	85.92372	850.69831	85.92372
85450.00000	85.54773	847.30976	85.54773
85500.00000	84.98686	844.02540	84.98686
85550.00000	84.51412	840.01214	84.51412
85600.00000	83.99066	837.42570	83.99066
85650.00000	83.49062	834.74414	83.49062
85700.00000	82.78203	831.15056	82.78203
85750.00000	82.34016	830.09198	82.34016
85800.00000	81.72239	828.37809	81.72239
85850.00000	81.01630	824.80946	81.01630
85900.00000	80.46415	825.08446	80.46415
85950.00000	80.09552	822.70010	80.09552
86000.00000	79.65602	824.43580	79.65602
86050.00000	79.34048	820.89637	79.34048
86100.00000	79.31604	821.90540	79.31604
86150.00000	78.97118	821.46632	78.97118
86200.00000	78.70535	821.97080	78.70535
86250.00000	78.36495	823.95467	78.36495
86300.00000	78.27743	822.31184	78.27743
86350.00000	78.39649	818.70423	78.39649
86400.00000	77.88020	816.37016	77.88020
86450.00000	77.77603	815.17799	77.77603
86500.00000	77.48999	818.11189	77.48999
86550.00000	77.42071	815.02932	77.42071
86600.00000	77.50833	812.44636	77.50833
86650.00000	77.59811	813.22679	77.59811
86700.00000	77.61323	809.03002	77.61323
86750.00000	77.70949	810.19457	77.70949
86800.00000	77.80418	805.01509	77.80418
86850.00000	77.37990	801.59951	77.37990
86900.00000	77.24304	801.12374	77.24304
86950.00000	76.98065	799.34548	76.98065
87000.00000	76.96322	798.17449	76.96322
87050.00000	76.91212	794.35789	76.91212
87100.00000	76.48155	792.33125	76.48155
87150.00000	76.35114	789.63242	76.35114
87200.00000	76.40690	788.13255	76.40690
87250.00000	75.58065	785.96867	75.58065
87300.00000	75.42964	783.72016	75.42964
87350.00000	75.15351	784.89432	75.15351
87400.00000	74.38799	780.47991	74.38799
87450.00000	73.79183	778.11484	73.79183
87500.00000	74.02474	778.70733	74.02474
87550.00000	73.49511	779.51761	73.49511
87600.00000	73.18461	777.69594	73.18461
87650.00000	72.95886	779.36690	72.95886
87700.00000	72.73678	776.31654	72.73678
87750.00000	72.82072	779.09705	72.82072
87800.00000	71.85815	773.26313	71.85815
87850.00000	71.68549	776.58005	71.68549
87900.00000	71.95139	778.08139	71.95139
87950.00000	71.60019	785.01319	71.60019
88000.00000	71.67309	780.40157	71.67309
88050.00000	72.39783	778.42100	72.39783
88100.00000	71.57240	778.37876	71.57240
88150.00000	71.92177	780.44051	71.92177
88200.00000	71.83683	778.56662	71.83683
88250.00000	71.84599	778.85877	71.84599
88300.00000	72.38499	781.85134	72.38499
88350.00000	72.17307	778.52405	72.17307
88400.00000	72.30882	777.27538	72.30882
88450.00000	72.42585	778.84842	72.42585
88500.00000	72.61864	775.90573	72.61864
88550.00000	72.83544	775.08814	72.83544
88600.00000	72.40936	770.60633	72.40936
88650.00000	72.96161	770.69559	72.96161
88700.00000	72.66762	767.61259	72.66762
88750.00000	72.97662	770.90296	72.97662
88800.00000	72.93550	766.93791	72.93550
88850.00000	72.95764	766.24933	72.95764
88900.00000	73.21729	765.06804	73.21729
88950.00000	73.02304	762.08806	73.02304
89000.00000	73.23387	766.54529	73.23387
89050.00000	72.65317	760.20484	72.65317
89100.00000	73.17477	764.27021	73.17477
89150.00000	72.48964	759.43486	72.48964
89200.00000	72.60352	759.55381	72.60352
89250.00000	72.04860	755.61192	72.04860
89300.00000	72.81145	761.52237	72.81145
89350.00000	72.47185	762.08293	72.47185
89400.00000	73.18670	759.40747	73.18670
89450.00000	73.44224	757.72517	73.44224
89500.00000	73.80362	754.81016	73.80362
89550.00000	73.48956	755.94468	73.48956
89600.00000	73.82868	753.19158	73.82868
89650.00000	73.84089	752.74816	73.84089
89700.00000	74.02304	756.89074	74.02304
89750.00000	74.09142	749.07717	74.09142
89800.00000	74.27045	753.67597	74.27045
89850.00000	73.71481	753.81280	73.71481
89900.00000	74.33507	750.30159	74.33507
89950.00000	74.97261	754.64102	74.97261
90000.00000	75.33793	759.19904	75.33793
90050.00000	75.92907	767.71186	75.92907
90100.00000	78.10688	761.55601	78.10688
90150.00000	79.70716	763.85157	79.70716
90200.00000	82.18343	754.57852	82.18343
90250.00000	83.55895	733.73680	83.55895
90300.00000	83.90014	712.56011	83.90014
90350.00000	82.22008	701.60148	82.22008
90400.00000	81.32577	700.66288	81.32577
90450.00000	80.61758	693.87245	80.61758
90500.00000	79.94563	692.68456	79.94563
90550.00000	79.59732	690.03078	79.59732
90600.00000	79.35879	690.24037	79.35879
90650.00000	79.65617	687.30281	79.65617
90700.00000	79.15845	684.69108	79.15845
90750.00000	79.33172	685.33237	79.33172
90800.00000	79.26318	681.97432	79.26318
90850.00000	79.72557	683.81758	79.72557
90900.00000	79.63547	679.46190	79.63547
90950.00000	80.08762	679.66407	80.08762
91000.00000	80.41885	677.55405	80.41885
91050.00000	80.48840	673.25715	80.48840
91100.00000	81.05215	668.97032	81.05215
91150.00000	80.99750	667.64181	80.99750
91200.00000	81.29454	663.90618	81.29454
91250.00000	81.66752	660.85063	81.66752
91300.00000	81.57072	657.15319	81.57072
91350.00000	81.82556	653.88442	81.82556
91400.00000	82.13380	648.44721	82.13380
91450.00000	82.09786	647.83198	82.09786
91500.00000	82.50818	640.93027	82.50818
91550.00000	82.52982	639.89941	82.52982
91600.00000	83.01186	634.93982	83.01186
91650.00000	83.04733	632.15301	83.04733
91700.00000	83.25442	627.47785	83.25442
91750.00000	83.49535	624.05544	83.49535
91800.00000	83.56608	619.81704	83.56608
91850.00000	83.79878	613.87362	83.79878
91900.00000	84.15054	609.31781	84.15054
91950.00000	84.00422	606.54554	84.00422
92000.00000	84.03428	600.91979	84.03428
92050.00000	83.91950	595.74459	83.91950
92100.00000	84.15329	591.32000	84.15329
92150.00000	84.29171	585.88900	84.29171
92200.00000	83.98718	580.23118	83.98718
92250.00000	84.07110	578.39471	84.07110
92300.00000	84.14716	572.94301	84.14716
92350.00000	84.13008	568.44800	84.13008
92400.00000	83.92417	562.50698	83.92417
92450.00000	83.88120	559.37241	83.88120
92500.00000	83.89393	553.69791	83.89393
92550.00000	83.55748	549.02787	83.55748
92600.00000	83.64938	544.81386	83.64938
92650.00000	83.46600	540.81988	83.46600
92700.00000	83.30503	537.52391	83.30503
92750.00000	83.05397	531.53682	83.05397
92800.00000	82.86442	526.66176	82.86442
92850.00000	82.87028	521.34828	82.87028
92900.00000	82.47100	517.86885	82.47100
92950.00000	82.34082	514.97058	82.34082
93000.00000	82.23814	509.15428	82.23814
93050.00000	82.06441	505.80953	82.06441
93100.00000	81.55383	500.60465	81.55383
93150.00000	81.38722	496.41192	81.38722
93200.00000	81.14352	493.99710	81.14352
93250.00000	80.77798	490.05124	80.77798
93300.00000	80.63672	484.86678	80.63672
93350.00000	80.29527	479.55737	80.29527
93400.00000	80.03160	476.93361	80.03160
93450.00000	80.06017	473.16279	80.06017
93500.00000	79.59012	468.92451	79.59012
93550.00000	79.15983	464.56492	79.15983
93600.00000	78.90805	459.35915	78.90805
93650.00000	78.80217	457.66781	78.80217
93700.00000	78.25811	453.64981	78.25811
93750.00000	78.13132	448.99652	78.13132
93800.00000	77.73611	445.35063	77.73611
93850.00000	77.16607	442.33458	77.16607
93900.00000	76.95689	438.07095	76.95689
93950.00000	76.58716	435.96785	76.58716
94000.00000	76.30542	433.57022	76.30542
94050.00000	75.82093	429.94992	75.82093
94100.00000	75.68387	427.95155	75.68387
94150.00000	75.39876	423.64214	75.39876
94200.00000	75.75921	420.72232	75.75921
94250.00000	75.76955	421.10218	75.76955
94300.00000	75.07834	414.01452	75.07834
94350.00000	75.28056	410.00539	75.28056
94400.00000	75.45325	407.95124	75.45325
94450.00000	75.02882	403.22882	75.02882
94500.00000	75.35992	396.79124	75.35992
94550.00000	75.01046	395.08987	75.01046
94600.00000	74.77422	387.10456	74.77422
94650.00000	75.11891	385.12500	75.11891
94700.00000	74.95413	377.36200	74.95413
94750.00000	75.00857	374.18131	75.00857
94800.00000	74.19839	363.89620	74.19839
94850.00000	74.59813	360.70424	74.59813
94900.00000	74.10638	355.33671	74.10638
94950.00000	73.37505	348.53556	73.37505
95000.00000	73.99431	345.23059	73.99431
95050.00000	73.10264	338.84979	73.10264
95100.00000	73.25424	340.56890	73.25424
95150.00000	72.28598	329.97462	72.28598
95200.00000	71.99887	322.90980	71.99887
95250.00000	71.79116	320.46682	71.79116
95300.00000	71.68457	320.55349	71.68457
95350.00000	71.01227	307.02337	71.01227
95400.00000	70.17293	303.95401	70.17293
95450.00000	69.42065	301.86529	69.42065
95500.00000	69.85210	299.02066	69.85210
95550.00000	67.18936	295.57467	67.18936
95600.00000	69.12116	292.13860	69.12116
95650.00000	67.67449	286.59015	67.67449
95700.00000	67.66205	278.53703	67.66205
95750.00000	66.90089	292.50385	66.90089
95800.00000	68.21701	277.97616	68.21701
95850.00000	67.63198	281.50672	67.63198
95900.00000	68.10727	277.56655	68.10727
95950.00000	67.17211	276.97618	67.17211
96000.00000	68.87267	285.82201	68.87267
96050.00000	68.43944	266.56610	68.43944
96100.00000	67.86504	255.68122	67.86504
96150.00000	70.39789	243.77964	70.39789
96200.00000	70.84983	235.48704	70.84983
96250.00000	70.41660	216.08986	70.41660
96300.00000	71.36876	214.04636	71.36876
96350.00000	70.49182	188.46889	70.49182
96400.00000	70.61416	203.16759	70.61416
96450.00000	69.68223	183.80890	69.68223
96500.00000	72.24006	169.45071	72.24006
96550.00000	70.38616	161.20280	70.38616
96600.00000	70.69933	154.37294	70.69933
96650.00000	71.22488	137.95459	71.22488
96700.00000	68.60811	145.79447	68.60811
96750.00000	68.57031	129.90792	68.57031
96800.00000	68.91486	115.89252	68.91486
96850.00000	69.66840	116.30520	69.66840
96900.00000	71.81998	99.71635	71.81998
96950.00000	73.16405	105.83910	73.16405
97000.00000	72.03300	73.77644	72.03300
97050.00000	72.22914	94.36886	72.22914
97100.00000	72.18000	71.51693	72.18000
97150.00000	70.92808	41.63845	70.92808
97200.00000	75.33640	54.87892	75.33640
97250.00000	74.24906	38.55907	74.24906
97300.00000	74.19016	18.56290	74.19016
97350.00000	67.50151	 4.90790	67.50151
97400.00000	72.12434	-17.81278	72.12434
97450.00000	70.06125	-3.38069	70.06125
97500.00000	65.89242	-11.08664	65.89242
97550.00000	64.99193	13.66428	64.99193
97600.00000	64.45310	-2.77632	64.45310
97650.00000	62.43690	11.13726	62.43690
97700.00000	62.01900	-28.38196	62.01900
97750.00000	65.08045	 9.97684	65.08045
97800.00000	61.63050	-4.20750	61.63050
97850.00000	59.63400	-9.93252	59.63400
97900.00000	63.19348	-13.86679	63.19348
97950.00000	61.77105	11.91021	61.77105
98000.00000	63.11543	-17.66478	63.11543
98050.00000	64.23729	-5.67935	64.23729
98100.00000	57.08411	12.86869	57.08411
98150.00000	60.62736	-10.44588	60.62736
98200.00000	59.62527	-2.31959	59.62527
98250.00000	61.52682	10.75144	61.52682
98300.00000	61.62055	 4.46920	61.62055
98350.00000	62.83309	21.46763	62.83309
98400.00000	61.96471	10.63935	61.96471
98450.00000	64.01956	23.24143	64.01956
98500.00000	62.27699	-3.29989	62.27699
98550.00000	64.87734	15.69132	64.87734
98600.00000	63.40029	 9.95258	63.40029
98650.00000	59.90542	 4.28056	59.90542
98700.00000	61.61600	 0.40049	61.61600
98750.00000	56.80383	11.78865	56.80383
98800.00000	59.48793	-14.80213	59.48793
98850.00000	59.61852	-10.25935	59.61852
98900.00000	59.44317	-14.08269	59.44317
98950.00000	58.35364	-36.09937	58.35364
99000.00000	61.16823	-11.12577	61.16823
99050.00000	54.06462	-27.18310	54.06462
99100.00000	56.49847	-19.71890	56.49847
99150.00000	55.65924	-37.19075	55.65924
99200.00000	56.75654	-10.09200	56.75654
99250.00000	59.72297	-61.02658	59.72297
99300.00000	55.78721	-39.24136	55.78721
99350.00000	54.95159	-32.81873	54.95159
99400.00000	49.46817	-125.10551	49.46817
99450.00000	51.67880	-69.90392	51.67880
99500.00000	51.69582	 7.99061	51.69582
99550.00000	46.33721	-116.95189	46.33721
99600.00000	43.56072	-54.61765	43.56072
99650.00000	53.44233	-14.77582	53.44233
99700.00000	50.02935	-86.74195	50.02935
99750.00000	51.97906	16.44193	51.97906
99800.00000	48.85835	-16.18113	48.85835
99850.00000	53.95347	-23.02419	53.95347
99900.00000	48.73025	-89.39079	48.73025
99950.00000	52.78437	-96.32328	52.78437
