---ACOUSTIC CALIBRATION---
Filename: C:\Data\CL0809 DATA\CL0809500\RightPrimary.calib
Date: 8/9/2019 3:24:32 PM
Format: 4
Probe Tube Correction File: C:\Data\Probe Tube Calibrations\74_ProbeTube.calib
Experiment VIs: 2128
EPL_CFTS.exe V15.0.1f5 (2015)
DAQmx V15.1

Attenuation (dB): 40.000000
Min Freq (Hz): 50.000000
Max Freq (Hz): 99950.000000
Freq Step (Hz): 50.000000
Sample Rate (Hz): 200000.000000
[Smoothing]
Method=None
MA.Iterations=0
MA.Length=0
Loess.Length=0
Loess.Type=Linear
Loess.Robust=FALSE


Freq(Hz)	Mag(dB)	Phase(deg)	Unsmoothed(dB)

50.00000	89.93476	23.67754	89.93476
100.00000	68.99964	-105.35945	68.99964
150.00000	68.08654	92.12762	68.08654
200.00000	62.26795	200.60564	62.26795
250.00000	54.00831	412.23660	54.00831
300.00000	61.78575	515.60778	61.78575
350.00000	53.38769	641.17283	53.38769
400.00000	52.43808	737.30417	52.43808
450.00000	56.57776	755.51574	56.57776
500.00000	54.10210	836.84000	54.10210
550.00000	66.56873	805.43938	66.56873
600.00000	64.78833	791.12667	64.78833
650.00000	71.10314	751.39190	71.10314
700.00000	72.84729	770.57436	72.84729
750.00000	75.53692	734.52058	75.53692
800.00000	77.87153	722.48251	77.87153
850.00000	76.55478	719.12844	76.55478
900.00000	77.09126	729.01264	77.09126
950.00000	80.11446	727.73505	80.11446
1000.00000	82.29357	728.53418	82.29357
1050.00000	85.55430	719.49821	85.55430
1100.00000	88.06470	704.44999	88.06470
1150.00000	89.51277	690.18876	89.51277
1200.00000	90.21736	677.86375	90.21736
1250.00000	90.60415	668.87834	90.60415
1300.00000	91.79602	663.88208	91.79602
1350.00000	93.32421	651.65690	93.32421
1400.00000	93.74254	637.60721	93.74254
1450.00000	93.68173	626.69609	93.68173
1500.00000	93.62066	620.28612	93.62066
1550.00000	93.74141	614.48578	93.74141
1600.00000	94.46517	610.74753	94.46517
1650.00000	95.16717	607.44871	95.16717
1700.00000	98.91672	591.88720	98.91672
1750.00000	95.92050	571.24024	95.92050
1800.00000	95.40606	566.22590	95.40606
1850.00000	95.03092	559.75106	95.03092
1900.00000	94.95046	554.57049	94.95046
1950.00000	94.51556	550.06000	94.51556
2000.00000	94.26663	547.27365	94.26663
2050.00000	94.55711	544.77751	94.55711
2100.00000	95.05867	539.23552	95.05867
2150.00000	95.37513	530.95016	95.37513
2200.00000	95.04919	520.48253	95.04919
2250.00000	94.08442	515.30503	94.08442
2300.00000	93.76609	513.93477	93.76609
2350.00000	93.95281	508.59837	93.95281
2400.00000	93.97402	502.64659	93.97402
2450.00000	93.47799	494.39317	93.47799
2500.00000	92.55492	491.20345	92.55492
2550.00000	92.21170	487.76337	92.21170
2600.00000	91.77183	484.58860	91.77183
2650.00000	91.17360	481.60933	91.17360
2700.00000	90.69919	478.81432	90.69919
2750.00000	90.18997	476.65460	90.18997
2800.00000	89.81966	474.56207	89.81966
2850.00000	89.33317	473.39213	89.33317
2900.00000	89.02758	472.26323	89.02758
2950.00000	88.88613	470.73527	88.88613
3000.00000	88.63806	468.78593	88.63806
3050.00000	88.30005	466.79231	88.30005
3100.00000	87.89641	464.23292	87.89641
3150.00000	87.29611	462.07624	87.29611
3200.00000	86.80157	460.59446	86.80157
3250.00000	86.33888	459.77670	86.33888
3300.00000	85.86736	459.43864	85.86736
3350.00000	85.44607	458.84784	85.44607
3400.00000	84.93557	457.54772	84.93557
3450.00000	84.39926	457.15056	84.39926
3500.00000	83.49698	457.32367	83.49698
3550.00000	82.93983	457.91609	82.93983
3600.00000	81.54628	457.50913	81.54628
3650.00000	80.27433	464.43837	80.27433
3700.00000	78.65738	472.71546	78.65738
3750.00000	78.11421	484.93249	78.11421
3800.00000	78.42257	501.31292	78.42257
3850.00000	79.41751	509.80811	79.41751
3900.00000	80.67951	516.76873	80.67951
3950.00000	80.96836	523.14952	80.96836
4000.00000	81.83233	533.53453	81.83233
4050.00000	83.37099	542.97998	83.37099
4100.00000	85.15790	547.96661	85.15790
4150.00000	87.70738	549.09994	87.70738
4200.00000	89.51041	548.83104	89.51041
4250.00000	90.50732	540.23669	90.50732
4300.00000	91.33510	541.11463	91.33510
4350.00000	92.82188	541.32075	92.82188
4400.00000	94.34371	536.83277	94.34371
4450.00000	95.33173	530.48219	95.33173
4500.00000	96.11334	524.82014	96.11334
4550.00000	96.48098	520.73101	96.48098
4600.00000	96.99160	518.82891	96.99160
4650.00000	97.85161	518.21219	97.85161
4700.00000	98.85097	516.55041	98.85097
4750.00000	99.91512	513.94900	99.91512
4800.00000	101.03790	510.84182	101.03790
4850.00000	102.17323	507.01199	102.17323
4900.00000	103.35245	502.06842	103.35245
4950.00000	104.56655	496.96801	104.56655
5000.00000	105.84313	490.90766	105.84313
5050.00000	107.25435	483.93261	107.25435
5100.00000	108.87520	475.42314	108.87520
5150.00000	110.83146	463.84056	110.83146
5200.00000	113.22435	444.53735	113.22435
5250.00000	114.82802	407.44393	114.82802
5300.00000	111.62303	364.22320	111.62303
5350.00000	105.83969	348.11090	105.83969
5400.00000	101.26161	353.16310	101.26161
5450.00000	98.53772	362.60730	98.53772
5500.00000	96.05977	373.46062	96.05977
5550.00000	94.40255	395.27688	94.40255
5600.00000	95.58718	417.28723	95.58718
5650.00000	97.88767	425.99654	97.88767
5700.00000	99.71715	424.93245	99.71715
5750.00000	100.76910	420.91729	100.76910
5800.00000	101.27178	418.24812	101.27178
5850.00000	101.65633	417.04177	101.65633
5900.00000	102.14712	416.57353	102.14712
5950.00000	102.78574	416.26996	102.78574
6000.00000	103.50764	415.60511	103.50764
6050.00000	104.31834	414.30861	104.31834
6100.00000	105.17635	412.40961	105.17635
6150.00000	106.03322	409.81136	106.03322
6200.00000	106.93712	406.97647	106.93712
6250.00000	107.89808	403.42115	107.89808
6300.00000	108.89555	398.84562	108.89555
6350.00000	109.88297	393.17640	109.88297
6400.00000	110.81794	386.51590	110.81794
6450.00000	111.64870	378.93559	111.64870
6500.00000	112.35887	370.71244	112.35887
6550.00000	112.96954	361.98191	112.96954
6600.00000	113.47144	352.98341	113.47144
6650.00000	113.88566	343.40525	113.88566
6700.00000	114.14021	333.13704	114.14021
6750.00000	114.17276	322.63089	114.17276
6800.00000	113.98009	312.47195	113.98009
6850.00000	113.60450	303.06699	113.60450
6900.00000	113.09870	294.77789	113.09870
6950.00000	112.53774	287.55399	112.53774
7000.00000	111.97858	281.28056	111.97858
7050.00000	111.44582	275.77634	111.44582
7100.00000	110.95849	270.75099	110.95849
7150.00000	110.49999	266.09577	110.49999
7200.00000	110.06934	261.65625	110.06934
7250.00000	109.65891	257.44811	109.65891
7300.00000	109.25677	253.45518	109.25677
7350.00000	108.89510	249.57172	108.89510
7400.00000	108.55514	245.78616	108.55514
7450.00000	108.19352	241.96357	108.19352
7500.00000	107.84155	238.27374	107.84155
7550.00000	107.47832	234.54516	107.47832
7600.00000	107.09328	231.07001	107.09328
7650.00000	106.70281	227.80635	106.70281
7700.00000	106.31871	224.70694	106.31871
7750.00000	105.92145	221.82617	105.92145
7800.00000	105.55034	219.25927	105.55034
7850.00000	105.19723	216.79910	105.19723
7900.00000	104.86157	214.45459	104.86157
7950.00000	104.52508	212.45026	104.52508
8000.00000	104.22089	210.57382	104.22089
8050.00000	103.94275	208.91300	103.94275
8100.00000	103.69196	207.14557	103.69196
8150.00000	103.46913	205.60078	103.46913
8200.00000	103.25480	203.88980	103.25480
8250.00000	103.08012	202.57620	103.08012
8300.00000	102.96144	200.99403	102.96144
8350.00000	102.87618	199.25435	102.87618
8400.00000	102.76737	197.67982	102.76737
8450.00000	102.64053	195.76486	102.64053
8500.00000	102.57710	194.25099	102.57710
8550.00000	102.51102	192.49810	102.51102
8600.00000	102.48909	190.68857	102.48909
8650.00000	102.46089	188.81876	102.46089
8700.00000	102.44329	186.83360	102.44329
8750.00000	102.44514	184.87797	102.44514
8800.00000	102.44624	182.65162	102.44624
8850.00000	102.47109	180.37642	102.47109
8900.00000	102.46783	178.13357	102.46783
8950.00000	102.50440	175.83037	102.50440
9000.00000	102.51133	173.20019	102.51133
9050.00000	102.51544	170.53971	102.51544
9100.00000	102.52041	168.44162	102.52041
9150.00000	102.58563	165.80658	102.58563
9200.00000	102.64124	162.97938	102.64124
9250.00000	102.62493	159.98295	102.62493
9300.00000	102.65443	157.13559	102.65443
9350.00000	102.68720	154.11475	102.68720
9400.00000	102.68737	150.87058	102.68737
9450.00000	102.71463	147.66308	102.71463
9500.00000	102.68956	144.06320	102.68956
9550.00000	102.62297	140.42346	102.62297
9600.00000	102.54532	137.08876	102.54532
9650.00000	102.47900	133.80774	102.47900
9700.00000	102.35835	130.33197	102.35835
9750.00000	102.18265	126.84708	102.18265
9800.00000	101.96455	123.57232	101.96455
9850.00000	101.67722	120.41980	101.67722
9900.00000	101.31589	118.65321	101.31589
9950.00000	100.90693	118.31741	100.90693
10000.00000	100.98256	120.73549	100.98256
10050.00000	101.65910	120.01287	101.65910
10100.00000	102.19176	115.37626	102.19176
10150.00000	102.28739	109.94765	102.28739
10200.00000	102.24289	105.28243	102.24289
10250.00000	102.15253	101.48057	102.15253
10300.00000	102.06849	97.73199	102.06849
10350.00000	101.98456	94.09279	101.98456
10400.00000	101.82469	90.72389	101.82469
10450.00000	101.76264	87.22882	101.76264
10500.00000	101.68667	83.70360	101.68667
10550.00000	101.57857	80.59265	101.57857
10600.00000	101.55863	76.97939	101.55863
10650.00000	101.49929	73.61779	101.49929
10700.00000	101.43947	69.95999	101.43947
10750.00000	101.40225	66.54150	101.40225
10800.00000	101.35648	62.58315	101.35648
10850.00000	101.33634	58.83387	101.33634
10900.00000	101.29479	54.99835	101.29479
10950.00000	101.21135	51.01221	101.21135
11000.00000	101.16585	46.96060	101.16585
11050.00000	101.03107	42.85996	101.03107
11100.00000	101.00266	38.57847	101.00266
11150.00000	100.86152	34.15261	100.86152
11200.00000	100.75200	29.95919	100.75200
11250.00000	100.57937	25.18180	100.57937
11300.00000	100.39235	20.73342	100.39235
11350.00000	100.19649	15.89601	100.19649
11400.00000	99.95863	11.13610	99.95863
11450.00000	99.70187	 6.21661	99.70187
11500.00000	99.43000	 1.29731	99.43000
11550.00000	99.13604	-3.85526	99.13604
11600.00000	98.81092	-8.76430	98.81092
11650.00000	98.47928	-13.73020	98.47928
11700.00000	98.13745	-18.74790	98.13745
11750.00000	97.75267	-23.46547	97.75267
11800.00000	97.41341	-27.96096	97.41341
11850.00000	97.01063	-32.88009	97.01063
11900.00000	96.59371	-37.20972	96.59371
11950.00000	96.21139	-41.68797	96.21139
12000.00000	95.85075	-45.70598	95.85075
12050.00000	95.40191	-49.55662	95.40191
12100.00000	94.95197	-53.91092	94.95197
12150.00000	94.49252	-57.92117	94.49252
12200.00000	94.07893	-62.58140	94.07893
12250.00000	93.59348	-66.79362	93.59348
12300.00000	93.00071	-71.32746	93.00071
12350.00000	92.49657	-75.92981	92.49657
12400.00000	91.93498	-81.10147	91.93498
12450.00000	91.50660	-85.87814	91.50660
12500.00000	91.04849	-90.02480	91.04849
12550.00000	90.54486	-95.06087	90.54486
12600.00000	90.16605	-101.49294	90.16605
12650.00000	89.69016	-106.11738	89.69016
12700.00000	89.16405	-112.30321	89.16405
12750.00000	88.67657	-117.62172	88.67657
12800.00000	88.34769	-123.49671	88.34769
12850.00000	87.74608	-128.50176	87.74608
12900.00000	87.23577	-135.04600	87.23577
12950.00000	86.93388	-141.59544	86.93388
13000.00000	86.47567	-148.99093	86.47567
13050.00000	86.31298	-155.78468	86.31298
13100.00000	85.96467	-163.16879	85.96467
13150.00000	85.85021	-170.75719	85.85021
13200.00000	85.80321	-180.48947	85.80321
13250.00000	86.37887	-190.29439	86.37887
13300.00000	87.14311	-194.40717	87.14311
13350.00000	88.05676	-201.12831	88.05676
13400.00000	89.22182	-201.75281	89.22182
13450.00000	90.05155	-196.93959	90.05155
13500.00000	89.86192	-187.97152	89.86192
13550.00000	88.89653	-185.19062	88.89653
13600.00000	87.36830	-186.01958	87.36830
13650.00000	85.85321	-191.97462	85.85321
13700.00000	84.85920	-199.18106	84.85920
13750.00000	84.32358	-211.12912	84.32358
13800.00000	84.38837	-221.59437	84.38837
13850.00000	84.62106	-234.42447	84.62106
13900.00000	85.04680	-246.75123	85.04680
13950.00000	85.94690	-257.21706	85.94690
14000.00000	87.52413	-264.44645	87.52413
14050.00000	89.56925	-268.05333	89.56925
14100.00000	91.74876	-267.47021	91.74876
14150.00000	93.39752	-257.78101	93.39752
14200.00000	93.51972	-244.58712	93.51972
14250.00000	92.50955	-235.70672	92.50955
14300.00000	91.16800	-233.38397	91.16800
14350.00000	90.13862	-237.57921	90.13862
14400.00000	89.46060	-241.42050	89.46060
14450.00000	89.07009	-248.50543	89.07009
14500.00000	88.86820	-256.31285	88.86820
14550.00000	89.01865	-263.53353	89.01865
14600.00000	89.41374	-270.58943	89.41374
14650.00000	90.01848	-277.24943	90.01848
14700.00000	90.68984	-284.21784	90.68984
14750.00000	91.67642	-289.89961	91.67642
14800.00000	92.71643	-293.38298	92.71643
14850.00000	93.93978	-294.78297	93.93978
14900.00000	94.96485	-295.13843	94.96485
14950.00000	95.71138	-292.96919	95.71138
15000.00000	96.12319	-290.36538	96.12319
15050.00000	96.01986	-288.35610	96.01986
15100.00000	95.88659	-288.04446	95.88659
15150.00000	95.74963	-290.79225	95.74963
15200.00000	95.52464	-293.80506	95.52464
15250.00000	95.42837	-298.55200	95.42837
15300.00000	95.35136	-304.28314	95.35136
15350.00000	95.65198	-309.79847	95.65198
15400.00000	95.90825	-315.56045	95.90825
15450.00000	96.21294	-321.59685	96.21294
15500.00000	96.83100	-325.91981	96.83100
15550.00000	97.37317	-329.56782	97.37317
15600.00000	98.11180	-332.85435	98.11180
15650.00000	98.68384	-335.08554	98.68384
15700.00000	99.05005	-336.83454	99.05005
15750.00000	99.35864	-337.46523	99.35864
15800.00000	99.43996	-339.33775	99.43996
15850.00000	99.51705	-340.63143	99.51705
15900.00000	99.41821	-343.49324	99.41821
15950.00000	99.41457	-346.74160	99.41457
16000.00000	99.37526	-350.71472	99.37526
16050.00000	99.63206	-355.14533	99.63206
16100.00000	99.71476	-359.33177	99.71476
16150.00000	99.99683	-363.85291	99.99683
16200.00000	100.27473	-367.73062	100.27473
16250.00000	100.57113	-371.66130	100.57113
16300.00000	100.87453	-374.86125	100.87453
16350.00000	101.21186	-377.88747	101.21186
16400.00000	101.36846	-380.77732	101.36846
16450.00000	101.62431	-383.13905	101.62431
16500.00000	101.75880	-386.07047	101.75880
16550.00000	101.79119	-388.62447	101.79119
16600.00000	101.80078	-391.93604	101.80078
16650.00000	101.80561	-395.55985	101.80561
16700.00000	101.84691	-398.98038	101.84691
16750.00000	101.92035	-402.84523	101.92035
16800.00000	102.00913	-406.11488	102.00913
16850.00000	102.14168	-410.18199	102.14168
16900.00000	102.27014	-413.58809	102.27014
16950.00000	102.35001	-417.07122	102.35001
17000.00000	102.47371	-420.16511	102.47371
17050.00000	102.57076	-422.95739	102.57076
17100.00000	102.63117	-425.31077	102.63117
17150.00000	102.68179	-428.13787	102.68179
17200.00000	102.59671	-430.76554	102.59671
17250.00000	102.63136	-433.82885	102.63136
17300.00000	102.67986	-436.92854	102.67986
17350.00000	102.67492	-439.95991	102.67492
17400.00000	102.69960	-443.28511	102.69960
17450.00000	102.73297	-446.27643	102.73297
17500.00000	102.74179	-449.16725	102.74179
17550.00000	102.82418	-452.23767	102.82418
17600.00000	102.92472	-454.79883	102.92472
17650.00000	102.98622	-457.29334	102.98622
17700.00000	103.08399	-459.91387	103.08399
17750.00000	103.13581	-462.29003	103.13581
17800.00000	103.15009	-464.93435	103.15009
17850.00000	103.22231	-467.37616	103.22231
17900.00000	103.32800	-469.97794	103.32800
17950.00000	103.33913	-472.48334	103.33913
18000.00000	103.39070	-475.30696	103.39070
18050.00000	103.47160	-478.26810	103.47160
18100.00000	103.53736	-480.98976	103.53736
18150.00000	103.62688	-484.06193	103.62688
18200.00000	103.67825	-486.78335	103.67825
18250.00000	103.73644	-489.76607	103.73644
18300.00000	103.80420	-492.54996	103.80420
18350.00000	103.86035	-495.61457	103.86035
18400.00000	103.93970	-498.56154	103.93970
18450.00000	103.98025	-501.25766	103.98025
18500.00000	104.04537	-504.19178	104.04537
18550.00000	104.06808	-507.22269	104.06808
18600.00000	104.09263	-510.08259	104.09263
18650.00000	104.18370	-513.04323	104.18370
18700.00000	104.20970	-515.96089	104.20970
18750.00000	104.23135	-518.92301	104.23135
18800.00000	104.22386	-521.85217	104.22386
18850.00000	104.24756	-524.62370	104.24756
18900.00000	104.22567	-527.60559	104.22567
18950.00000	104.24709	-530.42370	104.24709
19000.00000	104.23130	-533.44023	104.23130
19050.00000	104.22219	-536.36698	104.22219
19100.00000	104.20516	-539.28088	104.20516
19150.00000	104.22054	-541.79658	104.22054
19200.00000	104.22775	-544.82975	104.22775
19250.00000	104.18618	-547.22537	104.18618
19300.00000	104.19811	-550.06158	104.19811
19350.00000	104.21171	-552.84359	104.21171
19400.00000	104.16684	-555.32019	104.16684
19450.00000	104.16213	-558.14442	104.16213
19500.00000	104.15576	-560.59975	104.15576
19550.00000	104.17653	-563.32824	104.17653
19600.00000	104.13951	-565.88864	104.13951
19650.00000	104.14081	-568.55579	104.14081
19700.00000	104.15320	-571.19296	104.15320
19750.00000	104.14885	-573.52573	104.14885
19800.00000	104.17300	-575.92601	104.17300
19850.00000	104.15959	-578.64793	104.15959
19900.00000	104.18242	-581.28607	104.18242
19950.00000	104.16975	-583.63016	104.16975
20000.00000	104.17610	-586.72288	104.17610
20050.00000	104.18370	-589.30803	104.18370
20100.00000	104.19230	-591.78446	104.19230
20150.00000	104.19590	-594.70711	104.19590
20200.00000	104.21394	-597.12154	104.21394
20250.00000	104.23301	-599.74650	104.23301
20300.00000	104.23621	-602.35930	104.23621
20350.00000	104.24618	-604.91221	104.24618
20400.00000	104.24737	-607.32941	104.24737
20450.00000	104.23784	-610.08108	104.23784
20500.00000	104.27679	-612.93684	104.27679
20550.00000	104.24985	-615.65995	104.24985
20600.00000	104.25911	-618.36631	104.25911
20650.00000	104.28708	-620.94503	104.28708
20700.00000	104.29875	-623.54603	104.29875
20750.00000	104.28710	-626.20142	104.28710
20800.00000	104.28987	-628.85370	104.28987
20850.00000	104.27714	-631.70398	104.27714
20900.00000	104.27472	-634.26627	104.27472
20950.00000	104.27556	-637.13967	104.27556
21000.00000	104.29701	-640.06362	104.29701
21050.00000	104.29377	-642.60993	104.29377
21100.00000	104.29510	-645.52020	104.29510
21150.00000	104.30143	-648.11600	104.30143
21200.00000	104.30045	-650.73711	104.30045
21250.00000	104.24250	-653.41519	104.24250
21300.00000	104.24934	-656.21279	104.24934
21350.00000	104.23031	-659.04387	104.23031
21400.00000	104.22124	-661.98369	104.22124
21450.00000	104.22983	-664.83012	104.22983
21500.00000	104.25084	-667.30203	104.25084
21550.00000	104.27701	-670.07131	104.27701
21600.00000	104.26903	-673.19235	104.26903
21650.00000	104.27375	-675.93181	104.27375
21700.00000	104.22866	-679.19708	104.22866
21750.00000	104.25668	-682.22154	104.25668
21800.00000	104.21218	-685.54821	104.21218
21850.00000	104.19288	-688.43530	104.19288
21900.00000	104.14063	-691.52348	104.14063
21950.00000	104.12992	-694.72742	104.12992
22000.00000	103.99759	-697.64723	103.99759
22050.00000	103.92369	-700.49812	103.92369
22100.00000	103.86231	-703.33159	103.86231
22150.00000	103.81259	-706.21554	103.81259
22200.00000	103.73951	-709.31491	103.73951
22250.00000	103.70421	-712.21001	103.70421
22300.00000	103.64141	-715.15671	103.64141
22350.00000	103.55291	-718.41383	103.55291
22400.00000	103.44012	-721.25221	103.44012
22450.00000	103.37275	-724.25599	103.37275
22500.00000	103.26350	-727.29721	103.26350
22550.00000	103.15505	-730.33274	103.15505
22600.00000	103.08290	-733.07142	103.08290
22650.00000	102.95648	-735.82041	102.95648
22700.00000	102.83510	-738.59875	102.83510
22750.00000	102.73222	-741.97314	102.73222
22800.00000	102.62772	-744.58275	102.62772
22850.00000	102.45323	-747.33125	102.45323
22900.00000	102.36388	-749.78332	102.36388
22950.00000	102.31218	-752.49294	102.31218
23000.00000	102.16080	-755.23029	102.16080
23050.00000	102.06154	-757.74409	102.06154
23100.00000	101.93792	-760.86829	101.93792
23150.00000	101.78741	-763.78374	101.78741
23200.00000	101.64552	-766.84853	101.64552
23250.00000	101.59260	-769.46851	101.59260
23300.00000	101.48325	-772.53422	101.48325
23350.00000	101.34470	-775.05679	101.34470
23400.00000	101.17926	-777.38930	101.17926
23450.00000	101.02217	-780.33927	101.02217
23500.00000	100.91829	-783.06677	100.91829
23550.00000	100.69465	-786.16968	100.69465
23600.00000	100.56748	-788.40930	100.56748
23650.00000	100.33793	-790.92728	100.33793
23700.00000	100.25344	-793.32623	100.25344
23750.00000	100.08382	-796.34125	100.08382
23800.00000	99.91825	-799.12808	99.91825
23850.00000	99.75735	-801.67816	99.75735
23900.00000	99.54337	-804.33808	99.54337
23950.00000	99.43647	-806.59026	99.43647
24000.00000	99.25643	-809.56383	99.25643
24050.00000	99.04863	-811.92062	99.04863
24100.00000	98.88625	-814.90539	98.88625
24150.00000	98.63566	-817.25426	98.63566
24200.00000	98.45044	-820.08461	98.45044
24250.00000	98.23384	-822.39315	98.23384
24300.00000	97.97508	-824.94501	97.97508
24350.00000	97.80422	-826.87388	97.80422
24400.00000	97.63908	-829.46942	97.63908
24450.00000	97.29377	-831.24432	97.29377
24500.00000	97.04086	-834.08543	97.04086
24550.00000	96.79318	-836.29341	96.79318
24600.00000	96.64336	-838.54602	96.64336
24650.00000	96.40198	-841.17303	96.40198
24700.00000	96.11979	-842.81284	96.11979
24750.00000	95.94699	-845.51198	95.94699
24800.00000	95.64921	-847.22732	95.64921
24850.00000	95.38259	-849.26567	95.38259
24900.00000	95.04083	-850.51473	95.04083
24950.00000	94.86865	-852.19280	94.86865
25000.00000	94.64364	-854.02165	94.64364
25050.00000	94.42311	-855.41029	94.42311
25100.00000	94.16492	-856.43883	94.16492
25150.00000	93.83537	-857.98481	93.83537
25200.00000	93.62359	-859.17419	93.62359
25250.00000	93.37679	-861.05418	93.37679
25300.00000	93.05525	-862.68276	93.05525
25350.00000	92.99125	-863.43417	92.99125
25400.00000	92.80085	-863.81806	92.80085
25450.00000	92.67885	-865.99273	92.67885
25500.00000	92.44303	-866.53719	92.44303
25550.00000	92.30258	-868.32725	92.30258
25600.00000	92.03256	-869.18252	92.03256
25650.00000	91.80278	-870.98431	91.80278
25700.00000	91.59816	-871.69368	91.59816
25750.00000	91.52386	-872.76051	91.52386
25800.00000	91.32271	-872.50705	91.32271
25850.00000	91.23748	-873.95928	91.23748
25900.00000	91.03125	-875.34837	91.03125
25950.00000	90.97585	-876.21334	90.97585
26000.00000	90.88315	-877.19813	90.88315
26050.00000	90.77339	-879.19057	90.77339
26100.00000	90.66993	-879.96923	90.66993
26150.00000	90.48595	-880.92967	90.48595
26200.00000	90.34738	-881.12802	90.34738
26250.00000	90.30980	-882.50578	90.30980
26300.00000	90.23903	-883.35733	90.23903
26350.00000	90.25324	-884.84760	90.25324
26400.00000	90.21704	-886.55446	90.21704
26450.00000	90.04556	-888.22714	90.04556
26500.00000	90.01558	-889.57082	90.01558
26550.00000	89.85314	-890.13481	89.85314
26600.00000	89.72834	-891.49987	89.72834
26650.00000	89.66801	-893.23849	89.66801
26700.00000	89.60976	-894.83347	89.60976
26750.00000	89.46716	-896.16969	89.46716
26800.00000	89.29325	-897.30355	89.29325
26850.00000	89.24161	-899.00886	89.24161
26900.00000	89.09617	-900.05172	89.09617
26950.00000	89.00615	-901.87480	89.00615
27000.00000	88.85153	-903.02083	88.85153
27050.00000	88.74810	-903.93165	88.74810
27100.00000	88.60870	-905.17097	88.60870
27150.00000	88.35725	-906.62785	88.35725
27200.00000	88.29957	-907.75172	88.29957
27250.00000	88.19594	-908.91343	88.19594
27300.00000	88.06988	-909.74877	88.06988
27350.00000	87.84281	-910.93143	87.84281
27400.00000	87.81183	-911.38514	87.81183
27450.00000	87.77525	-912.82592	87.77525
27500.00000	87.54715	-914.16987	87.54715
27550.00000	87.31357	-913.79148	87.31357
27600.00000	87.22521	-914.76573	87.22521
27650.00000	87.15974	-915.53279	87.15974
27700.00000	87.13149	-916.69994	87.13149
27750.00000	86.97603	-917.60864	86.97603
27800.00000	86.87094	-917.41904	86.87094
27850.00000	86.75644	-918.90994	86.75644
27900.00000	86.71768	-919.03718	86.71768
27950.00000	86.62063	-919.71014	86.62063
28000.00000	86.41208	-920.06775	86.41208
28050.00000	86.41713	-920.86319	86.41713
28100.00000	86.19864	-920.58679	86.19864
28150.00000	86.21722	-920.37612	86.21722
28200.00000	86.38877	-921.27008	86.38877
28250.00000	86.25900	-921.87716	86.25900
28300.00000	86.26941	-922.57590	86.26941
28350.00000	86.26808	-923.68138	86.26808
28400.00000	86.16457	-923.94734	86.16457
28450.00000	86.09038	-924.30698	86.09038
28500.00000	86.08364	-924.31561	86.08364
28550.00000	86.00914	-924.17957	86.00914
28600.00000	86.22629	-924.94170	86.22629
28650.00000	86.21098	-925.16160	86.21098
28700.00000	86.16742	-926.39017	86.16742
28750.00000	86.31624	-926.00835	86.31624
28800.00000	86.34082	-927.56403	86.34082
28850.00000	86.33880	-927.69003	86.33880
28900.00000	86.35897	-928.37502	86.35897
28950.00000	86.39093	-929.18675	86.39093
29000.00000	86.62058	-928.82932	86.62058
29050.00000	86.69980	-930.21672	86.69980
29100.00000	86.61163	-931.01838	86.61163
29150.00000	86.69749	-931.50299	86.69749
29200.00000	86.76293	-932.30841	86.76293
29250.00000	86.77287	-932.46218	86.77287
29300.00000	86.92343	-933.84729	86.92343
29350.00000	86.98544	-934.19378	86.98544
29400.00000	87.04292	-935.32234	87.04292
29450.00000	87.24519	-936.88127	87.24519
29500.00000	87.29410	-937.53944	87.29410
29550.00000	87.36744	-937.32681	87.36744
29600.00000	87.48541	-939.46973	87.48541
29650.00000	87.50726	-939.59383	87.50726
29700.00000	87.52460	-940.74410	87.52460
29750.00000	87.58834	-941.89793	87.58834
29800.00000	87.71694	-943.10912	87.71694
29850.00000	87.82256	-943.69758	87.82256
29900.00000	87.86562	-944.71690	87.86562
29950.00000	87.91294	-945.12260	87.91294
30000.00000	88.05286	-945.97776	88.05286
30050.00000	88.01653	-946.95134	88.01653
30100.00000	88.29745	-948.32735	88.29745
30150.00000	88.31250	-949.27458	88.31250
30200.00000	88.45309	-950.18055	88.45309
30250.00000	88.53900	-950.89978	88.53900
30300.00000	88.61646	-951.93627	88.61646
30350.00000	88.72793	-953.16012	88.72793
30400.00000	88.83386	-954.06957	88.83386
30450.00000	89.03974	-954.72420	89.03974
30500.00000	89.11179	-956.17741	89.11179
30550.00000	89.09351	-957.19385	89.09351
30600.00000	89.25894	-958.01870	89.25894
30650.00000	89.54899	-959.16046	89.54899
30700.00000	89.62227	-960.04133	89.62227
30750.00000	89.65440	-961.89016	89.65440
30800.00000	89.75599	-962.37530	89.75599
30850.00000	89.83889	-963.91122	89.83889
30900.00000	89.98841	-964.72988	89.98841
30950.00000	90.21205	-966.01810	90.21205
31000.00000	90.29615	-966.92716	90.29615
31050.00000	90.40835	-967.94128	90.40835
31100.00000	90.57877	-969.25959	90.57877
31150.00000	90.69062	-970.47514	90.69062
31200.00000	90.80243	-971.67813	90.80243
31250.00000	91.04086	-972.60468	91.04086
31300.00000	91.14646	-974.05987	91.14646
31350.00000	91.32278	-974.60942	91.32278
31400.00000	91.49162	-976.06830	91.49162
31450.00000	91.68872	-977.50310	91.68872
31500.00000	91.82066	-979.34845	91.82066
31550.00000	91.97393	-980.95875	91.97393
31600.00000	92.19890	-982.16808	92.19890
31650.00000	92.34551	-983.44317	92.34551
31700.00000	92.50089	-985.07919	92.50089
31750.00000	92.62703	-986.98457	92.62703
31800.00000	92.76952	-988.20611	92.76952
31850.00000	92.88427	-990.30852	92.88427
31900.00000	93.01620	-991.33147	93.01620
31950.00000	93.24566	-993.62978	93.24566
32000.00000	93.33305	-995.26247	93.33305
32050.00000	93.47837	-997.06141	93.47837
32100.00000	93.61976	-999.20763	93.61976
32150.00000	93.77634	-1000.68331	93.77634
32200.00000	93.82098	-1002.37463	93.82098
32250.00000	93.98506	-1003.87868	93.98506
32300.00000	94.15107	-1006.09887	94.15107
32350.00000	94.21844	-1007.45247	94.21844
32400.00000	94.28078	-1009.13962	94.28078
32450.00000	94.41241	-1010.95874	94.41241
32500.00000	94.50590	-1012.90313	94.50590
32550.00000	94.59605	-1014.58988	94.59605
32600.00000	94.64314	-1016.31005	94.64314
32650.00000	94.72307	-1018.28599	94.72307
32700.00000	94.82107	-1019.93135	94.82107
32750.00000	94.89230	-1021.77787	94.89230
32800.00000	94.95778	-1022.80166	94.95778
32850.00000	95.03795	-1024.43207	95.03795
32900.00000	95.08832	-1025.55953	95.08832
32950.00000	95.15965	-1027.31598	95.15965
33000.00000	95.22055	-1028.74606	95.22055
33050.00000	95.30211	-1029.86216	95.30211
33100.00000	95.40351	-1031.48178	95.40351
33150.00000	95.51702	-1032.06061	95.51702
33200.00000	95.62944	-1033.63471	95.62944
33250.00000	95.75517	-1034.75591	95.75517
33300.00000	95.90897	-1035.93086	95.90897
33350.00000	95.97836	-1036.92662	95.97836
33400.00000	96.15322	-1038.57492	96.15322
33450.00000	96.25368	-1039.84720	96.25368
33500.00000	96.42933	-1040.86824	96.42933
33550.00000	96.61018	-1041.90188	96.61018
33600.00000	96.76257	-1043.33194	96.76257
33650.00000	96.84212	-1044.54405	96.84212
33700.00000	97.02145	-1045.82214	97.02145
33750.00000	97.14872	-1046.86806	97.14872
33800.00000	97.38393	-1048.40572	97.38393
33850.00000	97.55032	-1049.48594	97.55032
33900.00000	97.71760	-1050.83242	97.71760
33950.00000	97.97592	-1052.22039	97.97592
34000.00000	98.14387	-1053.67940	98.14387
34050.00000	98.32049	-1054.61446	98.32049
34100.00000	98.55650	-1056.32315	98.55650
34150.00000	98.71337	-1057.80211	98.71337
34200.00000	98.95264	-1058.97549	98.95264
34250.00000	99.21905	-1060.83133	99.21905
34300.00000	99.45950	-1062.33887	99.45950
34350.00000	99.67026	-1063.99091	99.67026
34400.00000	99.92625	-1065.55735	99.92625
34450.00000	100.12111	-1067.22789	100.12111
34500.00000	100.38548	-1068.67245	100.38548
34550.00000	100.65335	-1070.41631	100.65335
34600.00000	100.92394	-1072.17671	100.92394
34650.00000	101.19880	-1073.80782	101.19880
34700.00000	101.44164	-1075.72394	101.44164
34750.00000	101.70214	-1077.64302	101.70214
34800.00000	102.04138	-1079.61288	102.04138
34850.00000	102.32932	-1081.97685	102.32932
34900.00000	102.57530	-1084.27725	102.57530
34950.00000	102.82914	-1087.13000	102.82914
35000.00000	103.08155	-1089.24281	103.08155
35050.00000	103.27219	-1091.75681	103.27219
35100.00000	103.39554	-1094.35806	103.39554
35150.00000	103.53304	-1096.22000	103.53304
35200.00000	103.82714	-1097.84869	103.82714
35250.00000	104.10337	-1099.28980	104.10337
35300.00000	104.38360	-1101.68674	104.38360
35350.00000	104.74083	-1103.67644	104.74083
35400.00000	105.05672	-1106.49289	105.05672
35450.00000	105.34829	-1109.02998	105.34829
35500.00000	105.64761	-1112.00817	105.64761
35550.00000	105.90673	-1114.86414	105.90673
35600.00000	106.17514	-1117.99763	106.17514
35650.00000	106.41135	-1120.94344	106.41135
35700.00000	106.62403	-1124.09015	106.62403
35750.00000	106.85125	-1127.10636	106.85125
35800.00000	107.08091	-1130.26701	107.08091
35850.00000	107.30209	-1133.51078	107.30209
35900.00000	107.49843	-1136.74439	107.49843
35950.00000	107.67110	-1139.76780	107.67110
36000.00000	107.82998	-1143.03787	107.82998
36050.00000	107.97738	-1146.48110	107.97738
36100.00000	108.11660	-1149.55264	108.11660
36150.00000	108.24812	-1152.79719	108.24812
36200.00000	108.36303	-1156.09665	108.36303
36250.00000	108.45630	-1159.39642	108.45630
36300.00000	108.56445	-1162.63322	108.56445
36350.00000	108.62591	-1165.63662	108.62591
36400.00000	108.71445	-1168.97386	108.71445
36450.00000	108.75889	-1172.04558	108.75889
36500.00000	108.81144	-1175.02029	108.81144
36550.00000	108.85929	-1178.03387	108.85929
36600.00000	108.89308	-1180.92370	108.89308
36650.00000	108.92076	-1183.78619	108.92076
36700.00000	108.93504	-1186.31674	108.93504
36750.00000	108.95775	-1189.14620	108.95775
36800.00000	108.96394	-1191.63822	108.96394
36850.00000	108.98871	-1194.12282	108.98871
36900.00000	108.99207	-1196.45663	108.99207
36950.00000	108.99109	-1198.75175	108.99109
37000.00000	109.00195	-1200.77685	109.00195
37050.00000	109.03730	-1202.82575	109.03730
37100.00000	109.07016	-1204.93973	109.07016
37150.00000	109.09950	-1206.63870	109.09950
37200.00000	109.13561	-1208.37394	109.13561
37250.00000	109.18631	-1210.08120	109.18631
37300.00000	109.23942	-1211.55782	109.23942
37350.00000	109.32650	-1213.03180	109.32650
37400.00000	109.44236	-1214.44614	109.44236
37450.00000	109.56118	-1215.52678	109.56118
37500.00000	109.69615	-1216.47614	109.69615
37550.00000	109.90801	-1217.53530	109.90801
37600.00000	110.14074	-1218.35885	110.14074
37650.00000	110.43133	-1219.31050	110.43133
37700.00000	110.76643	-1220.16243	110.76643
37750.00000	111.16603	-1221.24564	111.16603
37800.00000	111.60978	-1222.59685	111.60978
37850.00000	112.12195	-1224.14878	112.12195
37900.00000	112.65245	-1226.17436	112.65245
37950.00000	113.20057	-1228.71967	113.20057
38000.00000	113.77879	-1231.58209	113.77879
38050.00000	114.33220	-1235.15779	114.33220
38100.00000	114.87009	-1238.94585	114.87009
38150.00000	115.35619	-1243.14410	115.35619
38200.00000	115.81897	-1247.62064	115.81897
38250.00000	116.24218	-1252.28459	116.24218
38300.00000	116.63225	-1257.13184	116.63225
38350.00000	116.95928	-1262.16519	116.95928
38400.00000	117.26607	-1267.13020	117.26607
38450.00000	117.54099	-1272.24939	117.54099
38500.00000	117.78620	-1277.27959	117.78620
38550.00000	118.00510	-1282.49067	118.00510
38600.00000	118.18989	-1287.57446	118.18989
38650.00000	118.36382	-1292.73383	118.36382
38700.00000	118.49103	-1297.88592	118.49103
38750.00000	118.61377	-1302.93075	118.61377
38800.00000	118.70211	-1307.97787	118.70211
38850.00000	118.79353	-1313.06625	118.79353
38900.00000	118.84071	-1318.04486	118.84071
38950.00000	118.88577	-1322.98612	118.88577
39000.00000	118.92233	-1327.86199	118.92233
39050.00000	118.94595	-1332.85853	118.94595
39100.00000	118.94024	-1337.78301	118.94024
39150.00000	118.92040	-1342.62183	118.92040
39200.00000	118.89894	-1347.47482	118.89894
39250.00000	118.85695	-1352.25686	118.85695
39300.00000	118.80300	-1356.91561	118.80300
39350.00000	118.74936	-1361.58584	118.74936
39400.00000	118.68605	-1366.29428	118.68605
39450.00000	118.62806	-1370.91491	118.62806
39500.00000	118.55921	-1375.65902	118.55921
39550.00000	118.47873	-1380.30275	118.47873
39600.00000	118.36077	-1385.16471	118.36077
39650.00000	118.23924	-1389.89409	118.23924
39700.00000	118.09669	-1394.63576	118.09669
39750.00000	117.92509	-1399.41042	117.92509
39800.00000	117.71558	-1403.95738	117.71558
39850.00000	117.50917	-1408.53585	117.50917
39900.00000	117.26930	-1413.02242	117.26930
39950.00000	117.02631	-1417.33426	117.02631
40000.00000	116.77535	-1421.61281	116.77535
40050.00000	116.48768	-1425.72534	116.48768
40100.00000	116.21232	-1429.77430	116.21232
40150.00000	115.92275	-1433.66464	115.92275
40200.00000	115.61575	-1437.48314	115.61575
40250.00000	115.31376	-1441.22360	115.31376
40300.00000	114.98487	-1444.68148	114.98487
40350.00000	114.67114	-1448.13359	114.67114
40400.00000	114.31556	-1451.43914	114.31556
40450.00000	113.99477	-1454.56798	113.99477
40500.00000	113.65362	-1457.63343	113.65362
40550.00000	113.32038	-1460.51333	113.32038
40600.00000	112.98924	-1463.19703	112.98924
40650.00000	112.63340	-1465.87531	112.63340
40700.00000	112.29082	-1468.31766	112.29082
40750.00000	111.97814	-1470.69249	111.97814
40800.00000	111.64123	-1472.96287	111.64123
40850.00000	111.30439	-1475.16570	111.30439
40900.00000	111.00888	-1476.98802	111.00888
40950.00000	110.72683	-1478.90504	110.72683
41000.00000	110.43307	-1480.44062	110.43307
41050.00000	110.15727	-1482.22764	110.15727
41100.00000	109.90236	-1483.66190	109.90236
41150.00000	109.66882	-1485.15664	109.66882
41200.00000	109.45690	-1486.65181	109.45690
41250.00000	109.26626	-1487.89131	109.26626
41300.00000	109.09357	-1489.31821	109.09357
41350.00000	108.87252	-1490.36460	108.87252
41400.00000	108.75202	-1491.64147	108.75202
41450.00000	108.60606	-1492.82937	108.60606
41500.00000	108.51865	-1493.87064	108.51865
41550.00000	108.38155	-1495.19901	108.38155
41600.00000	108.32129	-1496.46062	108.32129
41650.00000	108.24811	-1497.50454	108.24811
41700.00000	108.23168	-1498.74761	108.23168
41750.00000	108.19643	-1500.08226	108.19643
41800.00000	108.20571	-1501.53862	108.20571
41850.00000	108.24924	-1503.18648	108.24924
41900.00000	108.20785	-1504.92605	108.20785
41950.00000	108.25448	-1506.89481	108.25448
42000.00000	108.29275	-1508.76721	108.29275
42050.00000	108.31143	-1510.87043	108.31143
42100.00000	108.33262	-1513.23488	108.33262
42150.00000	108.30087	-1515.49134	108.30087
42200.00000	108.31513	-1517.77016	108.31513
42250.00000	108.26786	-1520.25181	108.26786
42300.00000	108.21996	-1522.35722	108.21996
42350.00000	108.15870	-1524.95253	108.15870
42400.00000	108.14310	-1527.32316	108.14310
42450.00000	108.02242	-1529.65678	108.02242
42500.00000	107.92211	-1532.17012	107.92211
42550.00000	107.79196	-1534.24576	107.79196
42600.00000	107.71061	-1536.57262	107.71061
42650.00000	107.58081	-1538.61755	107.58081
42700.00000	107.45197	-1540.73673	107.45197
42750.00000	107.32695	-1542.94732	107.32695
42800.00000	107.24127	-1544.57628	107.24127
42850.00000	107.10013	-1546.47016	107.10013
42900.00000	107.01647	-1548.25399	107.01647
42950.00000	106.91897	-1550.04173	106.91897
43000.00000	106.82463	-1551.64663	106.82463
43050.00000	106.66381	-1553.37233	106.66381
43100.00000	106.59908	-1554.88052	106.59908
43150.00000	106.57644	-1556.40024	106.57644
43200.00000	106.47190	-1557.85134	106.47190
43250.00000	106.36857	-1559.26118	106.36857
43300.00000	106.33856	-1560.12680	106.33856
43350.00000	106.23958	-1561.69287	106.23958
43400.00000	106.27746	-1563.34658	106.27746
43450.00000	106.25317	-1564.62542	106.25317
43500.00000	106.16701	-1565.96389	106.16701
43550.00000	106.15834	-1567.24450	106.15834
43600.00000	106.12976	-1568.99096	106.12976
43650.00000	106.17810	-1569.99261	106.17810
43700.00000	106.14276	-1571.39771	106.14276
43750.00000	106.17781	-1573.12565	106.17781
43800.00000	106.15185	-1574.93495	106.15185
43850.00000	106.17116	-1575.82490	106.17116
43900.00000	106.21996	-1577.49369	106.21996
43950.00000	106.31778	-1579.15455	106.31778
44000.00000	106.25887	-1580.63721	106.25887
44050.00000	106.30937	-1582.08975	106.30937
44100.00000	106.35904	-1583.56007	106.35904
44150.00000	106.48167	-1585.15025	106.48167
44200.00000	106.43262	-1586.33684	106.43262
44250.00000	106.59436	-1587.93488	106.59436
44300.00000	106.65676	-1589.30546	106.65676
44350.00000	106.73529	-1591.07238	106.73529
44400.00000	106.80001	-1592.36051	106.80001
44450.00000	106.88926	-1594.01444	106.88926
44500.00000	106.99485	-1595.70957	106.99485
44550.00000	107.02148	-1596.60659	107.02148
44600.00000	107.14600	-1598.35119	107.14600
44650.00000	107.24226	-1599.94578	107.24226
44700.00000	107.35953	-1601.83033	107.35953
44750.00000	107.45242	-1603.48288	107.45242
44800.00000	107.56586	-1604.94365	107.56586
44850.00000	107.76996	-1606.84445	107.76996
44900.00000	107.87849	-1608.76762	107.87849
44950.00000	108.10945	-1610.75295	108.10945
45000.00000	108.18591	-1612.49052	108.18591
45050.00000	108.38248	-1614.42935	108.38248
45100.00000	108.44466	-1616.58672	108.44466
45150.00000	108.71517	-1618.50065	108.71517
45200.00000	108.85001	-1620.33924	108.85001
45250.00000	109.06376	-1622.62902	109.06376
45300.00000	109.25915	-1624.92553	109.25915
45350.00000	109.46763	-1626.62284	109.46763
45400.00000	109.71875	-1628.97276	109.71875
45450.00000	109.98480	-1631.64958	109.98480
45500.00000	110.13417	-1633.60795	110.13417
45550.00000	110.40584	-1635.84638	110.40584
45600.00000	110.59154	-1638.77613	110.59154
45650.00000	110.89843	-1641.63290	110.89843
45700.00000	111.13718	-1644.71208	111.13718
45750.00000	111.40455	-1647.84714	111.40455
45800.00000	111.63751	-1651.39163	111.63751
45850.00000	111.86532	-1655.43974	111.86532
45900.00000	112.04908	-1659.15282	112.04908
45950.00000	112.20578	-1663.22291	112.20578
46000.00000	112.36572	-1667.06360	112.36572
46050.00000	112.51371	-1671.28413	112.51371
46100.00000	112.61162	-1675.37062	112.61162
46150.00000	112.71865	-1679.69537	112.71865
46200.00000	112.74400	-1683.89825	112.74400
46250.00000	112.80146	-1687.96874	112.80146
46300.00000	112.82425	-1692.18194	112.82425
46350.00000	112.84779	-1696.39673	112.84779
46400.00000	112.76241	-1700.43717	112.76241
46450.00000	112.71264	-1704.37362	112.71264
46500.00000	112.60000	-1708.23445	112.60000
46550.00000	112.52854	-1712.11283	112.52854
46600.00000	112.39590	-1715.62434	112.39590
46650.00000	112.32991	-1719.21273	112.32991
46700.00000	112.20074	-1722.77262	112.20074
46750.00000	112.06687	-1726.35112	112.06687
46800.00000	111.99308	-1729.32768	111.99308
46850.00000	111.88427	-1733.34231	111.88427
46900.00000	111.73589	-1736.33984	111.73589
46950.00000	111.63526	-1739.53688	111.63526
47000.00000	111.48800	-1742.76385	111.48800
47050.00000	111.34892	-1746.32063	111.34892
47100.00000	111.22634	-1749.00871	111.22634
47150.00000	111.12420	-1752.10617	111.12420
47200.00000	110.97145	-1755.23055	110.97145
47250.00000	110.75922	-1757.77207	110.75922
47300.00000	110.71181	-1760.91079	110.71181
47350.00000	110.63132	-1763.24612	110.63132
47400.00000	110.45953	-1766.31385	110.45953
47450.00000	110.40877	-1768.76260	110.40877
47500.00000	110.30886	-1771.66728	110.30886
47550.00000	110.16781	-1774.17912	110.16781
47600.00000	110.02891	-1777.29460	110.02891
47650.00000	109.89392	-1779.57012	109.89392
47700.00000	109.84153	-1782.68336	109.84153
47750.00000	109.70834	-1784.97836	109.70834
47800.00000	109.62697	-1787.53357	109.62697
47850.00000	109.55587	-1790.15608	109.55587
47900.00000	109.46627	-1792.24479	109.46627
47950.00000	109.47472	-1795.47140	109.47472
48000.00000	109.36264	-1798.56414	109.36264
48050.00000	109.41766	-1800.93812	109.41766
48100.00000	109.23000	-1804.12827	109.23000
48150.00000	109.21782	-1806.42253	109.21782
48200.00000	109.14968	-1809.98678	109.14968
48250.00000	109.10007	-1812.92427	109.10007
48300.00000	109.09254	-1815.41316	109.09254
48350.00000	109.05632	-1818.18348	109.05632
48400.00000	108.90213	-1821.90692	108.90213
48450.00000	108.87951	-1824.85892	108.87951
48500.00000	108.73874	-1828.27887	108.73874
48550.00000	108.66847	-1831.10035	108.66847
48600.00000	108.49498	-1835.55869	108.49498
48650.00000	108.46775	-1838.42722	108.46775
48700.00000	108.32586	-1841.67162	108.32586
48750.00000	108.12794	-1845.57524	108.12794
48800.00000	107.92920	-1848.58267	107.92920
48850.00000	107.64721	-1493.19766	107.64721
48900.00000	107.50185	-1496.27495	107.50185
48950.00000	107.09025	-1499.53532	107.09025
49000.00000	106.85016	-1143.51350	106.85016
49050.00000	106.58614	-1146.83249	106.58614
49100.00000	106.18835	-1148.84187	106.18835
49150.00000	105.90493	-792.57603	105.90493
49200.00000	105.44625	-793.86305	105.44625
49250.00000	105.15897	-436.21644	105.15897
49300.00000	104.78574	-78.00928	104.78574
49350.00000	104.25545	-79.02245	104.25545
49400.00000	103.94893	277.88286	103.94893
49450.00000	103.59490	277.22489	103.59490
49500.00000	103.32399	276.80937	103.32399
49550.00000	103.07594	635.29339	103.07594
49600.00000	102.79257	994.38307	102.79257
49650.00000	102.58001	1352.26867	102.58001
49700.00000	102.18037	1712.02939	102.18037
49750.00000	102.08578	2072.01513	102.08578
49800.00000	101.89189	2072.33086	101.89189
49850.00000	101.80378	2789.50685	101.80378
49900.00000	101.77934	2789.99756	101.77934
49950.00000	101.40379	3149.03761	101.40379
50000.00000	101.50644	3148.39658	101.50644
50050.00000	101.35491	3148.07175	101.35491
50100.00000	101.33786	3146.15115	101.33786
50150.00000	101.35882	3146.16894	101.35882
50200.00000	101.33818	3145.42299	101.33818
50250.00000	101.27007	3143.80336	101.27007
50300.00000	101.33075	3142.14950	101.33075
50350.00000	101.33459	3141.97853	101.33459
50400.00000	101.43799	3140.49468	101.43799
50450.00000	101.31079	3139.55522	101.31079
50500.00000	101.40574	3138.63080	101.40574
50550.00000	101.38560	3137.14630	101.38560
50600.00000	101.44719	3134.81713	101.44719
50650.00000	101.57587	3133.68897	101.57587
50700.00000	101.49437	3131.34314	101.49437
50750.00000	101.51610	3130.05333	101.51610
50800.00000	101.57156	3127.18493	101.57156
50850.00000	101.46133	3126.09597	101.46133
50900.00000	101.55005	3122.76998	101.55005
50950.00000	101.59704	3120.69538	101.59704
51000.00000	101.77118	3118.51432	101.77118
51050.00000	101.75776	3116.86949	101.75776
51100.00000	101.68592	3114.96031	101.68592
51150.00000	101.51947	3111.76515	101.51947
51200.00000	101.60056	3109.18329	101.60056
51250.00000	101.54736	3107.30431	101.54736
51300.00000	101.56166	3104.81762	101.56166
51350.00000	101.53853	3103.06833	101.53853
51400.00000	101.42671	3099.11142	101.42671
51450.00000	101.31699	3098.04580	101.31699
51500.00000	101.19877	3095.57689	101.19877
51550.00000	101.16551	3092.64834	101.16551
51600.00000	101.00705	3090.89954	101.00705
51650.00000	100.64164	3088.83214	100.64164
51700.00000	100.52802	3085.78058	100.52802
51750.00000	100.28088	3084.37603	100.28088
51800.00000	100.18388	3082.74354	100.18388
51850.00000	100.12936	3079.40069	100.12936
51900.00000	99.81474	3078.73490	99.81474
51950.00000	99.43692	3077.59316	99.43692
52000.00000	99.25639	3075.50959	99.25639
52050.00000	99.11938	3075.19113	99.11938
52100.00000	98.92788	3074.03330	98.92788
52150.00000	98.71050	3073.20024	98.71050
52200.00000	98.46959	3073.28345	98.46959
52250.00000	98.48123	3073.41060	98.48123
52300.00000	97.98476	3073.88474	97.98476
52350.00000	98.01251	3072.70929	98.01251
52400.00000	98.06869	3071.20778	98.06869
52450.00000	98.01430	3070.12989	98.01430
52500.00000	98.10909	3069.85460	98.10909
52550.00000	98.05163	3071.36648	98.05163
52600.00000	98.05737	3068.33053	98.05737
52650.00000	98.17622	3069.12742	98.17622
52700.00000	98.36256	3069.64798	98.36256
52750.00000	98.38744	3069.07192	98.38744
52800.00000	98.62047	3067.64522	98.62047
52850.00000	98.59284	3068.23695	98.59284
52900.00000	98.72952	3065.76889	98.72952
52950.00000	98.93418	3065.18547	98.93418
53000.00000	99.05092	3063.79967	99.05092
53050.00000	99.04768	3062.73801	99.04768
53100.00000	99.17989	3061.06359	99.17989
53150.00000	99.61627	3059.27233	99.61627
53200.00000	99.45017	3057.76344	99.45017
53250.00000	99.71388	3056.39943	99.71388
53300.00000	99.87780	3054.38865	99.87780
53350.00000	99.83873	3052.79811	99.83873
53400.00000	100.03698	3050.93417	100.03698
53450.00000	100.17837	3049.46990	100.17837
53500.00000	100.44365	3048.28404	100.44365
53550.00000	100.55823	3045.04064	100.55823
53600.00000	100.48007	3042.91704	100.48007
53650.00000	100.78667	3040.79280	100.78667
53700.00000	100.89794	3038.66594	100.89794
53750.00000	101.03410	3036.79825	101.03410
53800.00000	101.07126	3034.57252	101.07126
53850.00000	101.09191	3032.64344	101.09191
53900.00000	101.16414	3031.13071	101.16414
53950.00000	101.26621	3027.39237	101.26621
54000.00000	101.30170	3025.33531	101.30170
54050.00000	101.29372	3022.66370	101.29372
54100.00000	101.50541	3020.32770	101.50541
54150.00000	101.51411	3017.18159	101.51411
54200.00000	101.32171	3016.44076	101.32171
54250.00000	101.33314	3013.28247	101.33314
54300.00000	101.34448	3010.87398	101.34448
54350.00000	101.26213	3008.80150	101.26213
54400.00000	101.44068	3008.29244	101.44068
54450.00000	101.35582	3005.08747	101.35582
54500.00000	101.03464	3003.06004	101.03464
54550.00000	101.18023	3001.86244	101.18023
54600.00000	101.08286	3000.21340	101.08286
54650.00000	101.19117	2997.82639	101.19117
54700.00000	101.20047	2997.25634	101.20047
54750.00000	101.28721	2995.65094	101.28721
54800.00000	101.17812	2993.92376	101.17812
54850.00000	101.31418	2993.73686	101.31418
54900.00000	101.29426	2990.97376	101.29426
54950.00000	101.30148	2991.19414	101.30148
55000.00000	101.52536	2989.47224	101.52536
55050.00000	101.51187	2988.04372	101.51187
55100.00000	101.80218	2988.02591	101.80218
55150.00000	101.85123	2985.78921	101.85123
55200.00000	102.00350	2983.82475	102.00350
55250.00000	102.23923	2982.83721	102.23923
55300.00000	102.38956	2981.46669	102.38956
55350.00000	102.54738	2980.54349	102.54738
55400.00000	102.79567	2978.42370	102.79567
55450.00000	103.08494	2976.60030	103.08494
55500.00000	103.37197	2974.62228	103.37197
55550.00000	103.62337	2972.84126	103.62337
55600.00000	103.90106	2970.39457	103.90106
55650.00000	104.05749	2968.45958	104.05749
55700.00000	104.31346	2966.33922	104.31346
55750.00000	104.62638	2964.00711	104.62638
55800.00000	104.90616	2961.07862	104.90616
55850.00000	105.26488	2958.31923	105.26488
55900.00000	105.47841	2955.34505	105.47841
55950.00000	105.78453	2952.51987	105.78453
56000.00000	106.00489	2949.46947	106.00489
56050.00000	106.26755	2946.12733	106.26755
56100.00000	106.48650	2942.87031	106.48650
56150.00000	106.77133	2939.24241	106.77133
56200.00000	106.90033	2935.47955	106.90033
56250.00000	107.13185	2931.73103	107.13185
56300.00000	107.33850	2927.82192	107.33850
56350.00000	107.55079	2924.13667	107.55079
56400.00000	107.73392	2920.62389	107.73392
56450.00000	107.80361	2916.66970	107.80361
56500.00000	107.94833	2912.15585	107.94833
56550.00000	108.11324	2908.06894	108.11324
56600.00000	108.17032	2903.82101	108.17032
56650.00000	108.25524	2899.88792	108.25524
56700.00000	108.31904	2895.60796	108.31904
56750.00000	108.40476	2891.57068	108.40476
56800.00000	108.36311	2887.28739	108.36311
56850.00000	108.39801	2883.07633	108.39801
56900.00000	108.38525	2878.73615	108.38525
56950.00000	108.39244	2874.83610	108.39244
57000.00000	108.31242	2870.40049	108.31242
57050.00000	108.26255	2866.16783	108.26255
57100.00000	108.16975	2861.97631	108.16975
57150.00000	108.03731	2858.01418	108.03731
57200.00000	107.91358	2854.25933	107.91358
57250.00000	107.83774	2849.92430	107.83774
57300.00000	107.70529	2846.25967	107.70529
57350.00000	107.51392	2842.59835	107.51392
57400.00000	107.36432	2839.21407	107.36432
57450.00000	107.18692	2835.60112	107.18692
57500.00000	107.00056	2831.78805	107.00056
57550.00000	106.85169	2828.24666	106.85169
57600.00000	106.60926	2825.50546	106.60926
57650.00000	106.35989	2822.16055	106.35989
57700.00000	106.17207	2818.95894	106.17207
57750.00000	106.01256	2816.20196	106.01256
57800.00000	105.82289	2813.30805	105.82289
57850.00000	105.67407	2810.57018	105.67407
57900.00000	105.40893	2808.23185	105.40893
57950.00000	105.24011	2806.28372	105.24011
58000.00000	105.10328	2803.70352	105.10328
58050.00000	104.95913	2801.72402	104.95913
58100.00000	104.84672	2799.52685	104.84672
58150.00000	104.75642	2797.39074	104.75642
58200.00000	104.78103	2794.82708	104.78103
58250.00000	104.72657	2792.46079	104.72657
58300.00000	104.66283	2789.44331	104.66283
58350.00000	104.63996	2786.49175	104.63996
58400.00000	104.58949	2784.01676	104.58949
58450.00000	104.49616	2780.92270	104.49616
58500.00000	104.40079	2778.07978	104.40079
58550.00000	104.34680	2774.96799	104.34680
58600.00000	104.22204	2772.00604	104.22204
58650.00000	104.11043	2769.24108	104.11043
58700.00000	103.97810	2765.97383	103.97810
58750.00000	103.87043	2763.14152	103.87043
58800.00000	103.75727	2760.36226	103.75727
58850.00000	103.59990	2757.24004	103.59990
58900.00000	103.46104	2754.30388	103.46104
58950.00000	103.30723	2751.26275	103.30723
59000.00000	103.11498	2748.20222	103.11498
59050.00000	102.93334	2745.20951	102.93334
59100.00000	102.67773	2742.13393	102.67773
59150.00000	102.48416	2739.26711	102.48416
59200.00000	102.23682	2736.61792	102.23682
59250.00000	101.97797	2734.16888	101.97797
59300.00000	101.76293	2731.71879	101.76293
59350.00000	101.42331	2729.43118	101.42331
59400.00000	101.26783	2727.33782	101.26783
59450.00000	100.97004	2725.01975	100.97004
59500.00000	100.68006	2723.11755	100.68006
59550.00000	100.42802	2721.65511	100.42802
59600.00000	100.23261	2719.91313	100.23261
59650.00000	100.04544	2718.22735	100.04544
59700.00000	99.81873	2716.41100	99.81873
59750.00000	99.66879	2714.88594	99.66879
59800.00000	99.44082	2713.38150	99.44082
59850.00000	99.29465	2711.96646	99.29465
59900.00000	99.13674	2710.43206	99.13674
59950.00000	98.99880	2709.22113	98.99880
60000.00000	98.93005	2707.62326	98.93005
60050.00000	98.74813	2705.82685	98.74813
60100.00000	98.56011	2703.81828	98.56011
60150.00000	98.40779	2702.53370	98.40779
60200.00000	98.24158	2700.61648	98.24158
60250.00000	97.99995	2698.70986	97.99995
60300.00000	97.84787	2696.99100	97.84787
60350.00000	97.55288	2695.87425	97.55288
60400.00000	97.29995	2695.32715	97.29995
60450.00000	97.07021	2694.50260	97.07021
60500.00000	96.88345	2694.11990	96.88345
60550.00000	96.73635	2694.07427	96.73635
60600.00000	96.62792	2695.06644	96.62792
60650.00000	96.59109	2694.64135	96.59109
60700.00000	96.69360	2694.95154	96.69360
60750.00000	96.69994	2695.01922	96.69994
60800.00000	96.80568	2694.79455	96.80568
60850.00000	96.92719	2694.11363	96.92719
60900.00000	97.18155	2693.34431	97.18155
60950.00000	97.30169	2693.31853	97.30169
61000.00000	97.48636	2691.42494	97.48636
61050.00000	97.59596	2690.30987	97.59596
61100.00000	97.82158	2688.57561	97.82158
61150.00000	97.91302	2687.00561	97.91302
61200.00000	98.08067	2685.54485	98.08067
61250.00000	98.26480	2683.75986	98.26480
61300.00000	98.38065	2682.64643	98.38065
61350.00000	98.53055	2680.70001	98.53055
61400.00000	98.63842	2678.61513	98.63842
61450.00000	98.76998	2677.05976	98.76998
61500.00000	98.91608	2675.00954	98.91608
61550.00000	99.01097	2673.25568	99.01097
61600.00000	99.18251	2671.28246	99.18251
61650.00000	99.36132	2669.81822	99.36132
61700.00000	99.55021	2667.76922	99.55021
61750.00000	99.74772	2665.78241	99.74772
61800.00000	99.87912	2663.26627	99.87912
61850.00000	100.02309	2661.42807	100.02309
61900.00000	100.30225	2659.03343	100.30225
61950.00000	100.52145	2656.37246	100.52145
62000.00000	100.65361	2653.55500	100.65361
62050.00000	100.87042	2651.12338	100.87042
62100.00000	101.01251	2648.34387	101.01251
62150.00000	101.14927	2644.67160	101.14927
62200.00000	101.39636	2642.14761	101.39636
62250.00000	101.50189	2639.00341	101.50189
62300.00000	101.65247	2635.95432	101.65247
62350.00000	101.82133	2632.66848	101.82133
62400.00000	101.90991	2629.02787	101.90991
62450.00000	102.04636	2625.48475	102.04636
62500.00000	102.10346	2622.18829	102.10346
62550.00000	102.16420	2618.25120	102.16420
62600.00000	102.23700	2614.44460	102.23700
62650.00000	102.21944	2610.97996	102.21944
62700.00000	102.21659	2607.21754	102.21659
62750.00000	102.19999	2603.27853	102.19999
62800.00000	102.11311	2599.77877	102.11311
62850.00000	102.04034	2596.25477	102.04034
62900.00000	101.93803	2592.60961	101.93803
62950.00000	101.83718	2589.03988	101.83718
63000.00000	101.67310	2586.32550	101.67310
63050.00000	101.51185	2583.41045	101.51185
63100.00000	101.37055	2580.39959	101.37055
63150.00000	101.21379	2577.66808	101.21379
63200.00000	101.05767	2575.51490	101.05767
63250.00000	100.92600	2573.35528	100.92600
63300.00000	100.86293	2571.15903	100.86293
63350.00000	100.76068	2569.29918	100.76068
63400.00000	100.68196	2567.56382	100.68196
63450.00000	100.57240	2565.16497	100.57240
63500.00000	100.61141	2563.49917	100.61141
63550.00000	100.48671	2561.88235	100.48671
63600.00000	100.58039	2560.00860	100.58039
63650.00000	100.61526	2558.43294	100.61526
63700.00000	100.58789	2555.61056	100.58789
63750.00000	100.69383	2553.95314	100.69383
63800.00000	100.72730	2551.92567	100.72730
63850.00000	100.91537	2549.08215	100.91537
63900.00000	101.09171	2547.18364	101.09171
63950.00000	101.18346	2544.51665	101.18346
64000.00000	101.34870	2541.78006	101.34870
64050.00000	101.44346	2538.89865	101.44346
64100.00000	101.62090	2535.65298	101.62090
64150.00000	101.74534	2532.46254	101.74534
64200.00000	101.87118	2529.19604	101.87118
64250.00000	102.01854	2525.26640	102.01854
64300.00000	102.13721	2521.19370	102.13721
64350.00000	102.18948	2517.24289	102.18948
64400.00000	102.25895	2512.82305	102.25895
64450.00000	102.28630	2508.73312	102.28630
64500.00000	102.28233	2504.13582	102.28233
64550.00000	102.13008	2499.60112	102.13008
64600.00000	101.97297	2494.95822	101.97297
64650.00000	101.76718	2490.66582	101.76718
64700.00000	101.49557	2486.33263	101.49557
64750.00000	101.28104	2483.47166	101.28104
64800.00000	101.09169	2479.85801	101.09169
64850.00000	100.99809	2476.14443	100.99809
64900.00000	100.80018	2473.59768	100.80018
64950.00000	100.71062	2470.15095	100.71062
65000.00000	100.61580	2465.95730	100.61580
65050.00000	100.49641	2462.83466	100.49641
65100.00000	100.30087	2457.89162	100.30087
65150.00000	100.00260	2453.07613	100.00260
65200.00000	99.70278	2448.17383	99.70278
65250.00000	99.28148	2443.75632	99.28148
65300.00000	98.66078	2438.47263	98.66078
65350.00000	98.00840	2434.77469	98.00840
65400.00000	97.12231	2432.03964	97.12231
65450.00000	96.27768	2429.59006	96.27768
65500.00000	95.28422	2429.36419	95.28422
65550.00000	94.41505	2430.97203	94.41505
65600.00000	93.81456	2434.69047	93.81456
65650.00000	93.25605	2438.06138	93.25605
65700.00000	93.25037	2442.53438	93.25037
65750.00000	93.35858	2444.52533	93.35858
65800.00000	93.54254	2446.61138	93.54254
65850.00000	94.05793	2448.44355	94.05793
65900.00000	94.31733	2449.19479	94.31733
65950.00000	94.76852	2448.49920	94.76852
66000.00000	95.24994	2447.76239	95.24994
66050.00000	95.71926	2447.81339	95.71926
66100.00000	96.25752	2445.87735	96.25752
66150.00000	96.77493	2443.35187	96.77493
66200.00000	97.26137	2439.72860	97.26137
66250.00000	97.60196	2436.02530	97.60196
66300.00000	97.94682	2430.91500	97.94682
66350.00000	98.15854	2426.19260	98.15854
66400.00000	98.25584	2420.51467	98.25584
66450.00000	98.20700	2415.87802	98.20700
66500.00000	98.17846	2410.79980	98.17846
66550.00000	97.94180	2406.49054	97.94180
66600.00000	97.77332	2402.74861	97.77332
66650.00000	97.48298	2398.81046	97.48298
66700.00000	97.32808	2395.52998	97.32808
66750.00000	97.06162	2393.00233	97.06162
66800.00000	96.83407	2390.43445	96.83407
66850.00000	96.66613	2387.08937	96.66613
66900.00000	96.52019	2385.44054	96.52019
66950.00000	96.33355	2383.05061	96.33355
67000.00000	96.25266	2380.16106	96.25266
67050.00000	95.99008	2378.29826	95.99008
67100.00000	95.86298	2374.89701	95.86298
67150.00000	95.68420	2373.70299	95.68420
67200.00000	95.71333	2371.62151	95.71333
67250.00000	95.51675	2370.19562	95.51675
67300.00000	95.34428	2368.39887	95.34428
67350.00000	95.32664	2366.95011	95.32664
67400.00000	95.29222	2365.22155	95.29222
67450.00000	95.15265	2362.18691	95.15265
67500.00000	95.26583	2360.12564	95.26583
67550.00000	95.27790	2357.84167	95.27790
67600.00000	95.28166	2355.83987	95.28166
67650.00000	95.18237	2353.03229	95.18237
67700.00000	95.17752	2350.44215	95.17752
67750.00000	95.13273	2347.43465	95.13273
67800.00000	94.99226	2344.82400	94.99226
67850.00000	94.85336	2342.31057	94.85336
67900.00000	94.66172	2340.00474	94.66172
67950.00000	94.58507	2338.13734	94.58507
68000.00000	94.43406	2335.22716	94.43406
68050.00000	94.20350	2333.31884	94.20350
68100.00000	94.11904	2331.71692	94.11904
68150.00000	93.93521	2330.14403	93.93521
68200.00000	93.94953	2328.92602	93.94953
68250.00000	93.83984	2328.15231	93.83984
68300.00000	93.85584	2326.71609	93.85584
68350.00000	93.75155	2325.74696	93.75155
68400.00000	93.82240	2324.60795	93.82240
68450.00000	93.78347	2323.40598	93.78347
68500.00000	94.02673	2321.98181	94.02673
68550.00000	94.19729	2320.49787	94.19729
68600.00000	94.37189	2319.13372	94.37189
68650.00000	94.56738	2317.70880	94.56738
68700.00000	94.85780	2315.47459	94.85780
68750.00000	95.11028	2312.97603	95.11028
68800.00000	95.35582	2310.03468	95.35582
68850.00000	95.66310	2307.47546	95.66310
68900.00000	95.91342	2303.98133	95.91342
68950.00000	96.14911	2300.15412	96.14911
69000.00000	96.44355	2296.26277	96.44355
69050.00000	96.64388	2291.76294	96.64388
69100.00000	96.86855	2287.38808	96.86855
69150.00000	97.01226	2282.31617	97.01226
69200.00000	97.08033	2277.33802	97.08033
69250.00000	97.15977	2272.72511	97.15977
69300.00000	97.19418	2267.52062	97.19418
69350.00000	97.22994	2262.20173	97.22994
69400.00000	97.14162	2256.99269	97.14162
69450.00000	97.13193	2251.09682	97.13193
69500.00000	97.02348	2245.39278	97.02348
69550.00000	96.92229	2239.32513	96.92229
69600.00000	96.64631	2233.34961	96.64631
69650.00000	96.34832	2227.25250	96.34832
69700.00000	95.99013	2220.83032	95.99013
69750.00000	95.55589	2214.68817	95.55589
69800.00000	95.01470	2208.54398	95.01470
69850.00000	94.35243	2202.71473	94.35243
69900.00000	93.61891	2197.67872	93.61891
69950.00000	92.79360	2192.13208	92.79360
70000.00000	91.88747	2188.17315	91.88747
70050.00000	90.84374	2185.14383	90.84374
70100.00000	89.69766	2181.78605	89.69766
70150.00000	88.58688	2180.21559	88.58688
70200.00000	87.37294	2179.72092	87.37294
70250.00000	86.29077	2181.83560	86.29077
70300.00000	85.12914	2185.28622	85.12914
70350.00000	84.17904	2190.84649	84.17904
70400.00000	83.87977	2195.66341	83.87977
70450.00000	84.08802	2201.71005	84.08802
70500.00000	83.79632	2206.63470	83.79632
70550.00000	84.28134	2211.36198	84.28134
70600.00000	84.85261	2213.30127	84.85261
70650.00000	85.20715	2214.10949	85.20715
70700.00000	85.70587	2214.55900	85.70587
70750.00000	86.12946	2214.61783	86.12946
70800.00000	86.68591	2212.18092	86.68591
70850.00000	86.85002	2210.64923	86.85002
70900.00000	87.37362	2209.88240	87.37362
70950.00000	87.90879	2207.55223	87.90879
71000.00000	87.91008	2206.95086	87.91008
71050.00000	88.45026	2203.30436	88.45026
71100.00000	88.71123	2200.53074	88.71123
71150.00000	89.10479	2198.36577	89.10479
71200.00000	89.51570	2195.49432	89.51570
71250.00000	89.95120	2192.22786	89.95120
71300.00000	90.16111	2186.85761	90.16111
71350.00000	90.44412	2182.84219	90.44412
71400.00000	90.64500	2176.23015	90.64500
71450.00000	90.84630	2172.04555	90.84630
71500.00000	90.81989	2166.91391	90.81989
71550.00000	90.92170	2161.71262	90.92170
71600.00000	90.88034	2156.10639	90.88034
71650.00000	90.78261	2150.24627	90.78261
71700.00000	90.56136	2143.13570	90.56136
71750.00000	90.50600	2139.02022	90.50600
71800.00000	90.27412	2132.70217	90.27412
71850.00000	89.73668	2127.58569	89.73668
71900.00000	89.33606	2123.46011	89.33606
71950.00000	88.73898	2116.18381	88.73898
72000.00000	88.21163	2113.65509	88.21163
72050.00000	87.66165	2112.04877	87.66165
72100.00000	87.14751	2108.15204	87.14751
72150.00000	87.04201	2106.75826	87.04201
72200.00000	86.81776	2103.04830	86.81776
72250.00000	86.28802	2098.13501	86.28802
72300.00000	86.30845	2094.78944	86.30845
72350.00000	85.56877	2090.17121	85.56877
72400.00000	85.59586	2085.76105	85.59586
72450.00000	84.80960	2085.04557	84.80960
72500.00000	84.04567	2079.08460	84.04567
72550.00000	83.67450	2074.34296	83.67450
72600.00000	82.80493	2071.49811	82.80493
72650.00000	81.81125	2065.28927	81.81125
72700.00000	81.42530	2068.25151	81.42530
72750.00000	80.19523	2062.51429	80.19523
72800.00000	79.05876	2063.17208	79.05876
72850.00000	77.94175	2062.27607	77.94175
72900.00000	76.37268	2069.55461	76.37268
72950.00000	75.51166	2075.67119	75.51166
73000.00000	75.78627	2080.22101	75.78627
73050.00000	75.27337	2088.92860	75.27337
73100.00000	76.18127	2090.06453	76.18127
73150.00000	76.28349	2097.28962	76.28349
73200.00000	77.21973	2093.33422	77.21973
73250.00000	77.44138	2088.78518	77.44138
73300.00000	78.01887	2093.98608	78.01887
73350.00000	78.93530	2091.52503	78.93530
73400.00000	79.18951	2086.11301	79.18951
73450.00000	78.45250	2082.83936	78.45250
73500.00000	78.84449	2086.93420	78.84449
73550.00000	78.96114	2081.71190	78.96114
73600.00000	79.42308	2078.93900	79.42308
73650.00000	79.22825	2078.68796	79.22825
73700.00000	79.83519	2073.34306	79.83519
73750.00000	79.84053	2070.23213	79.84053
73800.00000	80.33942	2070.59555	80.33942
73850.00000	80.85096	2068.51758	80.85096
73900.00000	80.70045	2058.14629	80.70045
73950.00000	81.53557	2054.51515	81.53557
74000.00000	81.36914	2046.20965	81.36914
74050.00000	81.91406	2038.27449	81.91406
74100.00000	81.74305	2031.08666	81.74305
74150.00000	81.76890	2021.64534	81.76890
74200.00000	81.76131	2013.12368	81.76131
74250.00000	81.05686	2001.59321	81.05686
74300.00000	81.89676	1979.17179	81.89676
74350.00000	81.59888	1963.55836	81.59888
74400.00000	78.58594	1906.78436	78.58594
74450.00000	75.71434	1732.24862	75.71434
74500.00000	79.38193	1659.90715	79.38193
74550.00000	78.44760	1627.15973	78.44760
74600.00000	77.13590	1604.75681	77.13590
74650.00000	77.18844	1588.90319	77.18844
74700.00000	76.45206	1571.00268	76.45206
74750.00000	76.19308	1555.40719	76.19308
74800.00000	76.96963	1539.30679	76.96963
74850.00000	76.76575	1518.65521	76.76575
74900.00000	76.44463	1506.71821	76.44463
74950.00000	76.60164	1490.18705	76.60164
75000.00000	77.40147	1479.12307	77.40147
75050.00000	77.90650	1460.35557	77.90650
75100.00000	77.39458	1463.83601	77.39458
75150.00000	77.59213	1446.60051	77.59213
75200.00000	78.39521	1439.00650	78.39521
75250.00000	78.40042	1428.98304	78.40042
75300.00000	78.39542	1416.52909	78.39542
75350.00000	78.26308	1419.59546	78.26308
75400.00000	77.96419	1410.43459	77.96419
75450.00000	79.05213	1407.42368	79.05213
75500.00000	78.57010	1407.25954	78.57010
75550.00000	79.28848	1396.71839	79.28848
75600.00000	79.92194	1393.79475	79.92194
75650.00000	79.26426	1390.28025	79.26426
75700.00000	80.39931	1384.55502	80.39931
75750.00000	80.05268	1386.38607	80.05268
75800.00000	79.24017	1374.00797	79.24017
75850.00000	79.95664	1374.51054	79.95664
75900.00000	80.00152	1372.57251	80.00152
75950.00000	80.44686	1370.57462	80.44686
76000.00000	80.50710	1369.25490	80.50710
76050.00000	80.12143	1362.35329	80.12143
76100.00000	80.85063	1360.71334	80.85063
76150.00000	80.35889	1358.50601	80.35889
76200.00000	81.45482	1352.28138	81.45482
76250.00000	81.12503	1352.28697	81.12503
76300.00000	80.88086	1349.39868	80.88086
76350.00000	81.89144	1344.60406	81.89144
76400.00000	81.77873	1346.25586	81.77873
76450.00000	81.66336	1337.55910	81.66336
76500.00000	82.69941	1337.48780	82.69941
76550.00000	81.91387	1332.88801	81.91387
76600.00000	82.83930	1328.41383	82.83930
76650.00000	83.50743	1330.70301	83.50743
76700.00000	82.20433	1325.53233	82.20433
76750.00000	83.12727	1323.07526	83.12727
76800.00000	83.43101	1323.20593	83.43101
76850.00000	83.13507	1317.95780	83.13507
76900.00000	83.88767	1315.41233	83.88767
76950.00000	83.24064	1312.55694	83.24064
77000.00000	84.27997	1304.10709	84.27997
77050.00000	84.14855	1306.37357	84.14855
77100.00000	83.37585	1300.04086	83.37585
77150.00000	84.24925	1293.30937	84.24925
77200.00000	83.93458	1294.64794	83.93458
77250.00000	83.56121	1287.35521	83.56121
77300.00000	84.54940	1288.03243	84.54940
77350.00000	83.54511	1283.42512	83.54511
77400.00000	83.93836	1274.67796	83.93836
77450.00000	83.50242	1278.82786	83.50242
77500.00000	83.01536	1269.60265	83.01536
77550.00000	84.02718	1263.53882	84.02718
77600.00000	83.11186	1272.94116	83.11186
77650.00000	83.39343	1258.11515	83.39343
77700.00000	83.79633	1266.19963	83.79633
77750.00000	82.76394	1259.78304	82.76394
77800.00000	84.08957	1254.81042	84.08957
77850.00000	83.31639	1255.57245	83.31639
77900.00000	82.83362	1248.43414	82.83362
77950.00000	84.36985	1251.52741	84.36985
78000.00000	83.08105	1249.90148	83.08105
78050.00000	83.52277	1237.90310	83.52277
78100.00000	84.29410	1242.39903	84.29410
78150.00000	82.85039	1238.92288	82.85039
78200.00000	84.10203	1232.24491	84.10203
78250.00000	83.46972	1236.88690	83.46972
78300.00000	83.39582	1229.76289	83.39582
78350.00000	83.99458	1226.84821	83.99458
78400.00000	83.76840	1226.26860	83.76840
78450.00000	84.16060	1218.61629	84.16060
78500.00000	83.82872	1220.84826	83.82872
78550.00000	83.70240	1213.05953	83.70240
78600.00000	84.05870	1210.71970	84.05870
78650.00000	83.48379	1210.58056	83.48379
78700.00000	83.81632	1203.83076	83.81632
78750.00000	84.13764	1202.28258	84.13764
78800.00000	83.15514	1196.64312	83.15514
78850.00000	84.08264	1194.18310	84.08264
78900.00000	83.68072	1193.75680	83.68072
78950.00000	83.31092	1184.25295	83.31092
79000.00000	83.90930	1186.28191	83.90930
79050.00000	83.06257	1182.76435	83.06257
79100.00000	83.59848	1176.06465	83.59848
79150.00000	83.39402	1177.97083	83.39402
79200.00000	82.76173	1169.16976	82.76173
79250.00000	83.46220	1168.57135	83.46220
79300.00000	82.39088	1165.29712	82.39088
79350.00000	82.57425	1159.54627	82.57425
79400.00000	82.47140	1162.74000	82.47140
79450.00000	82.12076	1157.06674	82.12076
79500.00000	82.43554	1155.09427	82.43554
79550.00000	81.70513	1153.48242	81.70513
79600.00000	81.91533	1146.65841	81.91533
79650.00000	82.10889	1147.96995	82.10889
79700.00000	81.17204	1141.80527	81.17204
79750.00000	81.89481	1141.89333	81.89481
79800.00000	81.20780	1137.99903	81.20780
79850.00000	81.04154	1133.74783	81.04154
79900.00000	80.88536	1134.29239	80.88536
79950.00000	80.48799	1130.00925	80.48799
80000.00000	80.94250	1128.14175	80.94250
80050.00000	80.37184	1126.57939	80.37184
80100.00000	80.18897	1119.47850	80.18897
80150.00000	80.30569	1120.92991	80.30569
80200.00000	79.77992	1116.57244	79.77992
80250.00000	80.10631	1112.54461	80.10631
80300.00000	79.13207	1111.31851	79.13207
80350.00000	78.85626	1105.15174	78.85626
80400.00000	78.31467	1106.18079	78.31467
80450.00000	77.79647	1105.66063	77.79647
80500.00000	77.64732	1103.39191	77.64732
80550.00000	76.72813	1103.79486	76.72813
80600.00000	76.62415	1101.01609	76.62415
80650.00000	76.60634	1105.40775	76.60634
80700.00000	75.71017	1105.65795	75.71017
80750.00000	76.39398	1105.16555	76.39398
80800.00000	75.76768	1106.45459	75.76768
80850.00000	75.92252	1106.79324	75.92252
80900.00000	76.25313	1108.40492	76.25313
80950.00000	75.94967	1110.16873	75.94967
81000.00000	76.27462	1108.95383	76.27462
81050.00000	76.91887	1106.38549	76.91887
81100.00000	76.75853	1102.23841	76.75853
81150.00000	76.81681	1102.26398	76.81681
81200.00000	76.52210	1097.66832	76.52210
81250.00000	76.40583	1095.85173	76.40583
81300.00000	76.03915	1095.11238	76.03915
81350.00000	75.54523	1092.61952	75.54523
81400.00000	75.42675	1094.91767	75.42675
81450.00000	75.33535	1094.80412	75.33535
81500.00000	74.97441	1095.63246	74.97441
81550.00000	74.95263	1098.45756	74.95263
81600.00000	74.87508	1097.18854	74.87508
81650.00000	75.21452	1098.48901	75.21452
81700.00000	75.43721	1100.89820	75.43721
81750.00000	75.93777	1099.87565	75.93777
81800.00000	75.68178	1098.44530	75.68178
81850.00000	75.97789	1100.98200	75.97789
81900.00000	76.67654	1098.65553	76.67654
81950.00000	76.40864	1096.47601	76.40864
82000.00000	76.77442	1094.33224	76.77442
82050.00000	76.73763	1093.32884	76.73763
82100.00000	77.09288	1091.71578	77.09288
82150.00000	76.84215	1089.09773	76.84215
82200.00000	77.18683	1087.62991	77.18683
82250.00000	77.03043	1085.56787	77.03043
82300.00000	76.79683	1083.53379	76.79683
82350.00000	76.92392	1082.89606	76.92392
82400.00000	76.42070	1082.72997	76.42070
82450.00000	75.54997	1081.96794	75.54997
82500.00000	75.60185	1085.79577	75.60185
82550.00000	74.84311	1089.80667	74.84311
82600.00000	74.66991	1097.65212	74.66991
82650.00000	75.50092	1108.17089	75.50092
82700.00000	76.59658	1116.54914	76.59658
82750.00000	78.92419	1117.78474	78.92419
82800.00000	80.84716	1116.31288	80.84716
82850.00000	82.41933	1109.35532	82.41933
82900.00000	83.49108	1104.06840	83.49108
82950.00000	84.35663	1095.47604	84.35663
83000.00000	85.14682	1090.07281	85.14682
83050.00000	85.80603	1084.24388	85.80603
83100.00000	86.50190	1078.37175	86.50190
83150.00000	86.97943	1073.01396	86.97943
83200.00000	87.46617	1068.89096	87.46617
83250.00000	87.91280	1064.43297	87.91280
83300.00000	88.49700	1059.35154	88.49700
83350.00000	88.85375	1056.19839	88.85375
83400.00000	89.30108	1050.78476	89.30108
83450.00000	89.80757	1046.30345	89.80757
83500.00000	90.19391	1041.11902	90.19391
83550.00000	90.50850	1035.74301	90.50850
83600.00000	90.98545	1030.64189	90.98545
83650.00000	91.20720	1025.09026	91.20720
83700.00000	91.53753	1019.10462	91.53753
83750.00000	91.81909	1012.85522	91.81909
83800.00000	92.10544	1006.16197	92.10544
83850.00000	92.18732	999.58159	92.18732
83900.00000	92.36886	992.73863	92.36886
83950.00000	92.38424	985.84855	92.38424
84000.00000	92.37912	977.65576	92.37912
84050.00000	92.15838	970.56144	92.15838
84100.00000	91.92145	963.59212	91.92145
84150.00000	91.61435	956.16095	91.61435
84200.00000	91.02890	950.36147	91.02890
84250.00000	90.38585	943.84317	90.38585
84300.00000	89.67429	938.90241	89.67429
84350.00000	88.94462	936.59340	88.94462
84400.00000	88.44181	935.04933	88.44181
84450.00000	88.01441	934.73012	88.01441
84500.00000	87.91436	935.54046	87.91436
84550.00000	88.02282	935.84898	88.02282
84600.00000	88.29242	933.82432	88.29242
84650.00000	88.68872	930.81386	88.68872
84700.00000	89.08103	927.37343	89.08103
84750.00000	89.31248	922.13288	89.31248
84800.00000	89.56397	915.71716	89.56397
84850.00000	89.53627	910.05928	89.53627
84900.00000	89.56306	904.00237	89.56306
84950.00000	89.49013	896.74106	89.49013
85000.00000	89.31045	891.00186	89.31045
85050.00000	89.00796	885.45115	89.00796
85100.00000	88.75462	879.70165	88.75462
85150.00000	88.35051	874.26819	88.35051
85200.00000	87.90496	868.70482	87.90496
85250.00000	87.90691	862.96236	87.90691
85300.00000	87.00754	858.91188	87.00754
85350.00000	86.54095	854.33215	86.54095
85400.00000	85.99709	851.05034	85.99709
85450.00000	85.39244	847.06865	85.39244
85500.00000	85.06262	842.89110	85.06262
85550.00000	84.45028	839.72197	84.45028
85600.00000	83.91927	835.89485	83.91927
85650.00000	83.50249	834.17223	83.50249
85700.00000	82.98283	829.43252	82.98283
85750.00000	82.21564	828.59207	82.21564
85800.00000	81.69393	827.41748	81.69393
85850.00000	80.92264	825.38978	80.92264
85900.00000	80.46253	822.69226	80.46253
85950.00000	80.15751	822.37606	80.15751
86000.00000	79.66714	823.26648	79.66714
86050.00000	79.37027	820.49567	79.37027
86100.00000	79.20076	823.19086	79.20076
86150.00000	78.92847	820.46954	78.92847
86200.00000	78.60705	821.54715	78.60705
86250.00000	78.32944	823.40653	78.32944
86300.00000	78.13257	820.60711	78.13257
86350.00000	78.16717	817.29769	78.16717
86400.00000	77.76908	815.30908	77.76908
86450.00000	77.55024	818.15429	77.55024
86500.00000	77.45795	818.59148	77.45795
86550.00000	77.96477	812.27004	77.96477
86600.00000	77.34036	812.19265	77.34036
86650.00000	77.68881	811.56778	77.68881
86700.00000	77.73675	810.09204	77.73675
86750.00000	77.71015	809.08360	77.71015
86800.00000	77.79637	803.53126	77.79637
86850.00000	77.21292	804.06705	77.21292
86900.00000	77.21813	799.18790	77.21813
86950.00000	77.02773	798.19071	77.02773
87000.00000	76.73080	797.37251	76.73080
87050.00000	76.83678	792.66687	76.83678
87100.00000	76.24476	790.60608	76.24476
87150.00000	75.84224	786.98969	75.84224
87200.00000	76.01671	787.08242	76.01671
87250.00000	76.01455	785.46897	76.01455
87300.00000	75.08847	784.15402	75.08847
87350.00000	74.97332	779.78247	74.97332
87400.00000	74.40674	779.94724	74.40674
87450.00000	74.09187	781.55779	74.09187
87500.00000	73.70434	781.47854	73.70434
87550.00000	73.75534	777.62225	73.75534
87600.00000	73.17619	777.36870	73.17619
87650.00000	72.82296	778.15744	72.82296
87700.00000	73.01586	778.00581	73.01586
87750.00000	72.78206	776.00626	72.78206
87800.00000	71.64306	777.61901	71.64306
87850.00000	72.14949	780.50460	72.14949
87900.00000	72.32936	778.70891	72.32936
87950.00000	71.90114	782.66764	71.90114
88000.00000	71.71248	779.20120	71.71248
88050.00000	71.52006	776.16527	71.52006
88100.00000	71.63255	778.12053	71.63255
88150.00000	72.07885	779.05458	72.07885
88200.00000	72.14053	778.30448	72.14053
88250.00000	71.55741	780.13522	71.55741
88300.00000	72.44967	779.45200	72.44967
88350.00000	71.99037	779.03540	71.99037
88400.00000	71.75429	776.87619	71.75429
88450.00000	72.44545	776.69134	72.44545
88500.00000	72.48589	774.10973	72.48589
88550.00000	72.26748	775.28004	72.26748
88600.00000	71.79089	766.73117	71.79089
88650.00000	72.57079	768.03556	72.57079
88700.00000	72.14023	773.18046	72.14023
88750.00000	72.90485	769.83814	72.90485
88800.00000	72.65097	769.68144	72.65097
88850.00000	72.74727	764.63278	72.74727
88900.00000	73.18198	765.01601	73.18198
88950.00000	72.45282	761.96625	72.45282
89000.00000	72.73030	763.75742	72.73030
89050.00000	72.46575	759.63696	72.46575
89100.00000	72.58325	761.94900	72.58325
89150.00000	72.00695	759.62223	72.00695
89200.00000	72.29432	761.29843	72.29432
89250.00000	72.07688	754.38026	72.07688
89300.00000	72.18224	757.83075	72.18224
89350.00000	72.21663	758.16765	72.21663
89400.00000	72.79539	759.85403	72.79539
89450.00000	73.27668	759.39749	73.27668
89500.00000	73.31301	755.43848	73.31301
89550.00000	72.96347	757.00279	72.96347
89600.00000	73.34833	753.48057	73.34833
89650.00000	73.78266	754.89698	73.78266
89700.00000	73.40259	755.44950	73.40259
89750.00000	73.90542	752.93967	73.90542
89800.00000	73.77723	753.57337	73.77723
89850.00000	73.90802	753.56249	73.90802
89900.00000	74.60442	751.21194	74.60442
89950.00000	75.02094	754.52251	75.02094
90000.00000	74.64368	760.08647	74.64368
90050.00000	75.65560	765.85424	75.65560
90100.00000	78.06143	764.24024	78.06143
90150.00000	79.41558	764.99072	79.41558
90200.00000	82.00824	758.16426	82.00824
90250.00000	83.41468	734.40685	83.41468
90300.00000	83.51827	716.14177	83.51827
90350.00000	82.10028	704.22776	82.10028
90400.00000	81.18331	701.44700	81.18331
90450.00000	80.49025	697.12059	80.49025
90500.00000	79.70901	692.54635	79.70901
90550.00000	79.33949	693.07902	79.33949
90600.00000	79.24341	691.47549	79.24341
90650.00000	79.28423	689.59245	79.28423
90700.00000	79.02097	687.40396	79.02097
90750.00000	79.24649	690.40578	79.24649
90800.00000	79.53810	683.63574	79.53810
90850.00000	79.55124	684.71408	79.55124
90900.00000	80.09049	680.62325	80.09049
90950.00000	79.86427	681.41341	79.86427
91000.00000	80.46643	676.20648	80.46643
91050.00000	80.47409	674.02166	80.47409
91100.00000	81.04817	671.02837	81.04817
91150.00000	81.16997	668.21637	81.16997
91200.00000	81.41238	663.86443	81.41238
91250.00000	81.43364	661.36795	81.43364
91300.00000	81.66199	659.79996	81.66199
91350.00000	81.81757	655.01977	81.81757
91400.00000	82.12949	650.41203	82.12949
91450.00000	82.13932	647.24565	82.13932
91500.00000	82.54130	642.47582	82.54130
91550.00000	82.80021	640.84549	82.80021
91600.00000	83.03094	636.20769	83.03094
91650.00000	82.85577	630.98083	82.85577
91700.00000	83.14755	627.13128	83.14755
91750.00000	83.44613	624.23845	83.44613
91800.00000	83.37477	619.67056	83.37477
91850.00000	83.65361	613.77218	83.65361
91900.00000	83.94705	610.18650	83.94705
91950.00000	83.79653	605.95798	83.79653
92000.00000	84.08791	601.63742	84.08791
92050.00000	83.96028	596.46974	83.96028
92100.00000	84.02568	591.01925	84.02568
92150.00000	84.09554	587.58983	84.09554
92200.00000	84.01245	582.79002	84.01245
92250.00000	84.07519	578.45731	84.07519
92300.00000	84.07817	573.85539	84.07817
92350.00000	84.07275	569.53437	84.07275
92400.00000	84.03463	563.09894	84.03463
92450.00000	83.83896	559.28351	83.83896
92500.00000	83.66110	554.82819	83.66110
92550.00000	83.66555	549.72407	83.66555
92600.00000	83.61307	545.26150	83.61307
92650.00000	83.47284	540.98236	83.47284
92700.00000	83.19239	536.77744	83.19239
92750.00000	83.14636	534.24912	83.14636
92800.00000	82.97381	527.00469	82.97381
92850.00000	82.73221	524.60111	82.73221
92900.00000	82.74322	518.52155	82.74322
92950.00000	82.40899	515.89444	82.40899
93000.00000	82.00036	510.30198	82.00036
93050.00000	81.89491	505.82499	81.89491
93100.00000	81.62276	503.06486	81.62276
93150.00000	81.37609	498.22495	81.37609
93200.00000	81.30119	493.41975	81.30119
93250.00000	80.92482	492.60218	80.92482
93300.00000	80.85274	485.82707	80.85274
93350.00000	80.38629	481.41078	80.38629
93400.00000	80.05638	478.06350	80.05638
93450.00000	79.58883	473.95930	79.58883
93500.00000	79.30180	471.10303	79.30180
93550.00000	78.92958	465.19667	78.92958
93600.00000	78.97341	462.15320	78.97341
93650.00000	78.69842	457.11673	78.69842
93700.00000	78.04241	455.54450	78.04241
93750.00000	77.48489	453.10623	77.48489
93800.00000	77.36754	450.07823	77.36754
93850.00000	77.33250	444.10216	77.33250
93900.00000	76.97989	442.84766	76.97989
93950.00000	76.66243	439.73176	76.66243
94000.00000	76.62219	437.06238	76.62219
94050.00000	75.99479	429.06867	75.99479
94100.00000	75.97978	428.92725	75.97978
94150.00000	75.80746	428.54201	75.80746
94200.00000	75.48945	423.14286	75.48945
94250.00000	75.71305	414.09374	75.71305
94300.00000	75.12056	411.94761	75.12056
94350.00000	75.82631	411.71841	75.82631
94400.00000	75.49527	405.79002	75.49527
94450.00000	75.44092	403.05922	75.44092
94500.00000	74.95738	399.85823	74.95738
94550.00000	74.65591	390.63489	74.65591
94600.00000	75.44413	389.44079	75.44413
94650.00000	74.54668	380.69452	74.54668
94700.00000	74.98501	379.02929	74.98501
94750.00000	74.54687	372.68959	74.54687
94800.00000	74.60255	371.67244	74.60255
94850.00000	74.12778	365.08313	74.12778
94900.00000	73.95661	357.81980	73.95661
94950.00000	73.38160	345.11214	73.38160
95000.00000	74.08654	347.05989	74.08654
95050.00000	73.47313	334.83095	73.47313
95100.00000	73.49794	335.51106	73.49794
95150.00000	72.82123	332.24943	72.82123
95200.00000	71.05694	322.17946	71.05694
95250.00000	72.15229	318.39132	72.15229
95300.00000	71.60718	318.68381	71.60718
95350.00000	70.95067	310.32216	70.95067
95400.00000	69.98585	296.29335	69.98585
95450.00000	69.47955	303.58474	69.47955
95500.00000	68.20798	301.71591	68.20798
95550.00000	67.74245	300.63561	67.74245
95600.00000	69.53201	281.38370	69.53201
95650.00000	66.85952	289.94755	66.85952
95700.00000	67.16229	277.11426	67.16229
95750.00000	67.68039	297.75939	67.68039
95800.00000	67.83548	292.24519	67.83548
95850.00000	68.99708	289.13698	68.99708
95900.00000	69.61549	281.73997	69.61549
95950.00000	67.73122	277.67941	67.73122
96000.00000	68.22484	280.17157	68.22484
96050.00000	67.98806	265.64825	67.98806
96100.00000	69.58003	267.05731	69.58003
96150.00000	69.56352	247.36973	69.56352
96200.00000	69.95397	233.65769	69.95397
96250.00000	71.67803	221.63100	71.67803
96300.00000	69.99116	219.57467	69.99116
96350.00000	70.71515	202.31238	70.71515
96400.00000	69.01807	195.30971	69.01807
96450.00000	71.13766	186.14102	71.13766
96500.00000	71.65186	180.41665	71.65186
96550.00000	67.87118	175.47034	67.87118
96600.00000	68.26773	142.21521	68.26773
96650.00000	68.56411	130.09401	68.56411
96700.00000	68.71747	132.26723	68.71747
96750.00000	70.82264	130.81260	70.82264
96800.00000	68.72830	125.21862	68.72830
96850.00000	69.63808	98.29473	69.63808
96900.00000	71.01272	96.88270	71.01272
96950.00000	71.26696	91.52483	71.26696
97000.00000	72.20821	94.60090	72.20821
97050.00000	71.47326	90.28904	71.47326
97100.00000	72.45575	70.78864	72.45575
97150.00000	74.34383	81.35795	74.34383
97200.00000	72.68949	52.55217	72.68949
97250.00000	72.79915	26.91899	72.79915
97300.00000	73.48990	39.32920	73.48990
97350.00000	68.89205	-12.37547	68.89205
97400.00000	70.22066	-13.53541	70.22066
97450.00000	67.80307	-13.16716	67.80307
97500.00000	64.61910	-9.59639	64.61910
97550.00000	58.74764	 6.51966	58.74764
97600.00000	64.47725	 0.56507	64.47725
97650.00000	61.00687	-7.48960	61.00687
97700.00000	62.90063	 8.45247	62.90063
97750.00000	62.18614	 2.41061	62.18614
97800.00000	61.64300	-15.16265	61.64300
97850.00000	64.81550	-3.18577	64.81550
97900.00000	63.23885	-10.36884	63.23885
97950.00000	58.82889	30.13479	58.82889
98000.00000	58.63502	-22.35469	58.63502
98050.00000	62.07345	-4.43425	62.07345
98100.00000	61.67546	11.25917	61.67546
98150.00000	58.86609	 5.82735	58.86609
98200.00000	59.28367	-4.06912	59.28367
98250.00000	61.95989	15.51340	61.95989
98300.00000	61.16504	 8.82288	61.16504
98350.00000	62.68476	14.77626	62.68476
98400.00000	58.56660	22.53232	58.56660
98450.00000	59.28833	 1.47944	59.28833
98500.00000	60.96215	20.14891	60.96215
98550.00000	58.30097	-2.59876	58.30097
98600.00000	63.86467	-4.07370	63.86467
98650.00000	60.18987	22.38477	60.18987
98700.00000	59.93613	-12.66139	59.93613
98750.00000	59.79367	-5.64785	59.79367
98800.00000	62.47265	-11.69862	62.47265
98850.00000	60.96392	-13.38326	60.96392
98900.00000	61.37930	-25.39038	61.37930
98950.00000	52.21896	-6.82404	52.21896
99000.00000	59.98164	 0.56084	59.98164
99050.00000	49.07672	-9.66654	49.07672
99100.00000	59.10903	-53.32693	59.10903
99150.00000	57.39785	 4.86476	57.39785
99200.00000	57.99260	-16.08672	57.99260
99250.00000	59.85643	-38.66372	59.85643
99300.00000	52.80676	-49.11534	52.80676
99350.00000	48.45748	-55.37164	48.45748
99400.00000	42.81337	 5.55415	42.81337
99450.00000	55.57046	-31.77918	55.57046
99500.00000	53.83254	 7.55030	53.83254
99550.00000	49.47725	-40.81018	49.47725
99600.00000	57.82197	-44.38401	57.82197
99650.00000	41.62930	-13.68948	41.62930
99700.00000	44.41116	-20.74933	44.41116
99750.00000	48.00704	-82.45901	48.00704
99800.00000	51.99718	-46.41323	51.99718
99850.00000	50.16988	80.51090	50.16988
99900.00000	45.72072	-58.73806	45.72072
99950.00000	34.61089	-94.26195	34.61089
