---ACOUSTIC CALIBRATION---
Filename: C:\Data\CL0809 DATA\CL08091\RightSecondary.calib
Date: 8/9/2019 9:36:48 AM
Format: 4
Probe Tube Correction File: C:\Data\Probe Tube Calibrations\74_ProbeTube.calib
Experiment VIs: 2128
EPL_CFTS.exe V15.0.1f5 (2015)
DAQmx V15.1

Attenuation (dB): 40.000000
Min Freq (Hz): 50.000000
Max Freq (Hz): 99950.000000
Freq Step (Hz): 50.000000
Sample Rate (Hz): 200000.000000
[Smoothing]
Method=None
MA.Iterations=0
MA.Length=0
Loess.Length=0
Loess.Type=Linear
Loess.Robust=FALSE


Freq(Hz)	Mag(dB)	Phase(deg)	Unsmoothed(dB)

50.00000	88.41457	170.78878	88.41457
100.00000	70.83898	306.46130	70.83898
150.00000	56.18619	417.88996	56.18619
200.00000	60.19265	528.43865	60.19265
250.00000	49.90315	785.60707	49.90315
300.00000	66.60067	863.01243	66.60067
350.00000	67.63803	1001.68319	67.63803
400.00000	63.46879	1075.45067	63.46879
450.00000	70.74674	1114.45893	70.74674
500.00000	75.89309	1216.38319	75.89309
550.00000	81.62878	1148.12832	81.62878
600.00000	80.41389	1109.43941	80.41389
650.00000	87.46481	1097.55321	87.46481
700.00000	86.46427	1096.90064	86.46427
750.00000	90.71627	1062.60282	90.71627
800.00000	91.75745	1044.26180	91.75745
850.00000	90.92913	1033.91101	90.92913
900.00000	91.41407	1027.79275	91.41407
950.00000	92.82030	1013.40245	92.82030
1000.00000	93.00816	1006.91365	93.00816
1050.00000	93.15118	991.84479	93.15118
1100.00000	92.60576	981.64390	92.60576
1150.00000	91.76132	978.29905	91.76132
1200.00000	90.98542	980.78318	90.98542
1250.00000	91.32538	985.30274	91.32538
1300.00000	92.33750	986.51027	92.33750
1350.00000	93.16705	984.97784	93.16705
1400.00000	94.00872	984.82807	94.00872
1450.00000	94.74239	982.54228	94.74239
1500.00000	95.99511	982.65765	95.99511
1550.00000	97.31290	977.89507	97.31290
1600.00000	98.68336	974.15256	98.68336
1650.00000	99.92627	970.25309	99.92627
1700.00000	104.17823	953.89658	104.17823
1750.00000	101.39183	932.96911	101.39183
1800.00000	101.22602	927.03515	101.22602
1850.00000	100.97819	919.32760	100.97819
1900.00000	100.92905	912.72620	100.92905
1950.00000	100.43013	906.39797	100.43013
2000.00000	99.76694	900.47859	99.76694
2050.00000	98.79618	898.78597	98.79618
2100.00000	98.42199	903.86753	98.42199
2150.00000	99.66300	904.14963	99.66300
2200.00000	100.17412	895.54955	100.17412
2250.00000	99.72586	889.30207	99.72586
2300.00000	99.37520	887.65157	99.37520
2350.00000	99.36256	884.57200	99.36256
2400.00000	99.42147	882.54501	99.42147
2450.00000	99.24124	878.39113	99.24124
2500.00000	98.74473	878.66468	98.74473
2550.00000	98.93851	878.55748	98.93851
2600.00000	99.09447	877.49211	99.09447
2650.00000	99.26924	877.10931	99.26924
2700.00000	99.48310	875.45350	99.48310
2750.00000	99.72963	874.10463	99.72963
2800.00000	100.03300	871.72724	100.03300
2850.00000	100.30409	869.71167	100.30409
2900.00000	100.60931	867.07624	100.60931
2950.00000	100.88694	864.73972	100.88694
3000.00000	101.13516	862.46424	101.13516
3050.00000	101.37232	859.48784	101.37232
3100.00000	101.55680	856.49088	101.55680
3150.00000	101.57225	854.06709	101.57225
3200.00000	101.77342	851.19076	101.77342
3250.00000	101.99692	848.96546	101.99692
3300.00000	102.02470	846.64136	102.02470
3350.00000	102.24890	844.89986	102.24890
3400.00000	102.35389	842.86544	102.35389
3450.00000	102.47120	841.83296	102.47120
3500.00000	102.61869	841.05712	102.61869
3550.00000	103.26114	839.34513	103.26114
3600.00000	103.32738	836.22933	103.32738
3650.00000	103.64655	836.38957	103.64655
3700.00000	103.95433	835.45496	103.95433
3750.00000	104.59383	832.99096	104.59383
3800.00000	105.54009	831.33808	105.54009
3850.00000	106.22219	821.91586	106.22219
3900.00000	106.67270	813.88532	106.67270
3950.00000	105.93361	810.02324	105.93361
4000.00000	105.54107	810.94186	105.54107
4050.00000	105.87327	811.79736	105.87327
4100.00000	106.49136	811.90453	106.49136
4150.00000	108.06312	809.11576	108.06312
4200.00000	109.00460	804.60815	109.00460
4250.00000	109.11640	792.05696	109.11640
4300.00000	109.22909	788.92752	109.22909
4350.00000	109.63032	783.95780	109.63032
4400.00000	109.95520	777.82198	109.95520
4450.00000	110.05333	770.69050	110.05333
4500.00000	110.15382	764.44505	110.15382
4550.00000	110.04633	758.99896	110.04633
4600.00000	110.07145	753.40415	110.07145
4650.00000	110.05332	748.42596	110.05332
4700.00000	109.99517	743.53254	109.99517
4750.00000	109.94072	738.90447	109.94072
4800.00000	109.93979	734.56665	109.93979
4850.00000	109.94648	729.86280	109.94648
4900.00000	109.95001	724.48889	109.95001
4950.00000	109.92015	719.40028	109.92015
5000.00000	109.82782	713.86732	109.82782
5050.00000	109.69090	708.45163	109.69090
5100.00000	109.50461	703.06157	109.50461
5150.00000	109.24447	697.73599	109.24447
5200.00000	108.89715	692.25965	108.89715
5250.00000	108.22819	687.53842	108.22819
5300.00000	107.65159	688.59910	107.65159
5350.00000	108.18985	685.83625	108.18985
5400.00000	108.13162	679.69941	108.13162
5450.00000	107.81368	674.72773	107.81368
5500.00000	107.48034	670.37241	107.48034
5550.00000	107.17748	666.85650	107.17748
5600.00000	106.88493	662.73071	106.88493
5650.00000	106.47997	659.31629	106.47997
5700.00000	106.12578	655.92724	106.12578
5750.00000	105.80818	652.74994	105.80818
5800.00000	105.44522	649.98619	105.44522
5850.00000	105.07072	647.30207	105.07072
5900.00000	104.73038	644.67476	104.73038
5950.00000	104.41907	642.45893	104.41907
6000.00000	104.12806	640.23644	104.12806
6050.00000	103.86755	637.77565	103.86755
6100.00000	103.57490	635.37081	103.57490
6150.00000	103.25535	632.90662	103.25535
6200.00000	102.92590	630.89575	102.92590
6250.00000	102.61147	628.91195	102.61147
6300.00000	102.30075	627.14772	102.30075
6350.00000	101.98959	625.47555	101.98959
6400.00000	101.70389	624.07850	101.70389
6450.00000	101.42234	622.76009	101.42234
6500.00000	101.16672	621.67643	101.16672
6550.00000	100.94816	620.56548	100.94816
6600.00000	100.74294	619.58513	100.74294
6650.00000	100.55717	618.67478	100.55717
6700.00000	100.37988	617.94912	100.37988
6750.00000	100.28333	617.56528	100.28333
6800.00000	100.27682	616.89602	100.27682
6850.00000	100.34343	615.86622	100.34343
6900.00000	100.44137	614.06199	100.44137
6950.00000	100.45638	611.69762	100.45638
7000.00000	100.44028	608.93153	100.44028
7050.00000	100.30596	606.24152	100.30596
7100.00000	100.12678	603.59540	100.12678
7150.00000	99.89343	601.14465	99.89343
7200.00000	99.62162	599.05646	99.62162
7250.00000	99.32704	597.50041	99.32704
7300.00000	99.05852	596.26049	99.05852
7350.00000	98.78522	595.43471	98.78522
7400.00000	98.53580	595.10159	98.53580
7450.00000	98.33663	594.96704	98.33663
7500.00000	98.23212	594.99563	98.23212
7550.00000	98.17335	595.04770	98.17335
7600.00000	98.20610	595.10634	98.20610
7650.00000	98.30754	594.88475	98.30754
7700.00000	98.43139	594.15220	98.43139
7750.00000	98.58013	592.86880	98.58013
7800.00000	98.73262	591.46944	98.73262
7850.00000	98.85204	589.67255	98.85204
7900.00000	98.94740	587.51594	98.94740
7950.00000	98.98138	585.62590	98.98138
8000.00000	99.01544	583.40094	99.01544
8050.00000	99.06310	581.24950	99.06310
8100.00000	99.05731	578.90874	99.05731
8150.00000	99.06867	576.81127	99.06867
8200.00000	99.05009	574.47407	99.05009
8250.00000	99.00611	572.15385	99.00611
8300.00000	98.97249	570.11185	98.97249
8350.00000	98.88435	567.81654	98.88435
8400.00000	98.84506	565.74014	98.84506
8450.00000	98.75311	563.55534	98.75311
8500.00000	98.65620	561.40823	98.65620
8550.00000	98.53326	559.71443	98.53326
8600.00000	98.43461	557.83417	98.43461
8650.00000	98.30734	556.06254	98.30734
8700.00000	98.17002	554.46228	98.17002
8750.00000	98.05979	552.91035	98.05979
8800.00000	97.95263	551.30358	97.95263
8850.00000	97.81189	550.16790	97.81189
8900.00000	97.67706	548.87168	97.67706
8950.00000	97.56444	548.00307	97.56444
9000.00000	97.41516	547.20880	97.41516
9050.00000	97.30690	546.14111	97.30690
9100.00000	97.20683	545.50908	97.20683
9150.00000	97.14760	544.59173	97.14760
9200.00000	97.06742	544.07237	97.06742
9250.00000	96.96051	543.53624	96.96051
9300.00000	96.92784	542.77359	96.92784
9350.00000	96.90537	542.23592	96.90537
9400.00000	96.87333	541.68562	96.87333
9450.00000	96.90087	541.10639	96.90087
9500.00000	96.93516	540.40506	96.93516
9550.00000	97.00234	539.68183	97.00234
9600.00000	97.07970	539.28783	97.07970
9650.00000	97.22243	538.61567	97.22243
9700.00000	97.31422	537.56581	97.31422
9750.00000	97.46745	536.86635	97.46745
9800.00000	97.57451	536.05411	97.57451
9850.00000	97.78265	535.45447	97.78265
9900.00000	97.97879	534.78938	97.97879
9950.00000	98.19090	534.04776	98.19090
10000.00000	98.47553	533.37002	98.47553
10050.00000	98.80227	532.42326	98.80227
10100.00000	99.15736	530.94648	99.15736
10150.00000	99.41302	529.01492	99.41302
10200.00000	99.67318	527.35857	99.67318
10250.00000	99.92224	525.66616	99.92224
10300.00000	100.19973	523.91064	100.19973
10350.00000	100.47965	521.85311	100.47965
10400.00000	100.71949	519.55221	100.71949
10450.00000	101.00412	517.03794	101.00412
10500.00000	101.28193	514.14781	101.28193
10550.00000	101.52438	511.36676	101.52438
10600.00000	101.81040	507.93282	101.81040
10650.00000	102.02571	504.61726	102.02571
10700.00000	102.23603	500.78391	102.23603
10750.00000	102.42364	497.16002	102.42364
10800.00000	102.60206	493.04600	102.60206
10850.00000	102.75723	488.93546	102.75723
10900.00000	102.86599	484.96397	102.86599
10950.00000	102.92478	480.84499	102.92478
11000.00000	102.99887	476.87209	102.99887
11050.00000	102.94090	472.86175	102.94090
11100.00000	102.94112	469.04826	102.94112
11150.00000	102.87116	465.09894	102.87116
11200.00000	102.79700	461.59257	102.79700
11250.00000	102.64406	457.61035	102.64406
11300.00000	102.47974	454.18090	102.47974
11350.00000	102.31153	450.52965	102.31153
11400.00000	102.07982	446.96797	102.07982
11450.00000	101.86368	443.51433	101.86368
11500.00000	101.63192	440.24513	101.63192
11550.00000	101.38252	436.99373	101.38252
11600.00000	101.12786	434.08417	101.12786
11650.00000	100.87521	431.18311	100.87521
11700.00000	100.65630	428.43743	100.65630
11750.00000	100.39141	425.94197	100.39141
11800.00000	100.19603	423.82082	100.19603
11850.00000	99.99706	421.65053	99.99706
11900.00000	99.73689	420.08112	99.73689
11950.00000	99.57041	418.43758	99.57041
12000.00000	99.39693	417.31650	99.39693
12050.00000	99.16894	416.42356	99.16894
12100.00000	98.93892	415.41648	98.93892
12150.00000	98.71175	414.60672	98.71175
12200.00000	98.54815	413.33866	98.54815
12250.00000	98.35602	412.93590	98.35602
12300.00000	98.06740	411.94578	98.06740
12350.00000	97.94909	411.09551	97.94909
12400.00000	97.68808	409.67963	97.68808
12450.00000	97.68347	408.71902	97.68347
12500.00000	97.59195	408.00632	97.59195
12550.00000	97.52266	407.28748	97.52266
12600.00000	97.55111	405.33536	97.55111
12650.00000	97.58229	404.82889	97.58229
12700.00000	97.48697	403.18627	97.48697
12750.00000	97.49400	402.42514	97.49400
12800.00000	97.53044	401.16422	97.53044
12850.00000	97.42387	400.68038	97.42387
12900.00000	97.38175	398.60001	97.38175
12950.00000	97.52204	396.41772	97.52204
13000.00000	97.44974	393.75800	97.44974
13050.00000	97.46581	391.16441	97.46581
13100.00000	97.53904	388.09359	97.53904
13150.00000	97.85571	385.49601	97.85571
13200.00000	98.16583	380.71302	98.16583
13250.00000	98.86356	374.84026	98.86356
13300.00000	99.66737	374.20016	99.66737
13350.00000	100.77041	371.71957	100.77041
13400.00000	101.96163	374.67539	101.96163
13450.00000	102.66531	383.05162	102.66531
13500.00000	102.29828	395.83856	102.29828
13550.00000	101.10094	401.07074	101.10094
13600.00000	99.44642	402.54708	99.44642
13650.00000	97.81419	398.93761	97.81419
13700.00000	96.56767	392.96252	96.56767
13750.00000	95.72970	383.13202	95.72970
13800.00000	95.42323	374.04116	95.42323
13850.00000	95.45284	364.15305	95.45284
13900.00000	95.72770	353.84079	95.72770
13950.00000	96.61360	346.04684	96.61360
14000.00000	97.88372	339.86388	97.88372
14050.00000	99.65166	338.78547	99.65166
14100.00000	101.57959	340.76567	101.57959
14150.00000	102.90782	352.78946	102.90782
14200.00000	102.77713	366.56011	102.77713
14250.00000	101.34045	377.06729	101.34045
14300.00000	99.74831	380.60192	99.74831
14350.00000	98.38324	377.24220	98.38324
14400.00000	97.41059	373.75103	97.41059
14450.00000	96.67868	367.43126	96.67868
14500.00000	96.21218	360.47666	96.21218
14550.00000	96.12829	353.02339	96.12829
14600.00000	96.12443	347.48832	96.12443
14650.00000	96.39921	341.10393	96.39921
14700.00000	96.95594	335.22416	96.95594
14750.00000	97.54211	331.15833	97.54211
14800.00000	98.23938	328.66793	98.23938
14850.00000	99.12055	328.22557	99.12055
14900.00000	99.89099	329.41377	99.89099
14950.00000	100.27895	332.91101	100.27895
15000.00000	100.31878	336.30854	100.31878
15050.00000	99.97903	339.71734	99.97903
15100.00000	99.45326	340.34343	99.45326
15150.00000	98.84123	338.87645	98.84123
15200.00000	98.43029	336.41702	98.43029
15250.00000	97.83981	333.37338	97.83981
15300.00000	97.66667	329.15876	97.66667
15350.00000	97.63213	325.30514	97.63213
15400.00000	97.73513	320.92244	97.73513
15450.00000	97.87762	316.83834	97.87762
15500.00000	98.27784	313.84686	98.27784
15550.00000	98.71558	312.11301	98.71558
15600.00000	99.14284	310.15384	99.14284
15650.00000	99.45453	309.66755	99.45453
15700.00000	99.58828	310.40354	99.58828
15750.00000	99.67269	310.52415	99.67269
15800.00000	99.53385	311.47976	99.53385
15850.00000	99.46668	311.63270	99.46668
15900.00000	99.20827	310.05785	99.20827
15950.00000	99.00661	308.56875	99.00661
16000.00000	98.88769	306.32382	98.88769
16050.00000	98.91162	303.61729	98.91162
16100.00000	98.87552	301.06243	98.87552
16150.00000	99.07843	298.59084	99.07843
16200.00000	99.27290	296.92034	99.27290
16250.00000	99.51472	294.54143	99.51472
16300.00000	99.76490	292.99557	99.76490
16350.00000	100.07554	291.81162	100.07554
16400.00000	100.15548	290.76145	100.15548
16450.00000	100.43999	290.35541	100.43999
16500.00000	100.52057	289.40320	100.52057
16550.00000	100.51334	288.29703	100.51334
16600.00000	100.51881	286.91447	100.51881
16650.00000	100.65200	285.17010	100.65200
16700.00000	100.69421	283.55554	100.69421
16750.00000	100.87457	280.97853	100.87457
16800.00000	101.05321	278.91743	101.05321
16850.00000	101.28148	276.01377	101.28148
16900.00000	101.44955	274.08680	101.44955
16950.00000	101.67641	271.84322	101.67641
17000.00000	101.90226	269.70103	101.90226
17050.00000	102.07517	267.79308	102.07517
17100.00000	102.21284	266.06018	102.21284
17150.00000	102.34411	264.28551	102.34411
17200.00000	102.40696	262.06767	102.40696
17250.00000	102.53697	259.60311	102.53697
17300.00000	102.60046	256.82209	102.60046
17350.00000	102.68633	254.37848	102.68633
17400.00000	102.76243	251.67421	102.76243
17450.00000	102.88950	249.04808	102.88950
17500.00000	102.99353	246.55798	102.99353
17550.00000	103.16050	243.99165	103.16050
17600.00000	103.31876	241.66439	103.31876
17650.00000	103.43994	239.42213	103.43994
17700.00000	103.57302	237.10279	103.57302
17750.00000	103.69367	234.66710	103.69367
17800.00000	103.77066	232.20472	103.77066
17850.00000	103.85498	229.59711	103.85498
17900.00000	103.94051	226.98935	103.94051
17950.00000	103.97178	224.57935	103.97178
18000.00000	104.05383	221.79627	104.05383
18050.00000	104.09378	218.95382	104.09378
18100.00000	104.13658	216.46946	104.13658
18150.00000	104.19287	213.68814	104.19287
18200.00000	104.21258	211.00600	104.21258
18250.00000	104.25878	208.52442	104.25878
18300.00000	104.31246	205.90843	104.31246
18350.00000	104.38382	203.15157	104.38382
18400.00000	104.37164	200.33367	104.37164
18450.00000	104.39097	197.93387	104.39097
18500.00000	104.40156	195.60044	104.40156
18550.00000	104.44290	192.90700	104.44290
18600.00000	104.42968	190.58860	104.42968
18650.00000	104.50454	188.08264	104.50454
18700.00000	104.52133	185.50003	104.52133
18750.00000	104.51122	183.19851	104.51122
18800.00000	104.51688	180.45295	104.51688
18850.00000	104.51541	178.17214	104.51541
18900.00000	104.46397	175.75757	104.46397
18950.00000	104.43382	173.26507	104.43382
19000.00000	104.38532	171.01853	104.38532
19050.00000	104.37430	168.67644	104.37430
19100.00000	104.36803	166.36380	104.36803
19150.00000	104.35426	164.45570	104.35426
19200.00000	104.35223	162.03778	104.35223
19250.00000	104.33884	160.13095	104.33884
19300.00000	104.34215	157.99956	104.34215
19350.00000	104.30911	155.77145	104.30911
19400.00000	104.26363	154.09578	104.26363
19450.00000	104.28567	152.05757	104.28567
19500.00000	104.30276	150.52213	104.30276
19550.00000	104.36846	148.66681	104.36846
19600.00000	104.38582	146.79101	104.38582
19650.00000	104.46049	144.71870	104.46049
19700.00000	104.52715	142.69508	104.52715
19750.00000	104.58872	140.55721	104.58872
19800.00000	104.64023	138.76169	104.64023
19850.00000	104.69623	136.38837	104.69623
19900.00000	104.76195	134.30790	104.76195
19950.00000	104.79996	132.31609	104.79996
20000.00000	104.84270	129.92387	104.84270
20050.00000	104.93498	127.79086	104.93498
20100.00000	104.99604	125.44943	104.99604
20150.00000	105.06157	123.04331	105.06157
20200.00000	105.15455	121.04760	105.15455
20250.00000	105.21738	118.69979	105.21738
20300.00000	105.28225	116.32911	105.28225
20350.00000	105.35415	113.94765	105.35415
20400.00000	105.44429	111.51103	105.44429
20450.00000	105.52584	108.90974	105.52584
20500.00000	105.57246	106.26683	105.57246
20550.00000	105.62648	103.66377	105.62648
20600.00000	105.66317	101.01102	105.66317
20650.00000	105.70393	98.27662	105.70393
20700.00000	105.71757	95.99528	105.71757
20750.00000	105.73775	93.46741	105.73775
20800.00000	105.76992	90.84219	105.76992
20850.00000	105.79378	87.90305	105.79378
20900.00000	105.77905	85.62976	105.77905
20950.00000	105.82587	82.77794	105.82587
21000.00000	105.85441	80.01045	105.85441
21050.00000	105.88193	77.26083	105.88193
21100.00000	105.87469	74.37001	105.87469
21150.00000	105.85427	71.83229	105.85427
21200.00000	105.80103	69.37374	105.80103
21250.00000	105.74994	66.78303	105.74994
21300.00000	105.71151	63.95802	105.71151
21350.00000	105.64456	61.35954	105.64456
21400.00000	105.61212	58.62031	105.61212
21450.00000	105.63345	56.17684	105.63345
21500.00000	105.60173	53.98734	105.60173
21550.00000	105.54877	51.53056	105.54877
21600.00000	105.49653	48.88433	105.49653
21650.00000	105.43257	46.69890	105.43257
21700.00000	105.32415	44.02999	105.32415
21750.00000	105.26342	41.48853	105.26342
21800.00000	105.19026	38.99415	105.19026
21850.00000	105.16041	36.85332	105.16041
21900.00000	105.04724	34.72796	105.04724
21950.00000	105.00729	32.59182	105.00729
22000.00000	104.87144	30.63045	104.87144
22050.00000	104.80542	28.85741	104.80542
22100.00000	104.76170	27.22250	104.76170
22150.00000	104.68846	25.30167	104.68846
22200.00000	104.66123	23.43141	104.66123
22250.00000	104.68782	21.44244	104.68782
22300.00000	104.71008	19.40513	104.71008
22350.00000	104.65486	17.29220	104.65486
22400.00000	104.66678	15.21717	104.66678
22450.00000	104.66960	13.56855	104.66960
22500.00000	104.64861	11.42653	104.64861
22550.00000	104.65686	 9.49686	104.65686
22600.00000	104.61669	 7.73727	104.61669
22650.00000	104.63905	 6.02905	104.63905
22700.00000	104.62094	 3.92593	104.62094
22750.00000	104.66303	 1.60671	104.66303
22800.00000	104.66476	-0.36826	104.66476
22850.00000	104.70344	-2.52117	104.70344
22900.00000	104.77361	-4.31378	104.77361
22950.00000	104.79896	-6.35391	104.79896
23000.00000	104.81607	-8.56517	104.81607
23050.00000	104.81582	-10.93010	104.81582
23100.00000	104.81683	-13.08203	104.81683
23150.00000	104.78847	-15.40031	104.78847
23200.00000	104.79686	-17.97079	104.79686
23250.00000	104.89105	-20.40644	104.89105
23300.00000	104.94683	-22.97289	104.94683
23350.00000	104.92103	-25.01001	104.92103
23400.00000	104.92047	-26.97701	104.92047
23450.00000	104.91793	-29.18603	104.91793
23500.00000	104.92022	-31.31965	104.92022
23550.00000	104.87922	-33.63111	104.87922
23600.00000	104.95119	-36.06531	104.95119
23650.00000	104.84162	-38.18737	104.84162
23700.00000	104.92632	-40.24451	104.92632
23750.00000	104.92439	-42.91972	104.92439
23800.00000	104.93977	-45.27935	104.93977
23850.00000	104.95753	-47.52287	104.95753
23900.00000	104.92175	-49.88966	104.92175
23950.00000	104.89385	-51.95324	104.89385
24000.00000	104.93660	-54.62329	104.93660
24050.00000	104.87844	-56.99622	104.87844
24100.00000	104.86039	-59.46822	104.86039
24150.00000	104.83658	-61.61190	104.83658
24200.00000	104.86720	-64.45645	104.86720
24250.00000	104.84899	-66.61917	104.84899
24300.00000	104.86604	-69.16266	104.86604
24350.00000	104.82086	-71.18037	104.82086
24400.00000	104.85589	-73.85090	104.85589
24450.00000	104.78712	-75.49114	104.78712
24500.00000	104.75840	-78.79181	104.75840
24550.00000	104.69470	-81.57772	104.69470
24600.00000	104.70514	-83.82579	104.70514
24650.00000	104.67125	-86.54999	104.67125
24700.00000	104.66477	-88.81268	104.66477
24750.00000	104.67310	-91.49349	104.67310
24800.00000	104.56934	-93.49549	104.56934
24850.00000	104.54255	-96.05556	104.54255
24900.00000	104.43393	-98.21699	104.43393
24950.00000	104.47182	-100.71357	104.47182
25000.00000	104.35539	-103.47584	104.35539
25050.00000	104.34007	-105.54580	104.34007
25100.00000	104.32366	-107.54662	104.32366
25150.00000	104.17496	-109.83399	104.17496
25200.00000	104.15291	-112.34414	104.15291
25250.00000	104.03222	-115.12219	104.03222
25300.00000	103.90887	-117.50354	103.90887
25350.00000	103.92308	-119.95838	103.92308
25400.00000	103.86557	-122.19471	103.86557
25450.00000	103.83726	-125.20413	103.83726
25500.00000	103.74006	-127.15725	103.74006
25550.00000	103.63193	-129.60152	103.63193
25600.00000	103.56238	-131.52412	103.56238
25650.00000	103.42724	-134.52340	103.42724
25700.00000	103.35883	-136.37198	103.35883
25750.00000	103.29989	-139.12857	103.29989
25800.00000	103.19115	-140.81140	103.19115
25850.00000	103.08684	-143.29679	103.08684
25900.00000	102.91613	-145.61619	102.91613
25950.00000	102.81595	-147.63071	102.81595
26000.00000	102.71383	-149.67261	102.71383
26050.00000	102.70151	-152.09429	102.70151
26100.00000	102.57229	-154.13740	102.57229
26150.00000	102.43315	-156.74480	102.43315
26200.00000	102.24520	-158.39828	102.24520
26250.00000	102.17781	-160.47488	102.17781
26300.00000	101.98780	-162.85696	101.98780
26350.00000	101.92768	-164.87817	101.92768
26400.00000	101.87611	-166.88060	101.87611
26450.00000	101.69493	-169.37592	101.69493
26500.00000	101.57865	-171.14731	101.57865
26550.00000	101.45695	-172.40371	101.45695
26600.00000	101.33656	-174.56424	101.33656
26650.00000	101.20659	-176.68087	101.20659
26700.00000	101.08344	-178.24370	101.08344
26750.00000	100.91191	-179.94987	100.91191
26800.00000	100.79252	-181.94204	100.79252
26850.00000	100.64261	-183.11041	100.64261
26900.00000	100.53064	-185.12562	100.53064
26950.00000	100.35076	-186.64984	100.35076
27000.00000	100.20541	-188.46901	100.20541
27050.00000	100.10303	-189.67450	100.10303
27100.00000	99.97943	-191.38394	99.97943
27150.00000	99.79696	-192.66609	99.79696
27200.00000	99.75814	-194.46859	99.75814
27250.00000	99.61389	-195.93020	99.61389
27300.00000	99.49938	-197.15058	99.49938
27350.00000	99.36419	-198.64006	99.36419
27400.00000	99.28755	-199.53353	99.28755
27450.00000	99.25035	-201.06875	99.25035
27500.00000	99.09695	-202.35917	99.09695
27550.00000	99.02211	-203.42189	99.02211
27600.00000	98.95023	-204.36578	98.95023
27650.00000	98.85428	-205.90420	98.85428
27700.00000	98.78257	-207.19660	98.78257
27750.00000	98.68837	-208.04086	98.68837
27800.00000	98.61387	-209.33061	98.61387
27850.00000	98.60194	-210.60728	98.60194
27900.00000	98.53980	-211.89334	98.53980
27950.00000	98.45346	-212.55703	98.45346
28000.00000	98.40635	-213.67982	98.40635
28050.00000	98.36580	-214.88611	98.36580
28100.00000	98.30929	-216.03492	98.30929
28150.00000	98.26474	-217.54859	98.26474
28200.00000	98.22511	-218.41942	98.22511
28250.00000	98.18610	-219.49035	98.18610
28300.00000	98.13520	-221.08801	98.13520
28350.00000	98.15512	-221.80781	98.15512
28400.00000	98.10208	-223.11395	98.10208
28450.00000	98.03746	-224.29092	98.03746
28500.00000	98.05310	-225.33518	98.05310
28550.00000	98.01303	-226.63297	98.01303
28600.00000	98.06065	-227.67080	98.06065
28650.00000	98.00028	-228.45515	98.00028
28700.00000	97.95199	-229.76943	97.95199
28750.00000	97.95236	-230.42675	97.95236
28800.00000	97.85698	-232.26282	97.85698
28850.00000	97.83479	-233.03431	97.83479
28900.00000	97.87636	-234.14232	97.87636
28950.00000	97.85049	-234.90893	97.85049
29000.00000	97.90300	-236.00783	97.90300
29050.00000	97.91895	-237.23769	97.91895
29100.00000	97.84732	-237.65215	97.84732
29150.00000	97.84667	-239.35401	97.84667
29200.00000	97.93006	-239.99954	97.93006
29250.00000	97.87412	-240.90324	97.87412
29300.00000	97.88482	-242.08685	97.88482
29350.00000	97.88976	-242.62269	97.88976
29400.00000	97.91369	-243.53140	97.91369
29450.00000	98.00909	-244.60873	98.00909
29500.00000	98.02980	-245.80852	98.02980
29550.00000	98.10758	-246.04371	98.10758
29600.00000	98.14412	-247.15604	98.14412
29650.00000	98.18556	-247.97272	98.18556
29700.00000	98.28558	-248.86447	98.28558
29750.00000	98.30416	-249.72182	98.30416
29800.00000	98.34944	-250.46438	98.34944
29850.00000	98.48035	-251.45362	98.48035
29900.00000	98.56238	-252.38880	98.56238
29950.00000	98.63213	-253.21448	98.63213
30000.00000	98.74574	-254.11885	98.74574
30050.00000	98.85322	-254.83924	98.85322
30100.00000	98.96256	-256.09701	98.96256
30150.00000	99.06001	-256.89846	99.06001
30200.00000	99.20701	-257.71318	99.20701
30250.00000	99.31685	-258.65873	99.31685
30300.00000	99.41636	-259.84231	99.41636
30350.00000	99.61261	-260.58925	99.61261
30400.00000	99.72874	-261.67561	99.72874
30450.00000	99.89400	-262.68885	99.89400
30500.00000	100.11564	-263.79830	100.11564
30550.00000	100.22846	-264.90047	100.22846
30600.00000	100.40607	-266.23928	100.40607
30650.00000	100.58959	-267.13813	100.58959
30700.00000	100.80033	-268.61384	100.80033
30750.00000	100.96280	-269.97134	100.96280
30800.00000	101.07798	-271.21427	101.07798
30850.00000	101.28688	-272.64587	101.28688
30900.00000	101.47557	-274.03969	101.47557
30950.00000	101.63416	-275.57075	101.63416
31000.00000	101.85555	-276.91148	101.85555
31050.00000	102.03928	-278.39004	102.03928
31100.00000	102.22299	-279.95190	102.22299
31150.00000	102.44655	-281.40712	102.44655
31200.00000	102.60611	-283.06338	102.60611
31250.00000	102.85587	-284.71474	102.85587
31300.00000	103.07657	-286.42656	103.07657
31350.00000	103.24486	-288.09827	103.24486
31400.00000	103.48362	-289.70435	103.48362
31450.00000	103.69018	-291.55452	103.69018
31500.00000	103.89494	-293.48940	103.89494
31550.00000	104.10551	-295.83614	104.10551
31600.00000	104.30855	-297.84136	104.30855
31650.00000	104.50553	-299.84042	104.50553
31700.00000	104.68100	-301.93424	104.68100
31750.00000	104.87843	-303.96533	104.87843
31800.00000	105.05820	-306.22308	105.05820
31850.00000	105.24817	-308.14452	105.24817
31900.00000	105.42927	-310.74995	105.42927
31950.00000	105.59493	-312.92596	105.59493
32000.00000	105.75822	-315.17608	105.75822
32050.00000	105.90827	-317.54086	105.90827
32100.00000	106.07243	-319.68475	106.07243
32150.00000	106.22189	-322.06985	106.22189
32200.00000	106.37176	-324.28690	106.37176
32250.00000	106.56788	-326.63505	106.56788
32300.00000	106.68096	-329.05489	106.68096
32350.00000	106.84767	-331.50886	106.84767
32400.00000	106.96859	-333.92082	106.96859
32450.00000	107.10150	-336.44487	107.10150
32500.00000	107.20174	-338.86850	107.20174
32550.00000	107.30114	-341.15867	107.30114
32600.00000	107.42890	-343.33875	107.42890
32650.00000	107.55051	-345.81999	107.55051
32700.00000	107.65539	-348.04364	107.65539
32750.00000	107.75835	-350.42016	107.75835
32800.00000	107.87339	-352.69231	107.87339
32850.00000	107.98551	-355.26815	107.98551
32900.00000	108.04714	-357.54782	108.04714
32950.00000	108.16182	-359.68943	108.16182
33000.00000	108.27284	-362.31580	108.27284
33050.00000	108.31659	-364.42091	108.31659
33100.00000	108.43660	-366.75473	108.43660
33150.00000	108.52790	-368.84563	108.52790
33200.00000	108.59392	-371.09205	108.59392
33250.00000	108.65611	-373.25505	108.65611
33300.00000	108.75097	-375.42677	108.75097
33350.00000	108.83211	-377.72642	108.83211
33400.00000	108.91476	-379.82950	108.91476
33450.00000	108.99845	-381.91079	108.99845
33500.00000	109.07581	-383.94616	109.07581
33550.00000	109.18180	-385.98852	109.18180
33600.00000	109.25914	-388.06356	109.25914
33650.00000	109.32653	-390.19093	109.32653
33700.00000	109.40473	-392.13824	109.40473
33750.00000	109.52076	-394.12032	109.52076
33800.00000	109.60683	-396.14367	109.60683
33850.00000	109.73280	-397.81027	109.73280
33900.00000	109.82293	-400.00073	109.82293
33950.00000	109.94572	-401.80958	109.94572
34000.00000	110.06301	-403.51847	110.06301
34050.00000	110.16797	-405.23121	110.16797
34100.00000	110.32793	-407.31405	110.32793
34150.00000	110.46088	-409.17560	110.46088
34200.00000	110.62842	-411.10974	110.62842
34250.00000	110.77887	-413.17694	110.77887
34300.00000	110.94109	-415.27619	110.94109
34350.00000	111.09304	-417.35139	111.09304
34400.00000	111.26932	-419.49673	111.26932
34450.00000	111.40471	-421.76277	111.40471
34500.00000	111.55862	-423.69655	111.55862
34550.00000	111.73084	-425.99058	111.73084
34600.00000	111.90073	-428.08135	111.90073
34650.00000	112.08223	-430.48643	112.08223
34700.00000	112.21479	-433.07145	112.21479
34750.00000	112.32438	-435.53872	112.32438
34800.00000	112.42137	-437.63019	112.42137
34850.00000	112.56186	-439.59057	112.56186
34900.00000	112.69718	-441.52999	112.69718
34950.00000	112.86354	-443.59321	112.86354
35000.00000	113.05080	-445.45577	113.05080
35050.00000	113.23868	-447.71556	113.23868
35100.00000	113.41407	-449.96188	113.41407
35150.00000	113.60313	-452.13032	113.60313
35200.00000	113.79080	-454.45654	113.79080
35250.00000	113.98278	-456.56127	113.98278
35300.00000	114.16459	-458.96649	114.16459
35350.00000	114.36191	-461.17943	114.36191
35400.00000	114.57879	-463.54536	114.57879
35450.00000	114.78073	-465.93136	114.78073
35500.00000	114.98716	-468.38101	114.98716
35550.00000	115.18981	-470.74744	115.18981
35600.00000	115.41726	-473.30389	115.41726
35650.00000	115.62284	-475.79636	115.62284
35700.00000	115.83714	-478.40594	115.83714
35750.00000	116.05421	-481.00194	116.05421
35800.00000	116.27903	-483.66854	116.27903
35850.00000	116.50016	-486.24243	116.50016
35900.00000	116.74108	-488.88409	116.74108
35950.00000	116.97372	-491.71560	116.97372
36000.00000	117.20039	-494.44161	117.20039
36050.00000	117.43242	-497.39449	117.43242
36100.00000	117.67065	-500.28250	117.67065
36150.00000	117.89566	-503.31626	117.89566
36200.00000	118.13671	-506.36990	118.13671
36250.00000	118.35588	-509.48188	118.35588
36300.00000	118.57376	-512.60284	118.57376
36350.00000	118.81353	-515.73482	118.81353
36400.00000	119.04560	-519.05190	119.04560
36450.00000	119.26380	-522.37835	119.26380
36500.00000	119.49968	-525.76042	119.49968
36550.00000	119.70916	-529.27817	119.70916
36600.00000	119.91358	-532.79696	119.91358
36650.00000	120.10619	-536.33128	120.10619
36700.00000	120.29806	-539.92496	120.29806
36750.00000	120.48275	-543.51632	120.48275
36800.00000	120.67655	-547.19125	120.67655
36850.00000	120.85451	-550.77909	120.85451
36900.00000	121.01858	-554.51795	121.01858
36950.00000	121.19551	-558.20979	121.19551
37000.00000	121.35710	-561.97078	121.35710
37050.00000	121.51498	-565.72797	121.51498
37100.00000	121.66056	-569.57232	121.66056
37150.00000	121.79935	-573.34958	121.79935
37200.00000	121.94158	-577.06150	121.94158
37250.00000	122.08684	-580.92630	122.08684
37300.00000	122.22904	-584.65607	122.22904
37350.00000	122.37754	-588.52156	122.37754
37400.00000	122.52823	-592.50041	122.52823
37450.00000	122.67280	-596.43948	122.67280
37500.00000	122.80496	-600.46161	122.80496
37550.00000	122.95536	-604.55466	122.95536
37600.00000	123.09387	-608.70835	123.09387
37650.00000	123.24194	-612.99068	123.24194
37700.00000	123.36798	-617.25996	123.36798
37750.00000	123.50096	-621.71124	123.50096
37800.00000	123.61719	-626.26608	123.61719
37850.00000	123.73660	-630.90274	123.73660
37900.00000	123.81802	-635.74899	123.81802
37950.00000	123.87045	-640.65923	123.87045
38000.00000	123.90306	-645.58261	123.90306
38050.00000	123.90589	-650.63423	123.90589
38100.00000	123.86640	-655.59043	123.86640
38150.00000	123.80265	-660.45320	123.80265
38200.00000	123.71472	-665.27463	123.71472
38250.00000	123.59503	-669.92589	123.59503
38300.00000	123.48036	-674.43617	123.48036
38350.00000	123.36139	-678.86819	123.36139
38400.00000	123.23381	-683.20579	123.23381
38450.00000	123.09700	-687.39701	123.09700
38500.00000	122.96240	-691.49847	122.96240
38550.00000	122.82860	-695.61133	122.82860
38600.00000	122.69817	-699.59153	122.69817
38650.00000	122.57370	-703.55321	122.57370
38700.00000	122.44721	-707.46912	122.44721
38750.00000	122.32385	-711.40649	122.32385
38800.00000	122.19412	-715.32659	122.19412
38850.00000	122.08105	-719.34688	122.08105
38900.00000	121.95164	-723.32086	121.95164
38950.00000	121.81318	-727.31809	121.81318
39000.00000	121.67166	-731.29192	121.67166
39050.00000	121.52105	-735.38575	121.52105
39100.00000	121.35092	-739.46642	121.35092
39150.00000	121.16768	-743.49579	121.16768
39200.00000	120.97471	-747.48763	120.97471
39250.00000	120.76859	-751.37354	120.76859
39300.00000	120.55218	-755.24530	120.55218
39350.00000	120.33096	-759.05501	120.33096
39400.00000	120.10163	-762.81563	120.10163
39450.00000	119.88644	-766.40641	119.88644
39500.00000	119.64356	-770.05268	119.64356
39550.00000	119.40850	-773.63341	119.40850
39600.00000	119.16797	-777.25937	119.16797
39650.00000	118.92222	-780.76862	118.92222
39700.00000	118.65671	-784.26606	118.65671
39750.00000	118.38211	-787.62726	118.38211
39800.00000	118.10102	-790.92779	118.10102
39850.00000	117.80965	-794.15110	117.80965
39900.00000	117.51643	-797.21483	117.51643
39950.00000	117.24557	-800.19107	117.24557
40000.00000	116.95529	-803.13297	116.95529
40050.00000	116.67932	-805.92413	116.67932
40100.00000	116.40537	-808.74594	116.40537
40150.00000	116.14716	-811.43141	116.14716
40200.00000	115.88531	-814.06169	115.88531
40250.00000	115.64926	-816.67637	115.64926
40300.00000	115.38606	-819.39478	115.38606
40350.00000	115.14079	-821.93192	115.14079
40400.00000	114.89828	-824.61155	114.89828
40450.00000	114.66044	-827.22779	114.66044
40500.00000	114.41979	-829.74432	114.41979
40550.00000	114.14840	-832.44222	114.14840
40600.00000	113.90744	-834.91394	113.90744
40650.00000	113.64754	-837.50911	113.64754
40700.00000	113.38069	-840.08146	113.38069
40750.00000	113.09435	-842.49165	113.09435
40800.00000	112.82359	-845.10060	112.82359
40850.00000	112.53245	-847.45902	112.53245
40900.00000	112.24908	-849.68525	112.24908
40950.00000	111.94269	-851.92550	111.94269
41000.00000	111.62476	-854.15552	111.62476
41050.00000	111.29547	-856.09016	111.29547
41100.00000	110.98372	-857.92770	110.98372
41150.00000	110.66678	-859.76113	110.66678
41200.00000	110.35694	-861.30844	110.35694
41250.00000	110.03298	-862.72104	110.03298
41300.00000	109.72500	-864.05382	109.72500
41350.00000	109.38963	-865.20905	109.38963
41400.00000	109.14478	-866.15421	109.14478
41450.00000	108.88111	-866.80541	108.88111
41500.00000	108.61155	-867.38095	108.61155
41550.00000	108.34339	-867.69139	108.34339
41600.00000	108.16667	-868.22454	108.16667
41650.00000	108.02421	-868.53053	108.02421
41700.00000	107.91057	-868.56590	107.91057
41750.00000	107.81329	-868.73893	107.81329
41800.00000	107.73438	-868.67785	107.73438
41850.00000	107.75088	-869.26119	107.75088
41900.00000	107.78300	-869.52437	107.78300
41950.00000	107.81206	-870.15837	107.81206
42000.00000	107.91222	-870.67161	107.91222
42050.00000	108.02990	-871.46254	108.02990
42100.00000	108.14666	-872.67849	108.14666
42150.00000	108.32775	-873.74954	108.32775
42200.00000	108.43663	-875.19448	108.43663
42250.00000	108.56695	-876.82996	108.56695
42300.00000	108.72208	-878.61483	108.72208
42350.00000	108.88395	-880.71254	108.88395
42400.00000	109.02032	-882.76702	109.02032
42450.00000	109.11809	-884.94681	109.11809
42500.00000	109.20932	-887.45012	109.20932
42550.00000	109.28634	-889.98821	109.28634
42600.00000	109.37075	-892.42945	109.37075
42650.00000	109.45203	-894.72029	109.45203
42700.00000	109.45068	-897.46389	109.45068
42750.00000	109.48525	-900.30162	109.48525
42800.00000	109.52015	-902.77595	109.52015
42850.00000	109.54528	-905.42034	109.54528
42900.00000	109.54596	-908.11679	109.54596
42950.00000	109.52027	-910.81836	109.52027
43000.00000	109.53162	-913.16659	109.53162
43050.00000	109.51845	-915.96822	109.51845
43100.00000	109.51742	-918.59353	109.51742
43150.00000	109.47051	-920.95124	109.47051
43200.00000	109.44518	-923.44402	109.44518
43250.00000	109.44237	-925.96198	109.44237
43300.00000	109.46283	-928.44673	109.46283
43350.00000	109.38610	-930.52383	109.38610
43400.00000	109.36100	-933.03281	109.36100
43450.00000	109.34145	-935.80116	109.34145
43500.00000	109.32767	-937.90884	109.32767
43550.00000	109.33307	-940.37784	109.33307
43600.00000	109.25153	-942.75811	109.25153
43650.00000	109.26183	-945.37420	109.26183
43700.00000	109.26288	-947.81238	109.26288
43750.00000	109.23754	-950.47728	109.23754
43800.00000	109.25834	-952.95472	109.25834
43850.00000	109.18767	-955.33182	109.18767
43900.00000	109.16374	-958.53277	109.16374
43950.00000	109.11118	-961.44689	109.11118
44000.00000	109.09429	-963.91849	109.09429
44050.00000	109.06714	-966.81049	109.06714
44100.00000	108.99946	-969.73106	108.99946
44150.00000	109.02610	-972.27368	109.02610
44200.00000	109.01393	-975.48200	109.01393
44250.00000	108.94438	-978.66342	108.94438
44300.00000	108.87705	-981.62843	108.87705
44350.00000	108.78072	-984.52016	108.78072
44400.00000	108.73508	-987.25797	108.73508
44450.00000	108.58482	-990.35104	108.58482
44500.00000	108.48518	-992.51064	108.48518
44550.00000	108.35394	-995.64713	108.35394
44600.00000	108.17111	-998.42365	108.17111
44650.00000	108.04104	-1001.98520	108.04104
44700.00000	107.90763	-1004.23555	107.90763
44750.00000	107.66344	-1006.77699	107.66344
44800.00000	107.43585	-1009.61440	107.43585
44850.00000	107.26166	-1012.08468	107.26166
44900.00000	107.07339	-1014.48462	107.07339
44950.00000	106.84486	-1017.20631	106.84486
45000.00000	106.64886	-1019.02795	106.64886
45050.00000	106.44126	-1021.39356	106.44126
45100.00000	106.25716	-1023.60400	106.25716
45150.00000	106.02980	-1025.26605	106.02980
45200.00000	105.95633	-1026.97908	105.95633
45250.00000	105.69897	-1029.02102	105.69897
45300.00000	105.68841	-1028.64231	105.68841
45350.00000	105.45437	-1032.33004	105.45437
45400.00000	105.29598	-1034.17310	105.29598
45450.00000	105.24002	-1036.22200	105.24002
45500.00000	104.96172	-1038.14421	104.96172
45550.00000	104.73968	-1039.80616	104.73968
45600.00000	104.51085	-1040.45327	104.51085
45650.00000	104.52389	-1042.07698	104.52389
45700.00000	104.34410	-1043.19952	104.34410
45750.00000	104.27943	-1044.95223	104.27943
45800.00000	104.12568	-1046.02473	104.12568
45850.00000	104.19716	-1047.83418	104.19716
45900.00000	104.02076	-1050.36501	104.02076
45950.00000	103.89634	-1051.49986	103.89634
46000.00000	103.74718	-1053.56220	103.74718
46050.00000	103.56993	-1055.54905	103.56993
46100.00000	103.49831	-1056.76298	103.49831
46150.00000	103.32198	-1058.11636	103.32198
46200.00000	103.13396	-1059.77969	103.13396
46250.00000	103.08224	-1060.89013	103.08224
46300.00000	103.01792	-1062.31620	103.01792
46350.00000	102.84136	-1062.95214	102.84136
46400.00000	102.95072	-1063.16677	102.95072
46450.00000	102.77765	-1064.03822	102.77765
46500.00000	102.81818	-1065.55036	102.81818
46550.00000	102.69065	-1065.84756	102.69065
46600.00000	102.69569	-1068.07080	102.69569
46650.00000	102.68066	-1068.08235	102.68066
46700.00000	102.62724	-1069.07339	102.62724
46750.00000	102.74136	-1069.21692	102.74136
46800.00000	102.75682	-1071.43202	102.75682
46850.00000	102.90124	-1072.21538	102.90124
46900.00000	102.88013	-1073.00005	102.88013
46950.00000	102.93914	-1073.94817	102.93914
47000.00000	103.07177	-1075.46024	103.07177
47050.00000	103.09240	-1077.12646	103.09240
47100.00000	103.25477	-1078.22479	103.25477
47150.00000	103.32117	-1079.56381	103.32117
47200.00000	103.33821	-1080.62870	103.33821
47250.00000	103.48775	-1082.27553	103.48775
47300.00000	103.64018	-1084.04907	103.64018
47350.00000	103.76234	-1085.07818	103.76234
47400.00000	103.94099	-1086.24037	103.94099
47450.00000	103.98471	-1088.24421	103.98471
47500.00000	104.17797	-1090.05346	104.17797
47550.00000	104.25682	-1091.73304	104.25682
47600.00000	104.39047	-1093.71311	104.39047
47650.00000	104.52021	-1094.95551	104.52021
47700.00000	104.71565	-1096.88727	104.71565
47750.00000	104.76946	-1099.37392	104.76946
47800.00000	105.07583	-1100.82825	105.07583
47850.00000	105.20799	-1103.29190	105.20799
47900.00000	105.41669	-1105.40006	105.41669
47950.00000	105.62650	-1107.28317	105.62650
48000.00000	105.67775	-1110.14315	105.67775
48050.00000	106.01379	-1112.21520	106.01379
48100.00000	106.08574	-1115.06125	106.08574
48150.00000	106.40802	-1117.63898	106.40802
48200.00000	106.51794	-1120.47143	106.51794
48250.00000	106.71954	-1122.93991	106.71954
48300.00000	106.90724	-1126.00615	106.90724
48350.00000	107.14761	-1128.78634	107.14761
48400.00000	107.17542	-1131.42563	107.17542
48450.00000	107.38479	-1134.50026	107.38479
48500.00000	107.55402	-1137.79561	107.55402
48550.00000	107.75473	-1140.70158	107.75473
48600.00000	107.85559	-1145.10167	107.85559
48650.00000	107.93858	-1148.25770	107.93858
48700.00000	108.12866	-1151.47075	108.12866
48750.00000	108.29007	-1155.62201	108.29007
48800.00000	108.30351	-1158.45511	108.30351
48850.00000	108.28769	-803.18595	108.28769
48900.00000	108.58980	-446.52307	108.58980
48950.00000	108.45721	-90.40600	108.45721
49000.00000	108.60050	265.50086	108.60050
49050.00000	108.58922	621.07629	108.58922
49100.00000	108.59997	977.96288	108.59997
49150.00000	108.68265	1333.26456	108.68265
49200.00000	108.50223	1690.30528	108.50223
49250.00000	108.58030	2046.51914	108.58030
49300.00000	108.50326	2403.16258	108.50326
49350.00000	108.35447	2759.05019	108.35447
49400.00000	108.10434	3114.47647	108.10434
49450.00000	108.13800	3471.58484	108.13800
49500.00000	108.05338	3828.26708	108.05338
49550.00000	107.84325	4184.33978	107.84325
49600.00000	107.79217	4540.89004	107.79217
49650.00000	107.71446	4896.42146	107.71446
49700.00000	107.39581	5253.75409	107.39581
49750.00000	107.30796	5611.22467	107.30796
49800.00000	107.10155	5608.56298	107.10155
49850.00000	107.02246	6324.18947	107.02246
49900.00000	106.87326	6321.68897	106.87326
49950.00000	106.61504	6679.00466	106.61504
50000.00000	106.63670	6675.97989	106.63670
50050.00000	106.37006	6673.34738	106.37006
50100.00000	106.14001	6670.30695	106.14001
50150.00000	106.12831	6667.60529	106.12831
50200.00000	106.00247	6664.41459	106.00247
50250.00000	105.75819	6662.39110	105.75819
50300.00000	105.75375	6659.50774	105.75375
50350.00000	105.55049	6657.42411	105.55049
50400.00000	105.54262	6654.93356	105.54262
50450.00000	105.34281	6651.77430	105.34281
50500.00000	105.16045	6650.54495	105.16045
50550.00000	105.10883	6647.29119	105.10883
50600.00000	105.07336	6644.33101	105.07336
50650.00000	105.00141	6642.25397	105.00141
50700.00000	104.74533	6638.76582	104.74533
50750.00000	104.64304	6636.83322	104.64304
50800.00000	104.57608	6633.49307	104.57608
50850.00000	104.45215	6631.04242	104.45215
50900.00000	104.26593	6627.98300	104.26593
50950.00000	104.30111	6624.96860	104.30111
51000.00000	104.36250	6621.98646	104.36250
51050.00000	104.19689	6620.47953	104.19689
51100.00000	103.96956	6615.96597	103.96956
51150.00000	103.81278	6612.20061	103.81278
51200.00000	103.76270	6609.73554	103.76270
51250.00000	103.53908	6606.72904	103.53908
51300.00000	103.40587	6602.78545	103.40587
51350.00000	103.22581	6600.99213	103.22581
51400.00000	103.09869	6596.61600	103.09869
51450.00000	102.61631	6593.79211	102.61631
51500.00000	102.47659	6591.21074	102.47659
51550.00000	102.11877	6588.14147	102.11877
51600.00000	101.85091	6585.39205	101.85091
51650.00000	101.26339	6581.40883	101.26339
51700.00000	101.16478	6579.09893	101.16478
51750.00000	100.72123	6577.22779	100.72123
51800.00000	100.39250	6575.67487	100.39250
51850.00000	100.10075	6573.07606	100.10075
51900.00000	99.57889	6571.13823	99.57889
51950.00000	99.12183	6571.54678	99.12183
52000.00000	98.71598	6569.43626	98.71598
52050.00000	98.61441	6568.98270	98.61441
52100.00000	98.18133	6568.10397	98.18133
52150.00000	97.88326	6567.83221	97.88326
52200.00000	97.69649	6568.71719	97.69649
52250.00000	97.66678	6566.78471	97.66678
52300.00000	97.24401	6567.98666	97.24401
52350.00000	97.43990	6567.87037	97.43990
52400.00000	97.18867	6567.68571	97.18867
52450.00000	97.06759	6564.96396	97.06759
52500.00000	97.06439	6565.13856	97.06439
52550.00000	96.98825	6565.31820	96.98825
52600.00000	96.99641	6563.31743	96.99641
52650.00000	97.01823	6564.24137	97.01823
52700.00000	97.09358	6562.55796	97.09358
52750.00000	97.24014	6561.55263	97.24014
52800.00000	97.15999	6560.60630	97.15999
52850.00000	96.72034	6559.85140	96.72034
52900.00000	97.25088	6557.93406	97.25088
52950.00000	97.27693	6557.21818	97.27693
53000.00000	97.41149	6556.25209	97.41149
53050.00000	97.18914	6555.05350	97.18914
53100.00000	97.47111	6552.91060	97.47111
53150.00000	97.69031	6551.34315	97.69031
53200.00000	97.60206	6551.19670	97.60206
53250.00000	97.68809	6547.84963	97.68809
53300.00000	97.84908	6545.41564	97.84908
53350.00000	97.85476	6544.06213	97.85476
53400.00000	97.89884	6542.76813	97.89884
53450.00000	97.83763	6540.07622	97.83763
53500.00000	98.00686	6538.26900	98.00686
53550.00000	98.14589	6534.77832	98.14589
53600.00000	98.04518	6532.05906	98.04518
53650.00000	98.38333	6529.99309	98.38333
53700.00000	98.27961	6527.92952	98.27961
53750.00000	98.13546	6525.32083	98.13546
53800.00000	98.38485	6522.24068	98.38485
53850.00000	98.37600	6519.54889	98.37600
53900.00000	98.30741	6517.25711	98.30741
53950.00000	98.18186	6513.81667	98.18186
54000.00000	98.34845	6510.35465	98.34845
54050.00000	98.42560	6507.69892	98.42560
54100.00000	98.38420	6505.60579	98.38420
54150.00000	98.01955	6501.60644	98.01955
54200.00000	97.93413	6500.23138	97.93413
54250.00000	98.00543	6496.44727	98.00543
54300.00000	97.94268	6493.74433	97.94268
54350.00000	97.49344	6490.61858	97.49344
54400.00000	97.72736	6488.76706	97.72736
54450.00000	97.59672	6485.98908	97.59672
54500.00000	97.14975	6482.75082	97.14975
54550.00000	97.00699	6479.58671	97.00699
54600.00000	96.80887	6477.50796	96.80887
54650.00000	96.72691	6473.92233	96.72691
54700.00000	96.25804	6473.10675	96.25804
54750.00000	96.33590	6470.43326	96.33590
54800.00000	96.11929	6467.75810	96.11929
54850.00000	95.69588	6466.70455	95.69588
54900.00000	95.70148	6464.33121	95.70148
54950.00000	95.50749	6462.33429	95.50749
55000.00000	95.47363	6461.37324	95.47363
55050.00000	95.13632	6459.10801	95.13632
55100.00000	95.14560	6456.45806	95.14560
55150.00000	94.99989	6455.26028	94.99989
55200.00000	94.88257	6454.40229	94.88257
55250.00000	94.37877	6450.94843	94.37877
55300.00000	94.65347	6450.57816	94.65347
55350.00000	94.22810	6449.10438	94.22810
55400.00000	94.01716	6447.51862	94.01716
55450.00000	94.01873	6444.17562	94.01873
55500.00000	93.84755	6441.72451	93.84755
55550.00000	93.79857	6440.34321	93.79857
55600.00000	93.42883	6438.91551	93.42883
55650.00000	93.71407	6438.62466	93.71407
55700.00000	93.43490	6436.08996	93.43490
55750.00000	93.32462	6434.74764	93.32462
55800.00000	93.13887	6432.57229	93.13887
55850.00000	93.06999	6429.13689	93.06999
55900.00000	92.94510	6429.54897	92.94510
55950.00000	92.74293	6427.46697	92.74293
56000.00000	92.81124	6425.76205	92.81124
56050.00000	92.45999	6422.45443	92.45999
56100.00000	92.23527	6421.47977	92.23527
56150.00000	92.18360	6419.57102	92.18360
56200.00000	91.92802	6415.49407	91.92802
56250.00000	91.94085	6415.26098	91.94085
56300.00000	91.47331	6413.33951	91.47331
56350.00000	91.27170	6412.63823	91.27170
56400.00000	91.24963	6412.07095	91.24963
56450.00000	90.85875	6410.41884	90.85875
56500.00000	90.83906	6408.88704	90.83906
56550.00000	90.74143	6408.84334	90.74143
56600.00000	90.37886	6409.07685	90.37886
56650.00000	89.95463	6406.64151	89.95463
56700.00000	89.86149	6405.44274	89.86149
56750.00000	90.00259	6407.19158	90.00259
56800.00000	89.67016	6405.15464	89.67016
56850.00000	89.92405	6405.43814	89.92405
56900.00000	89.74671	6403.82869	89.74671
56950.00000	89.94845	6404.60406	89.94845
57000.00000	89.76299	6405.30905	89.76299
57050.00000	89.86532	6403.81697	89.86532
57100.00000	89.88876	6403.71139	89.88876
57150.00000	89.98703	6401.88097	89.98703
57200.00000	89.88997	6401.39150	89.88997
57250.00000	90.37522	6401.89881	90.37522
57300.00000	90.49464	6399.92704	90.49464
57350.00000	90.35738	6400.54255	90.35738
57400.00000	90.33723	6398.59258	90.33723
57450.00000	90.50699	6397.45623	90.50699
57500.00000	90.60966	6395.36372	90.60966
57550.00000	90.71034	6393.83940	90.71034
57600.00000	90.74169	6393.62299	90.74169
57650.00000	90.81334	6392.41953	90.81334
57700.00000	90.89171	6390.97582	90.89171
57750.00000	91.31535	6388.59124	91.31535
57800.00000	91.26266	6387.18607	91.26266
57850.00000	91.40612	6385.80853	91.40612
57900.00000	91.40121	6384.18062	91.40121
57950.00000	91.54349	6381.59731	91.54349
58000.00000	91.72972	6381.40738	91.72972
58050.00000	91.73019	6378.18176	91.73019
58100.00000	91.78583	6376.55670	91.78583
58150.00000	91.81645	6375.52068	91.81645
58200.00000	91.92555	6373.62331	91.92555
58250.00000	92.06537	6371.37209	92.06537
58300.00000	92.06128	6369.19597	92.06128
58350.00000	92.08473	6367.17863	92.08473
58400.00000	92.05887	6366.40785	92.05887
58450.00000	92.04408	6364.90245	92.04408
58500.00000	92.13538	6362.16731	92.13538
58550.00000	92.26072	6361.00045	92.26072
58600.00000	92.25296	6358.86625	92.25296
58650.00000	92.31906	6358.11823	92.31906
58700.00000	92.28852	6356.16373	92.28852
58750.00000	92.30465	6355.33711	92.30465
58800.00000	92.42947	6353.84645	92.42947
58850.00000	92.52904	6352.24241	92.52904
58900.00000	92.45574	6351.07561	92.45574
58950.00000	92.66133	6349.88630	92.66133
59000.00000	92.70847	6349.09718	92.70847
59050.00000	92.70548	6348.00171	92.70548
59100.00000	92.85252	6347.17638	92.85252
59150.00000	92.91455	6345.85917	92.91455
59200.00000	93.17517	6345.77298	93.17517
59250.00000	93.18303	6344.71049	93.18303
59300.00000	93.40593	6344.51245	93.40593
59350.00000	93.64866	6344.56082	93.64866
59400.00000	93.95983	6343.23607	93.95983
59450.00000	94.27653	6342.30448	94.27653
59500.00000	94.70122	6341.75833	94.70122
59550.00000	95.07648	6341.07222	95.07648
59600.00000	95.57171	6339.95176	95.57171
59650.00000	96.05034	6338.41749	96.05034
59700.00000	96.61272	6336.39366	96.61272
59750.00000	97.14428	6333.96116	97.14428
59800.00000	97.70889	6331.22883	97.70889
59850.00000	98.28200	6328.03559	98.28200
59900.00000	98.85393	6324.29432	98.85393
59950.00000	99.39385	6320.16787	99.39385
60000.00000	99.90023	6315.35326	99.90023
60050.00000	100.36568	6310.10135	100.36568
60100.00000	100.66791	6304.62709	100.66791
60150.00000	101.02109	6299.06858	101.02109
60200.00000	101.28516	6293.12128	101.28516
60250.00000	101.47478	6287.22499	101.47478
60300.00000	101.55869	6281.27840	101.55869
60350.00000	101.56726	6275.56034	101.56726
60400.00000	101.58237	6269.86195	101.58237
60450.00000	101.47313	6264.40068	101.47313
60500.00000	101.39038	6258.93499	101.39038
60550.00000	101.22955	6253.87868	101.22955
60600.00000	101.00721	6249.11670	101.00721
60650.00000	100.83554	6244.54087	100.83554
60700.00000	100.55867	6240.19359	100.55867
60750.00000	100.32109	6236.21794	100.32109
60800.00000	100.07130	6232.44833	100.07130
60850.00000	99.81976	6228.82030	99.81976
60900.00000	99.59258	6225.20842	99.59258
60950.00000	99.38284	6221.94530	99.38284
61000.00000	99.12332	6219.11545	99.12332
61050.00000	98.86994	6215.77595	98.86994
61100.00000	98.66149	6213.02915	98.66149
61150.00000	98.48118	6210.71900	98.48118
61200.00000	98.24497	6207.97053	98.24497
61250.00000	98.05008	6205.50158	98.05008
61300.00000	97.89956	6203.02883	97.89956
61350.00000	97.66358	6200.40217	97.66358
61400.00000	97.52337	6198.51650	97.52337
61450.00000	97.38339	6196.10044	97.38339
61500.00000	97.26838	6194.16151	97.26838
61550.00000	97.13980	6191.99564	97.13980
61600.00000	96.98074	6189.91811	96.98074
61650.00000	96.90339	6187.67170	96.90339
61700.00000	96.79231	6185.91267	96.79231
61750.00000	96.73369	6184.38116	96.73369
61800.00000	96.71763	6182.24485	96.71763
61850.00000	96.59291	6180.66854	96.59291
61900.00000	96.68664	6178.98564	96.68664
61950.00000	96.67773	6176.88142	96.67773
62000.00000	96.60540	6174.89784	96.60540
62050.00000	96.80773	6172.81889	96.80773
62100.00000	96.83696	6170.47824	96.83696
62150.00000	96.90888	6168.17774	96.90888
62200.00000	96.97046	6166.23770	96.97046
62250.00000	97.06705	6163.23538	97.06705
62300.00000	97.11879	6160.81928	97.11879
62350.00000	97.18291	6158.02060	97.18291
62400.00000	97.31447	6154.60340	97.31447
62450.00000	97.34389	6152.10810	97.34389
62500.00000	97.34995	6149.04701	97.34995
62550.00000	97.45002	6145.30219	97.45002
62600.00000	97.47178	6142.40539	97.47178
62650.00000	97.51830	6138.69442	97.51830
62700.00000	97.48909	6135.58377	97.48909
62750.00000	97.51254	6131.77666	97.51254
62800.00000	97.56328	6128.97866	97.56328
62850.00000	97.52154	6124.96286	97.52154
62900.00000	97.55695	6121.82727	97.55695
62950.00000	97.44926	6118.40832	97.44926
63000.00000	97.34695	6114.02798	97.34695
63050.00000	97.26299	6111.42373	97.26299
63100.00000	97.18833	6107.58274	97.18833
63150.00000	97.08599	6103.87582	97.08599
63200.00000	97.00164	6100.77866	97.00164
63250.00000	96.95073	6097.82556	96.95073
63300.00000	96.83525	6094.00280	96.83525
63350.00000	96.71667	6090.64687	96.71667
63400.00000	96.59922	6087.34582	96.59922
63450.00000	96.52462	6083.53983	96.52462
63500.00000	96.44389	6080.22310	96.44389
63550.00000	96.32037	6077.33586	96.32037
63600.00000	96.13878	6073.09018	96.13878
63650.00000	95.90518	6069.46559	95.90518
63700.00000	95.87953	6065.51615	95.87953
63750.00000	95.59713	6061.57743	95.59713
63800.00000	95.31660	6057.61191	95.31660
63850.00000	95.00122	6055.09163	95.00122
63900.00000	94.65034	6051.36236	94.65034
63950.00000	94.27690	6048.68888	94.27690
64000.00000	94.01769	6046.44096	94.01769
64050.00000	93.58543	6044.13331	93.58543
64100.00000	93.32229	6042.40951	93.32229
64150.00000	93.12636	6041.88115	93.12636
64200.00000	92.80597	6040.07896	92.80597
64250.00000	92.64338	6037.15756	92.64338
64300.00000	92.59417	6035.71367	92.59417
64350.00000	92.37093	6033.93199	92.37093
64400.00000	92.19259	6030.66755	92.19259
64450.00000	91.92991	6029.72308	91.92991
64500.00000	91.62351	6028.44561	91.62351
64550.00000	91.65895	6026.00013	91.65895
64600.00000	91.52528	6023.57569	91.52528
64650.00000	91.18743	6022.76460	91.18743
64700.00000	91.07505	6020.26024	91.07505
64750.00000	90.83777	6019.41869	90.83777
64800.00000	90.77797	6018.38950	90.77797
64850.00000	90.61867	6015.56279	90.61867
64900.00000	90.62583	6014.70143	90.62583
64950.00000	90.59307	6013.49380	90.59307
65000.00000	90.51541	6011.57720	90.51541
65050.00000	90.49845	6010.20266	90.49845
65100.00000	90.32555	6007.47808	90.32555
65150.00000	90.42329	6005.04161	90.42329
65200.00000	90.32032	6003.84144	90.32032
65250.00000	90.37880	6003.29982	90.37880
65300.00000	90.27776	6001.27644	90.27776
65350.00000	90.22233	5999.83825	90.22233
65400.00000	90.25148	5997.54062	90.25148
65450.00000	90.10018	5995.32038	90.10018
65500.00000	90.27152	5991.96523	90.27152
65550.00000	90.18521	5990.78584	90.18521
65600.00000	90.26659	5988.90042	90.26659
65650.00000	90.02551	5986.98197	90.02551
65700.00000	90.05231	5983.59420	90.05231
65750.00000	89.97715	5982.14376	89.97715
65800.00000	89.93597	5978.21882	89.93597
65850.00000	90.03682	5975.76773	90.03682
65900.00000	89.59762	5975.46822	89.59762
65950.00000	89.78508	5972.67392	89.78508
66000.00000	89.65427	5970.52916	89.65427
66050.00000	89.46411	5968.62934	89.46411
66100.00000	89.38073	5965.05615	89.38073
66150.00000	89.40460	5963.33240	89.40460
66200.00000	89.23659	5961.89388	89.23659
66250.00000	89.12460	5960.91223	89.12460
66300.00000	89.25829	5957.62029	89.25829
66350.00000	89.09775	5956.10362	89.09775
66400.00000	88.96297	5954.16448	88.96297
66450.00000	89.09755	5952.33901	89.09755
66500.00000	89.10185	5950.94883	89.10185
66550.00000	88.85504	5947.50316	88.85504
66600.00000	89.18830	5946.23938	89.18830
66650.00000	88.99678	5944.00056	88.99678
66700.00000	88.94276	5941.12734	88.94276
66750.00000	88.87993	5938.83263	88.87993
66800.00000	88.98444	5937.31431	88.98444
66850.00000	88.86168	5934.34699	88.86168
66900.00000	88.89273	5932.22776	88.89273
66950.00000	88.82070	5930.94916	88.82070
67000.00000	88.77292	5928.54815	88.77292
67050.00000	89.01994	5926.07145	89.01994
67100.00000	88.66616	5923.45723	88.66616
67150.00000	88.69839	5921.52959	88.69839
67200.00000	88.76980	5918.52585	88.76980
67250.00000	88.66218	5916.11249	88.66218
67300.00000	88.77051	5913.64697	88.77051
67350.00000	88.73420	5912.03635	88.73420
67400.00000	88.72525	5909.42058	88.72525
67450.00000	88.60680	5906.86389	88.60680
67500.00000	88.58643	5904.29600	88.58643
67550.00000	88.49539	5902.23900	88.49539
67600.00000	88.52524	5899.98190	88.52524
67650.00000	88.57754	5897.36606	88.57754
67700.00000	88.47157	5895.64065	88.47157
67750.00000	88.41332	5892.60106	88.41332
67800.00000	88.45545	5891.25563	88.45545
67850.00000	88.44515	5888.94268	88.44515
67900.00000	88.44454	5885.56162	88.44454
67950.00000	88.40636	5883.72806	88.40636
68000.00000	88.24449	5881.60345	88.24449
68050.00000	88.32645	5878.29050	88.32645
68100.00000	88.37763	5876.88166	88.37763
68150.00000	88.32210	5873.58863	88.32210
68200.00000	88.46702	5871.11735	88.46702
68250.00000	88.45510	5868.95687	88.45510
68300.00000	88.45448	5866.68814	88.45448
68350.00000	88.53604	5863.08605	88.53604
68400.00000	88.39793	5859.86504	88.39793
68450.00000	88.50657	5857.05577	88.50657
68500.00000	88.51317	5854.13470	88.51317
68550.00000	88.42191	5852.31425	88.42191
68600.00000	88.38259	5848.70140	88.38259
68650.00000	88.49170	5845.31824	88.49170
68700.00000	88.48293	5842.81392	88.48293
68750.00000	88.45801	5840.23397	88.45801
68800.00000	88.44407	5837.32818	88.44407
68850.00000	88.42009	5835.21845	88.42009
68900.00000	88.37770	5831.36785	88.37770
68950.00000	88.54354	5828.41719	88.54354
69000.00000	88.38681	5826.14919	88.38681
69050.00000	88.48007	5821.67537	88.48007
69100.00000	88.54812	5818.99323	88.54812
69150.00000	88.48245	5816.42921	88.48245
69200.00000	88.55875	5812.79724	88.55875
69250.00000	88.62499	5809.52916	88.62499
69300.00000	88.50762	5805.97527	88.50762
69350.00000	88.58149	5802.05108	88.58149
69400.00000	88.68029	5798.65958	88.68029
69450.00000	88.59745	5793.56955	88.59745
69500.00000	88.70206	5789.94064	88.70206
69550.00000	88.71458	5786.14859	88.71458
69600.00000	88.64589	5781.74970	88.64589
69650.00000	88.59834	5777.80381	88.59834
69700.00000	88.41712	5772.81108	88.41712
69750.00000	88.37804	5767.72982	88.37804
69800.00000	88.37621	5762.90960	88.37621
69850.00000	87.99517	5758.99527	87.99517
69900.00000	87.76201	5753.32008	87.76201
69950.00000	87.79698	5748.07481	87.79698
70000.00000	87.38166	5743.50948	87.38166
70050.00000	87.11290	5737.77105	87.11290
70100.00000	86.78187	5734.46574	86.78187
70150.00000	86.34511	5728.14289	86.34511
70200.00000	85.90497	5722.68987	85.90497
70250.00000	85.49285	5718.26068	85.49285
70300.00000	84.78752	5711.99624	84.78752
70350.00000	84.32789	5707.76379	84.32789
70400.00000	83.30318	5702.87521	83.30318
70450.00000	82.60370	5698.09924	82.60370
70500.00000	81.72069	5693.35592	81.72069
70550.00000	80.21214	5691.09767	80.21214
70600.00000	79.17441	5685.71753	79.17441
70650.00000	77.67326	5688.69561	77.67326
70700.00000	75.50285	5690.08958	75.50285
70750.00000	74.59948	5700.07993	74.59948
70800.00000	73.32465	5715.32352	73.32465
70850.00000	73.96216	5728.82602	73.96216
70900.00000	75.71468	5733.05883	75.71468
70950.00000	77.93095	5738.21508	77.93095
71000.00000	78.27049	5734.75945	78.27049
71050.00000	79.71458	5725.56560	79.71458
71100.00000	80.11805	5721.30472	80.11805
71150.00000	80.19217	5714.00829	80.19217
71200.00000	80.59769	5706.08949	80.59769
71250.00000	80.32048	5702.97318	80.32048
71300.00000	79.84638	5694.01877	79.84638
71350.00000	79.43421	5688.50245	79.43421
71400.00000	78.49953	5687.56257	78.49953
71450.00000	78.16366	5678.79137	78.16366
71500.00000	76.99982	5682.24858	76.99982
71550.00000	76.17857	5679.22680	76.17857
71600.00000	75.33820	5677.79003	75.33820
71650.00000	75.24828	5684.32645	75.24828
71700.00000	74.19361	5684.32511	74.19361
71750.00000	74.97548	5683.18617	74.97548
71800.00000	74.44108	5695.59672	74.44108
71850.00000	74.27179	5691.19169	74.27179
71900.00000	74.85242	5688.70345	74.85242
71950.00000	74.93388	5696.42456	74.93388
72000.00000	74.98399	5688.87782	74.98399
72050.00000	76.31329	5692.13788	76.31329
72100.00000	75.54374	5694.87591	75.54374
72150.00000	76.11824	5687.77124	76.11824
72200.00000	76.76508	5687.17241	76.76508
72250.00000	76.25839	5688.74141	76.25839
72300.00000	77.29784	5682.60402	77.29784
72350.00000	78.00281	5687.17524	78.00281
72400.00000	77.43757	5676.93833	77.43757
72450.00000	78.21065	5673.97312	78.21065
72500.00000	78.52733	5675.24793	78.52733
72550.00000	77.73302	5667.85901	77.73302
72600.00000	78.91221	5668.74277	78.91221
72650.00000	78.24154	5667.27074	78.24154
72700.00000	78.64932	5655.29601	78.64932
72750.00000	79.87122	5659.83272	79.87122
72800.00000	78.74847	5652.71540	78.74847
72850.00000	79.45454	5641.18953	79.45454
72900.00000	79.64842	5645.31411	79.64842
72950.00000	78.75279	5636.02937	78.75279
73000.00000	80.02726	5628.96108	80.02726
73050.00000	79.19532	5630.59401	79.19532
73100.00000	78.82854	5616.58053	78.82854
73150.00000	79.66070	5616.97769	79.66070
73200.00000	77.87789	5613.97225	77.87789
73250.00000	77.79656	5603.44152	77.79656
73300.00000	78.84143	5609.77825	78.84143
73350.00000	76.82253	5604.71278	76.82253
73400.00000	79.00291	5593.09728	79.00291
73450.00000	77.92576	5602.76691	77.92576
73500.00000	77.24747	5585.16812	77.24747
73550.00000	79.34368	5585.34172	79.34368
73600.00000	77.95635	5588.65328	77.95635
73650.00000	78.11300	5568.74869	78.11300
73700.00000	79.60586	5574.81982	79.60586
73750.00000	77.08029	5568.10338	77.08029
73800.00000	78.70930	5551.71157	78.70930
73850.00000	79.34581	5559.21623	79.34581
73900.00000	76.37758	5540.68376	76.37758
73950.00000	79.48733	5538.80103	79.48733
74000.00000	76.89599	5540.35028	76.89599
74050.00000	77.15005	5508.24219	77.15005
74100.00000	79.04774	5522.52106	79.04774
74150.00000	75.53231	5507.52028	75.53231
74200.00000	78.53304	5489.60727	78.53304
74250.00000	77.15804	5499.32329	77.15804
74300.00000	76.19343	5455.29522	76.19343
74350.00000	78.25064	5455.89483	78.25064
74400.00000	73.11435	5415.52825	73.11435
74450.00000	71.00203	5217.08329	71.00203
74500.00000	76.68834	5173.37051	76.68834
74550.00000	72.38088	5133.93424	72.38088
74600.00000	76.07480	5103.63778	76.07480
74650.00000	75.42398	5121.59681	75.42398
74700.00000	73.21416	5072.13646	73.21416
74750.00000	77.21672	5082.79109	77.21672
74800.00000	72.31684	5093.02273	72.31684
74850.00000	76.40795	5040.44363	76.40795
74900.00000	76.30906	5071.99239	76.30906
74950.00000	68.14778	5030.90901	68.14778
75000.00000	77.47391	5028.70608	77.47391
75050.00000	72.11266	5052.20137	72.11266
75100.00000	74.53438	4994.38779	74.53438
75150.00000	77.59862	5023.76161	77.59862
75200.00000	69.17543	5008.91900	69.17543
75250.00000	76.92911	4978.82950	76.92911
75300.00000	74.06657	5017.37722	74.06657
75350.00000	71.82981	4950.90111	71.82981
75400.00000	77.02924	4979.01986	77.02924
75450.00000	70.34490	4998.59751	70.34490
75500.00000	75.65798	4940.78425	75.65798
75550.00000	75.69780	4975.65173	75.69780
75600.00000	68.20163	4922.99476	68.20163
75650.00000	76.14403	4937.29660	76.14403
75700.00000	70.55606	4972.97305	70.55606
75750.00000	73.29227	4888.69287	73.29227
75800.00000	76.14354	4934.73790	76.14354
75850.00000	51.94558	4896.31857	51.94558
75900.00000	75.54313	4887.33301	75.54313
75950.00000	73.74833	4948.31226	73.74833
76000.00000	67.03444	4839.03499	67.03444
76050.00000	75.58289	4901.89539	75.58289
76100.00000	65.97321	4959.56926	65.97321
76150.00000	71.80946	4846.06992	71.80946
76200.00000	75.13746	4915.54236	75.13746
76250.00000	53.44193	4750.10878	53.44193
76300.00000	75.11095	4503.57291	75.11095
76350.00000	72.56365	4578.98953	72.56365
76400.00000	67.79721	4448.76922	67.79721
76450.00000	74.85342	4520.32682	74.85342
76500.00000	68.23623	4610.95459	68.23623
76550.00000	73.42536	4466.39855	73.42536
76600.00000	75.47455	4537.06990	75.47455
76650.00000	59.38928	4347.13380	59.38928
76700.00000	76.10914	4124.44815	76.10914
76750.00000	72.16795	4195.74795	72.16795
76800.00000	70.03479	4071.25553	70.03479
76850.00000	76.23172	4138.98513	76.23172
76900.00000	65.27418	4231.82116	65.27418
76950.00000	73.85758	4090.08581	73.85758
77000.00000	74.49915	4154.02553	74.49915
77050.00000	64.65315	4009.77107	64.65315
77100.00000	76.40896	4095.87674	76.40896
77150.00000	71.24456	4160.95918	71.24456
77200.00000	72.50195	4047.07879	72.50195
77250.00000	76.51646	4117.23230	76.51646
77300.00000	58.41509	3863.44139	58.41509
77350.00000	75.73764	3702.45551	75.73764
77400.00000	73.57279	3774.43909	73.57279
77450.00000	67.01576	3643.67256	67.01576
77500.00000	76.29871	3721.41287	76.29871
77550.00000	64.74494	3800.84529	64.74494
77600.00000	71.16545	3670.36119	71.16545
77650.00000	74.43796	3742.72086	74.43796
77700.00000	57.77105	3618.31987	57.77105
77750.00000	74.47287	3689.00534	74.47287
77800.00000	70.27832	3753.58630	70.27832
77850.00000	69.18757	3635.62676	69.18757
77900.00000	74.24624	3702.22867	74.24624
77950.00000	58.29077	3762.53732	58.29077
78000.00000	73.11807	3655.66143	73.11807
78050.00000	71.32502	3717.94879	71.32502
78100.00000	63.86883	3624.73915	63.86883
78150.00000	73.39100	3667.38251	73.39100
78200.00000	63.82315	3746.97587	63.82315
78250.00000	70.69001	3622.80070	70.69001
78300.00000	71.89790	3687.56975	71.89790
78350.00000	53.22367	3587.47075	53.22367
78400.00000	72.08263	3643.77394	72.08263
78450.00000	67.36331	3718.13032	67.36331
78500.00000	65.64221	3617.99476	65.64221
78550.00000	70.76904	3675.16781	70.76904
78600.00000	58.28205	3717.11194	58.28205
78650.00000	68.47472	3626.37070	68.47472
78700.00000	67.48237	3694.49563	67.48237
78750.00000	58.68432	3615.41573	58.68432
78800.00000	69.73133	3651.00581	69.73133
78850.00000	63.81994	3690.58803	63.81994
78900.00000	64.37943	3627.36793	64.37943
78950.00000	69.69574	3672.22016	69.69574
79000.00000	59.43701	3641.86219	59.43701
79050.00000	68.30219	3646.13336	68.30219
79100.00000	66.73761	3681.88134	66.73761
79150.00000	64.76688	3623.54146	64.76688
79200.00000	68.74800	3651.04279	68.74800
79250.00000	59.82015	3648.79955	59.82015
79300.00000	67.48857	3624.89819	67.48857
79350.00000	65.83337	3663.71677	65.83337
79400.00000	65.59702	3605.80067	65.59702
79450.00000	68.25729	3637.91489	68.25729
79500.00000	62.55692	3620.63504	62.55692
79550.00000	65.55287	3612.83959	65.55287
79600.00000	66.63006	3644.51453	66.63006
79650.00000	64.29842	3601.74582	64.29842
79700.00000	66.61736	3615.64666	66.61736
79750.00000	60.98175	3615.83874	60.98175
79800.00000	64.27379	3604.67449	64.27379
79850.00000	64.30301	3617.95553	64.30301
79900.00000	59.93188	3600.46909	59.93188
79950.00000	64.41263	3613.39798	64.41263
80000.00000	59.87433	3630.30849	59.87433
80050.00000	63.07286	3593.09234	63.07286
80100.00000	62.00467	3621.86883	62.00467
80150.00000	57.02209	3595.35588	57.02209
80200.00000	62.46700	3601.33151	62.46700
80250.00000	58.82422	3614.46632	58.82422
80300.00000	60.57656	3591.18500	60.57656
80350.00000	59.15878	3627.96988	59.15878
80400.00000	54.55147	3595.25602	54.55147
80450.00000	57.98344	3612.63100	57.98344
80500.00000	56.10955	3631.24179	56.10955
80550.00000	56.15709	3618.36185	56.15709
80600.00000	59.35265	3624.61051	59.35265
80650.00000	56.83090	3640.08617	56.83090
80700.00000	60.13230	3621.74027	60.13230
80750.00000	58.78397	3635.36579	58.78397
80800.00000	57.84199	3625.69846	57.84199
80850.00000	61.43964	3638.49761	61.43964
80900.00000	58.13779	3633.86641	58.13779
80950.00000	61.84030	3631.00279	61.84030
81000.00000	59.56396	3637.74521	59.56396
81050.00000	61.29649	3615.30981	61.29649
81100.00000	60.98697	3629.90188	60.98697
81150.00000	62.10465	3625.29365	62.10465
81200.00000	63.38512	3612.16734	63.38512
81250.00000	62.65178	3617.80806	62.65178
81300.00000	63.14453	3609.03753	63.14453
81350.00000	64.57145	3607.81265	64.57145
81400.00000	62.58862	3604.10472	62.58862
81450.00000	64.58034	3595.06415	64.58034
81500.00000	63.77914	3588.53676	63.77914
81550.00000	64.48190	3577.90884	64.48190
81600.00000	63.88459	3579.78944	63.88459
81650.00000	63.22537	3570.66055	63.22537
81700.00000	63.76460	3558.62629	63.76460
81750.00000	63.67879	3552.71562	63.67879
81800.00000	63.36047	3534.18646	63.36047
81850.00000	62.79739	3520.11273	62.79739
81900.00000	63.67482	3502.74228	63.67482
81950.00000	63.98559	3484.99563	63.98559
82000.00000	63.09551	3458.81467	63.09551
82050.00000	65.44323	3432.12465	65.44323
82100.00000	65.87070	3412.84450	65.87070
82150.00000	67.43146	3396.30951	67.43146
82200.00000	68.64685	3373.87865	68.64685
82250.00000	70.15582	3359.75195	70.15582
82300.00000	70.49798	3344.50904	70.49798
82350.00000	71.04162	3331.78373	71.04162
82400.00000	71.08878	3325.21187	71.08878
82450.00000	72.04135	3309.55648	72.04135
82500.00000	71.77237	3300.14410	71.77237
82550.00000	72.67949	3293.96939	72.67949
82600.00000	72.75439	3285.03530	72.75439
82650.00000	72.87079	3275.94469	72.87079
82700.00000	72.77542	3270.15172	72.77542
82750.00000	72.78176	3261.85990	72.78176
82800.00000	73.72040	3258.47357	73.72040
82850.00000	73.46280	3250.40680	73.46280
82900.00000	73.49529	3238.80503	73.49529
82950.00000	73.96302	3239.56457	73.96302
83000.00000	73.78212	3231.01514	73.78212
83050.00000	74.13204	3226.49872	74.13204
83100.00000	74.57990	3222.63036	74.57990
83150.00000	74.60424	3218.41885	74.60424
83200.00000	74.72857	3213.84612	74.72857
83250.00000	74.81967	3209.51591	74.81967
83300.00000	74.98802	3205.67364	74.98802
83350.00000	74.96297	3199.20936	74.96297
83400.00000	75.28212	3197.85306	75.28212
83450.00000	75.22920	3194.17106	75.22920
83500.00000	75.43761	3188.36651	75.43761
83550.00000	75.73822	3186.03575	75.73822
83600.00000	75.88467	3182.74397	75.88467
83650.00000	76.07215	3178.91206	76.07215
83700.00000	76.24149	3175.86789	76.24149
83750.00000	76.33688	3169.62290	76.33688
83800.00000	76.21374	3165.52085	76.21374
83850.00000	76.83590	3162.56392	76.83590
83900.00000	76.86986	3161.21328	76.86986
83950.00000	77.00257	3154.40080	77.00257
84000.00000	76.93371	3152.06645	76.93371
84050.00000	77.17740	3147.69662	77.17740
84100.00000	77.51696	3142.60799	77.51696
84150.00000	77.49166	3139.09504	77.49166
84200.00000	78.07958	3134.39023	78.07958
84250.00000	77.87685	3129.70631	77.87685
84300.00000	78.46644	3125.92736	78.46644
84350.00000	78.45925	3120.41843	78.45925
84400.00000	78.86657	3114.52842	78.86657
84450.00000	78.48462	3112.10911	78.48462
84500.00000	78.96008	3106.75719	78.96008
84550.00000	79.17115	3099.10117	79.17115
84600.00000	78.94858	3096.54623	78.94858
84650.00000	79.39782	3088.59297	79.39782
84700.00000	79.35759	3087.06950	79.35759
84750.00000	79.46102	3079.36221	79.46102
84800.00000	79.64979	3075.24600	79.64979
84850.00000	79.49740	3069.70145	79.49740
84900.00000	79.84916	3063.38712	79.84916
84950.00000	79.80443	3057.12764	79.80443
85000.00000	79.93200	3051.19391	79.93200
85050.00000	79.98761	3045.88414	79.98761
85100.00000	79.82172	3039.66005	79.82172
85150.00000	79.55355	3032.58246	79.55355
85200.00000	79.44186	3029.39728	79.44186
85250.00000	79.88362	3020.94960	79.88362
85300.00000	79.38939	3016.06457	79.38939
85350.00000	79.00762	3008.42377	79.00762
85400.00000	78.82049	3004.94375	78.82049
85450.00000	78.66889	2996.40227	78.66889
85500.00000	78.47246	2992.43179	78.47246
85550.00000	78.09224	2985.67941	78.09224
85600.00000	77.44796	2979.92599	77.44796
85650.00000	77.34046	2972.76165	77.34046
85700.00000	76.92554	2968.04527	76.92554
85750.00000	76.47314	2963.99593	76.47314
85800.00000	75.63215	2959.20155	75.63215
85850.00000	75.70825	2951.42063	75.70825
85900.00000	75.18451	2941.86401	75.18451
85950.00000	74.66981	2943.43853	74.66981
86000.00000	74.71793	2940.20867	74.71793
86050.00000	73.69394	2933.18998	73.69394
86100.00000	73.77944	2925.65394	73.77944
86150.00000	72.88320	2921.49328	72.88320
86200.00000	72.88708	2918.60323	72.88708
86250.00000	71.95959	2913.22426	71.95959
86300.00000	71.46442	2904.16342	71.46442
86350.00000	71.14349	2899.07800	71.14349
86400.00000	69.77993	2891.60751	69.77993
86450.00000	68.22595	2886.41965	68.22595
86500.00000	68.32911	2885.68727	68.32911
86550.00000	67.99801	2878.87005	67.99801
86600.00000	67.82748	2868.25714	67.82748
86650.00000	66.10100	2869.33330	66.10100
86700.00000	66.98741	2859.41751	66.98741
86750.00000	64.86147	2862.33703	64.86147
86800.00000	64.97784	2846.23357	64.97784
86850.00000	64.45227	2836.43525	64.45227
86900.00000	63.35622	2833.65839	63.35622
86950.00000	64.01002	2818.04386	64.01002
87000.00000	61.94414	2815.41416	61.94414
87050.00000	62.42324	2808.87420	62.42324
87100.00000	62.86751	2797.80800	62.86751
87150.00000	63.90685	2786.35661	63.90685
87200.00000	61.28773	2778.59336	61.28773
87250.00000	61.36818	2774.52766	61.36818
87300.00000	63.60625	2761.06250	63.60625
87350.00000	61.25299	2758.12096	61.25299
87400.00000	61.77389	2745.67540	61.77389
87450.00000	64.42374	2731.38263	64.42374
87500.00000	62.33944	2723.40798	62.33944
87550.00000	62.78416	2719.26455	62.78416
87600.00000	63.91683	2701.15776	63.91683
87650.00000	63.59043	2698.54821	63.59043
87700.00000	64.88972	2689.21142	64.88972
87750.00000	64.62093	2672.11620	64.62093
87800.00000	65.75545	2677.44079	65.75545
87850.00000	64.51837	2662.13672	64.51837
87900.00000	65.51844	2659.68407	65.51844
87950.00000	63.84289	2654.08205	63.84289
88000.00000	64.73521	2649.11161	64.73521
88050.00000	65.10832	2642.70390	65.10832
88100.00000	64.81960	2635.24110	64.81960
88150.00000	65.80395	2627.53207	65.80395
88200.00000	65.50691	2619.73001	65.50691
88250.00000	66.18442	2615.52208	66.18442
88300.00000	65.18925	2615.26916	65.18925
88350.00000	66.03296	2595.67209	66.03296
88400.00000	65.73328	2590.76441	65.73328
88450.00000	66.17592	2584.53001	66.17592
88500.00000	66.10767	2584.28264	66.10767
88550.00000	66.33256	2576.51131	66.33256
88600.00000	65.45244	2571.97582	65.45244
88650.00000	65.54700	2562.12401	65.54700
88700.00000	65.85672	2557.59869	65.85672
88750.00000	66.53402	2549.55361	66.53402
88800.00000	66.81893	2538.82130	66.81893
88850.00000	65.26564	2531.10746	65.26564
88900.00000	66.90194	2528.69405	66.90194
88950.00000	66.05343	2511.67751	66.05343
89000.00000	65.37275	2512.94677	65.37275
89050.00000	65.35426	2501.55582	65.35426
89100.00000	66.24066	2496.95336	66.24066
89150.00000	65.33714	2499.05746	65.33714
89200.00000	65.39853	2484.80637	65.39853
89250.00000	64.48461	2480.93908	64.48461
89300.00000	63.78946	2475.58897	63.78946
89350.00000	64.45545	2475.19156	64.45545
89400.00000	64.59947	2468.69688	64.59947
89450.00000	63.37922	2460.54070	63.37922
89500.00000	63.95270	2454.18872	63.95270
89550.00000	62.90501	2455.06905	62.90501
89600.00000	63.32572	2442.81726	63.32572
89650.00000	62.99002	2444.84769	62.99002
89700.00000	63.80544	2446.21612	63.80544
89750.00000	62.63294	2442.14372	62.63294
89800.00000	61.86984	2436.46633	61.86984
89850.00000	60.92543	2434.31137	60.92543
89900.00000	61.62533	2424.99275	61.62533
89950.00000	61.65256	2424.26948	61.65256
90000.00000	60.78019	2440.28364	60.78019
90050.00000	62.58764	2436.40994	62.58764
90100.00000	65.07333	2437.50359	65.07333
90150.00000	65.78233	2445.26301	65.78233
90200.00000	66.54887	2419.06395	66.54887
90250.00000	68.61547	2409.45940	68.61547
90300.00000	69.02772	2382.18997	69.02772
90350.00000	66.35519	2373.82524	66.35519
90400.00000	64.80201	2350.26098	64.80201
90450.00000	64.99713	2343.53198	64.99713
90500.00000	61.27703	2354.45525	61.27703
90550.00000	58.40981	2362.33261	58.40981
90600.00000	59.86094	2337.86451	59.86094
90650.00000	57.52147	2360.90106	57.52147
90700.00000	58.30058	2346.17107	58.30058
90750.00000	53.87931	2341.44765	53.87931
90800.00000	56.39731	2376.34105	56.39731
90850.00000	56.20580	2397.49185	56.20580
90900.00000	57.98004	2375.99979	57.98004
90950.00000	56.99141	2379.28274	56.99141
91000.00000	58.17856	2401.03605	58.17856
91050.00000	58.92260	2384.69317	58.92260
91100.00000	61.13074	2404.80245	61.13074
91150.00000	61.91643	2391.03119	61.91643
91200.00000	62.44936	2390.84510	62.44936
91250.00000	64.47397	2385.43086	64.47397
91300.00000	65.81060	2383.04923	65.81060
91350.00000	64.72763	2381.60264	64.72763
91400.00000	65.36829	2364.25593	65.36829
91450.00000	67.19190	2366.90021	67.19190
91500.00000	67.18994	2353.80989	67.18994
91550.00000	68.04527	2354.21991	68.04527
91600.00000	68.40496	2345.28001	68.40496
91650.00000	68.33192	2342.92918	68.33192
91700.00000	69.89067	2334.76613	69.89067
91750.00000	70.54737	2327.05839	70.54737
91800.00000	69.90932	2322.02454	69.90932
91850.00000	71.56773	2314.04609	71.56773
91900.00000	70.61756	2312.71262	70.61756
91950.00000	71.35446	2300.53446	71.35446
92000.00000	71.32492	2300.48672	71.32492
92050.00000	72.31194	2293.71063	72.31194
92100.00000	71.51631	2283.00615	71.51631
92150.00000	72.11161	2280.21101	72.11161
92200.00000	72.78631	2272.85011	72.78631
92250.00000	72.71364	2265.41328	72.71364
92300.00000	72.83449	2262.87708	72.83449
92350.00000	73.80148	2251.24166	73.80148
92400.00000	73.89948	2250.51784	73.89948
92450.00000	73.81429	2242.20335	73.81429
92500.00000	74.16652	2236.44051	74.16652
92550.00000	74.03663	2234.77911	74.03663
92600.00000	74.01131	2227.35707	74.01131
92650.00000	74.44834	2220.87353	74.44834
92700.00000	74.80611	2216.25500	74.80611
92750.00000	74.78575	2210.99846	74.78575
92800.00000	74.90042	2205.15551	74.90042
92850.00000	75.08943	2201.14713	75.08943
92900.00000	75.24507	2192.90446	75.24507
92950.00000	75.18365	2189.53777	75.18365
93000.00000	75.66664	2187.82919	75.66664
93050.00000	75.42076	2179.31016	75.42076
93100.00000	75.49770	2178.29103	75.49770
93150.00000	75.63447	2173.84029	75.63447
93200.00000	75.85701	2167.40539	75.85701
93250.00000	75.80610	2165.15633	75.80610
93300.00000	75.61666	2157.56529	75.61666
93350.00000	76.07825	2150.65781	76.07825
93400.00000	75.77675	2148.87498	75.77675
93450.00000	76.04708	2145.86350	76.04708
93500.00000	76.04383	2138.15305	76.04383
93550.00000	75.87423	2136.74564	75.87423
93600.00000	75.45001	2131.48478	75.45001
93650.00000	75.69123	2126.11475	75.69123
93700.00000	74.97336	2122.98636	74.97336
93750.00000	75.04267	2118.74931	75.04267
93800.00000	74.87047	2115.86584	74.87047
93850.00000	74.77001	2113.45297	74.77001
93900.00000	74.26049	2108.85638	74.26049
93950.00000	75.13389	2104.42615	75.13389
94000.00000	74.20258	2098.37178	74.20258
94050.00000	74.60327	2098.57406	74.60327
94100.00000	73.87351	2093.12533	73.87351
94150.00000	73.69143	2089.86002	73.69143
94200.00000	73.37602	2084.02251	73.37602
94250.00000	73.62494	2087.87900	73.62494
94300.00000	73.71243	2082.57421	73.71243
94350.00000	72.83491	2080.26861	72.83491
94400.00000	73.22156	2075.49563	73.22156
94450.00000	72.73114	2074.95855	72.73114
94500.00000	72.69930	2073.07827	72.69930
94550.00000	72.21748	2072.48750	72.21748
94600.00000	72.28759	2065.34881	72.28759
94650.00000	72.23230	2062.86149	72.23230
94700.00000	72.09387	2062.15183	72.09387
94750.00000	71.80508	2056.24440	71.80508
94800.00000	71.69742	2054.32211	71.69742
94850.00000	71.27870	2055.22917	71.27870
94900.00000	71.44971	2045.40716	71.44971
94950.00000	72.18758	2045.56587	72.18758
95000.00000	70.84267	2044.45782	70.84267
95050.00000	70.40716	2036.05065	70.40716
95100.00000	70.62410	2038.90640	70.62410
95150.00000	70.32266	2032.49563	70.32266
95200.00000	69.60236	2030.39951	69.60236
95250.00000	70.40221	2027.69090	70.40221
95300.00000	69.63805	2024.73026	69.63805
95350.00000	68.17041	2018.99435	68.17041
95400.00000	70.30142	2019.28169	70.30142
95450.00000	68.88475	2020.40667	68.88475
95500.00000	68.14676	2026.88098	68.14676
95550.00000	68.43195	2027.55887	68.43195
95600.00000	68.41276	2016.17939	68.41276
95650.00000	68.76129	2018.61581	68.76129
95700.00000	68.73186	2017.78112	68.73186
95750.00000	69.46085	2022.21653	69.46085
95800.00000	68.26148	2017.46357	68.26148
95850.00000	68.11295	2009.93889	68.11295
95900.00000	69.61263	2018.37110	69.61263
95950.00000	69.15118	2017.79785	69.15118
96000.00000	69.49952	2011.01551	69.49952
96050.00000	70.80671	2006.56669	70.80671
96100.00000	70.56359	2003.15398	70.56359
96150.00000	71.54932	2004.16408	71.54932
96200.00000	72.02870	1991.13108	72.02870
96250.00000	72.37152	1983.27761	72.37152
96300.00000	73.38025	1987.21258	73.38025
96350.00000	74.04213	1972.91528	74.04213
96400.00000	73.85390	1968.80240	73.85390
96450.00000	73.91800	1958.23331	73.91800
96500.00000	75.35791	1958.05672	75.35791
96550.00000	74.40045	1952.74852	74.40045
96600.00000	75.00248	1952.19777	75.00248
96650.00000	74.74467	1946.63213	74.74467
96700.00000	74.12989	1941.05411	74.12989
96750.00000	76.02631	1930.21383	76.02631
96800.00000	74.59624	1926.57326	74.59624
96850.00000	75.34875	1911.89679	75.34875
96900.00000	77.29540	1907.52744	77.29540
96950.00000	78.91250	1913.77814	78.91250
97000.00000	78.80280	1901.25808	78.80280
97050.00000	77.29185	1913.66408	77.29185
97100.00000	76.57769	1890.35503	76.57769
97150.00000	79.69406	1878.26171	79.69406
97200.00000	79.84933	1879.32010	79.84933
97250.00000	79.62380	1849.80551	79.62380
97300.00000	78.48410	1824.57179	78.48410
97350.00000	75.11185	1806.43747	75.11185
97400.00000	75.54086	1795.82168	75.54086
97450.00000	70.56494	1805.59154	70.56494
97500.00000	69.44104	1816.04003	69.44104
97550.00000	69.63616	1815.13418	69.63616
97600.00000	69.42684	1812.24632	69.42684
97650.00000	65.87260	1801.55762	65.87260
97700.00000	67.35383	1809.75741	67.35383
97750.00000	66.91834	1820.72649	66.91834
97800.00000	66.58805	1811.93213	66.58805
97850.00000	65.02386	1811.42398	65.02386
97900.00000	64.56584	1799.35432	64.56584
97950.00000	64.14671	1830.65744	64.14671
98000.00000	64.96179	1833.61637	64.96179
98050.00000	65.13489	1798.75065	65.13489
98100.00000	64.28813	1803.57475	64.28813
98150.00000	62.15342	1830.24355	62.15342
98200.00000	62.51407	1823.44382	62.51407
98250.00000	63.05949	1805.15844	63.05949
98300.00000	61.32554	1822.67520	61.32554
98350.00000	65.31187	1811.99587	65.31187
98400.00000	60.30085	1818.25574	60.30085
98450.00000	63.43300	1809.44672	63.43300
98500.00000	63.10364	1820.21641	63.10364
98550.00000	61.95864	1804.90661	61.95864
98600.00000	63.16675	1822.94900	63.16675
98650.00000	58.48470	1813.43085	58.48470
98700.00000	57.44500	1808.46061	57.44500
98750.00000	61.53097	1812.71255	61.53097
98800.00000	62.21042	1796.83955	62.21042
98850.00000	60.83371	1799.62074	60.83371
98900.00000	62.34117	1806.01960	62.34117
98950.00000	58.17309	1794.30431	58.17309
99000.00000	55.76595	1776.68603	55.76595
99050.00000	55.88758	1823.54304	55.88758
99100.00000	58.35717	1747.60028	58.35717
99150.00000	59.76924	1787.04236	59.76924
99200.00000	59.05960	1769.49661	59.05960
99250.00000	57.30058	1784.85319	57.30058
99300.00000	50.66794	1816.64127	50.66794
99350.00000	48.51433	1739.26225	48.51433
99400.00000	54.37469	1756.20743	54.37469
99450.00000	46.42441	1748.13231	46.42441
99500.00000	43.76056	1661.73593	43.76056
99550.00000	51.29667	1734.87728	51.29667
99600.00000	49.05669	1796.59998	49.05669
99650.00000	27.83240	1776.42595	27.83240
99700.00000	53.90156	1817.89961	53.90156
99750.00000	42.66709	1677.46404	42.66709
99800.00000	46.76615	1790.40447	46.76615
99850.00000	41.93354	1878.73139	41.93354
99900.00000	45.47843	1936.88650	45.47843
99950.00000	44.69737	2099.91997	44.69737
