---ACOUSTIC CALIBRATION---
Filename: C:\Data\CL0809 DATA\CL08091\RightPrimary.calib
Date: 8/9/2019 9:36:41 AM
Format: 4
Probe Tube Correction File: C:\Data\Probe Tube Calibrations\74_ProbeTube.calib
Experiment VIs: 2128
EPL_CFTS.exe V15.0.1f5 (2015)
DAQmx V15.1

Attenuation (dB): 40.000000
Min Freq (Hz): 50.000000
Max Freq (Hz): 99950.000000
Freq Step (Hz): 50.000000
Sample Rate (Hz): 200000.000000
[Smoothing]
Method=None
MA.Iterations=0
MA.Length=0
Loess.Length=0
Loess.Type=Linear
Loess.Robust=FALSE


Freq(Hz)	Mag(dB)	Phase(deg)	Unsmoothed(dB)

50.00000	98.45216	93.96593	98.45216
100.00000	64.72054	-12.92966	64.72054
150.00000	68.29800	276.67916	68.29800
200.00000	61.47165	516.64596	61.47165
250.00000	48.23834	635.44965	48.23834
300.00000	66.12286	867.98783	66.12286
350.00000	58.92035	999.55777	58.92035
400.00000	56.22937	1079.22530	56.22937
450.00000	58.14271	1115.12792	58.14271
500.00000	65.90836	1214.40393	65.90836
550.00000	69.63974	1155.33199	69.63974
600.00000	69.36112	1118.57306	69.36112
650.00000	76.03397	1118.44237	76.03397
700.00000	75.05556	1122.78058	75.05556
750.00000	78.34360	1087.27509	78.34360
800.00000	79.70745	1080.86300	79.70745
850.00000	78.62564	1074.90942	78.62564
900.00000	78.86351	1083.02098	78.86351
950.00000	81.98134	1082.01470	81.98134
1000.00000	83.99400	1086.00049	83.99400
1050.00000	87.21588	1078.37301	87.21588
1100.00000	89.93017	1065.30124	89.93017
1150.00000	91.62946	1050.42579	91.62946
1200.00000	92.51905	1036.47102	92.51905
1250.00000	92.92568	1025.30616	92.92568
1300.00000	93.71581	1020.46220	93.71581
1350.00000	95.10586	1011.05012	95.10586
1400.00000	95.97857	999.27651	95.97857
1450.00000	96.27863	987.89808	96.27863
1500.00000	96.54183	978.59029	96.54183
1550.00000	96.59257	969.51281	96.59257
1600.00000	96.98388	965.33811	96.98388
1650.00000	97.47455	962.57542	97.47455
1700.00000	101.31521	947.44823	101.31521
1750.00000	98.31939	927.99693	98.31939
1800.00000	98.09817	922.65603	98.09817
1850.00000	97.82489	914.87064	97.82489
1900.00000	97.58691	907.84427	97.58691
1950.00000	96.89207	902.89702	96.89207
2000.00000	96.40462	899.79503	96.40462
2050.00000	96.41550	900.34279	96.41550
2100.00000	97.27292	896.76319	97.27292
2150.00000	97.84230	888.14559	97.84230
2200.00000	97.61829	876.33833	97.61829
2250.00000	96.64261	869.46063	96.64261
2300.00000	96.19328	868.53788	96.19328
2350.00000	96.40062	863.17816	96.40062
2400.00000	96.33723	856.93200	96.33723
2450.00000	95.85584	849.22384	95.85584
2500.00000	94.93803	846.21153	94.93803
2550.00000	94.66850	843.05207	94.66850
2600.00000	94.35998	839.53624	94.35998
2650.00000	93.91453	836.54751	93.91453
2700.00000	93.49767	832.64616	93.49767
2750.00000	93.03435	829.26492	93.03435
2800.00000	92.57937	826.39548	92.57937
2850.00000	92.06730	824.04776	92.06730
2900.00000	91.63402	822.28009	91.63402
2950.00000	91.14701	820.80141	91.14701
3000.00000	90.75774	820.33730	90.75774
3050.00000	90.41900	819.55765	90.41900
3100.00000	90.21465	818.11743	90.21465
3150.00000	89.84064	817.47271	89.84064
3200.00000	89.65202	815.37754	89.65202
3250.00000	89.45350	813.71946	89.45350
3300.00000	88.93744	811.88047	88.93744
3350.00000	88.66029	811.02830	88.66029
3400.00000	88.21390	810.64918	88.21390
3450.00000	87.78991	810.14701	87.78991
3500.00000	87.43729	810.14285	87.43729
3550.00000	87.50549	808.07194	87.50549
3600.00000	86.72028	804.20286	86.72028
3650.00000	86.04422	803.89114	86.04422
3700.00000	84.89760	803.24435	84.89760
3750.00000	83.82741	802.76232	83.82741
3800.00000	82.77178	805.50665	82.77178
3850.00000	80.87187	806.35578	80.87187
3900.00000	79.17760	817.26224	79.17760
3950.00000	77.40559	835.38548	77.40559
4000.00000	77.24774	866.87286	77.24774
4050.00000	79.48138	886.05663	79.48138
4100.00000	82.54742	897.51306	82.54742
4150.00000	85.91335	900.19802	85.91335
4200.00000	88.24333	899.31275	88.24333
4250.00000	89.42201	890.71876	89.42201
4300.00000	90.53508	891.80401	90.53508
4350.00000	91.96410	890.94094	91.96410
4400.00000	93.40166	887.93164	93.40166
4450.00000	94.49929	882.84182	94.49929
4500.00000	95.46573	878.59404	95.46573
4550.00000	96.21785	874.84308	96.21785
4600.00000	96.98567	870.87762	96.98567
4650.00000	97.65210	867.79949	97.65210
4700.00000	98.31290	866.05536	98.31290
4750.00000	99.20218	864.61558	99.20218
4800.00000	100.26888	862.50362	100.26888
4850.00000	101.35905	859.17776	101.35905
4900.00000	102.43347	854.69194	102.43347
4950.00000	103.50340	850.33654	103.50340
5000.00000	104.63018	845.39204	104.63018
5050.00000	105.86294	839.90960	105.86294
5100.00000	107.25038	833.56936	107.25038
5150.00000	108.93093	825.70985	108.93093
5200.00000	111.09225	814.01999	111.09225
5250.00000	113.84174	791.84303	113.84174
5300.00000	114.69156	745.34258	114.69156
5350.00000	109.37156	706.91864	109.37156
5400.00000	102.87990	701.46775	102.87990
5450.00000	98.53205	721.31315	98.53205
5500.00000	98.30114	738.68696	98.30114
5550.00000	97.57700	740.65711	97.57700
5600.00000	95.72804	754.61175	95.72804
5650.00000	96.64245	774.92668	96.64245
5700.00000	98.71289	782.38567	98.71289
5750.00000	100.47347	782.78326	100.47347
5800.00000	101.81285	780.38312	101.81285
5850.00000	102.82249	776.39998	102.82249
5900.00000	103.54434	771.42047	103.54434
5950.00000	103.98377	766.57793	103.98377
6000.00000	104.21647	762.69513	104.21647
6050.00000	104.34436	760.10173	104.34436
6100.00000	104.56073	758.89458	104.56073
6150.00000	104.90144	758.21900	104.90144
6200.00000	105.41695	757.94862	105.41695
6250.00000	106.08073	757.12511	106.08073
6300.00000	106.86710	755.80429	106.86710
6350.00000	107.74808	753.65707	107.74808
6400.00000	108.68696	750.85989	108.68696
6450.00000	109.67622	747.07780	109.67622
6500.00000	110.69152	742.23722	110.69152
6550.00000	111.69100	736.21125	111.69100
6600.00000	112.58918	729.20504	112.58918
6650.00000	113.40389	721.52754	113.40389
6700.00000	114.17068	713.29162	114.17068
6750.00000	114.87930	704.05355	114.87930
6800.00000	115.44230	693.62106	115.44230
6850.00000	115.76090	682.36272	115.76090
6900.00000	115.79002	671.02136	115.79002
6950.00000	115.57023	660.38530	115.57023
7000.00000	115.19191	650.76641	115.19191
7050.00000	114.74041	642.26181	114.74041
7100.00000	114.24473	634.59270	114.24473
7150.00000	113.73126	627.65749	113.73126
7200.00000	113.21974	621.48418	113.21974
7250.00000	112.75150	615.85335	112.75150
7300.00000	112.32291	610.39378	112.32291
7350.00000	111.90647	605.03267	111.90647
7400.00000	111.47984	599.73088	111.47984
7450.00000	111.03893	594.51898	111.03893
7500.00000	110.58163	589.57146	110.58163
7550.00000	110.09888	584.65864	110.09888
7600.00000	109.59567	580.06395	109.59567
7650.00000	109.07511	575.61564	109.07511
7700.00000	108.53585	571.66831	108.53585
7750.00000	107.99449	567.84131	107.99449
7800.00000	107.46214	564.55537	107.46214
7850.00000	106.93053	561.39039	106.93053
7900.00000	106.42083	558.45492	106.42083
7950.00000	105.94628	555.82054	105.94628
8000.00000	105.46648	553.40356	105.46648
8050.00000	105.00859	551.14910	105.00859
8100.00000	104.58560	548.99900	104.58560
8150.00000	104.16688	547.05697	104.16688
8200.00000	103.78462	544.96982	103.78462
8250.00000	103.39189	543.13203	103.39189
8300.00000	103.04350	541.34998	103.04350
8350.00000	102.69929	539.59107	102.69929
8400.00000	102.36338	538.04179	102.36338
8450.00000	102.05537	536.31643	102.05537
8500.00000	101.74772	534.73434	101.74772
8550.00000	101.44493	533.21914	101.44493
8600.00000	101.14081	531.70791	101.14081
8650.00000	100.85763	530.50374	100.85763
8700.00000	100.57091	529.28960	100.57091
8750.00000	100.31235	528.08978	100.31235
8800.00000	100.05710	526.82688	100.05710
8850.00000	99.84110	525.56520	99.84110
8900.00000	99.59749	524.62171	99.59749
8950.00000	99.41584	523.85921	99.41584
9000.00000	99.17831	522.92468	99.17831
9050.00000	99.00818	522.13006	99.00818
9100.00000	98.81890	521.43626	98.81890
9150.00000	98.70701	520.78635	98.70701
9200.00000	98.57624	520.03706	98.57624
9250.00000	98.41349	519.61592	98.41349
9300.00000	98.38077	518.91377	98.38077
9350.00000	98.32406	518.33450	98.32406
9400.00000	98.23580	517.73808	98.23580
9450.00000	98.24538	517.38579	98.24538
9500.00000	98.29965	516.60272	98.29965
9550.00000	98.36104	515.92098	98.36104
9600.00000	98.40645	515.18257	98.40645
9650.00000	98.50383	514.13540	98.50383
9700.00000	98.58634	512.86588	98.58634
9750.00000	98.66289	511.64713	98.66289
9800.00000	98.71998	510.27855	98.71998
9850.00000	98.75101	508.90767	98.75101
9900.00000	98.71424	508.13084	98.71424
9950.00000	98.61412	508.00870	98.61412
10000.00000	98.68125	510.26979	98.68125
10050.00000	99.32962	512.73184	99.32962
10100.00000	100.37309	510.65303	100.37309
10150.00000	100.91603	505.81409	100.91603
10200.00000	101.22619	501.46793	101.22619
10250.00000	101.41360	497.90598	101.41360
10300.00000	101.64014	494.44635	101.64014
10350.00000	101.87159	490.95762	101.87159
10400.00000	102.02701	487.48297	102.02701
10450.00000	102.24577	483.89389	102.24577
10500.00000	102.47121	480.01781	102.47121
10550.00000	102.66039	476.12012	102.66039
10600.00000	102.89346	471.64433	102.89346
10650.00000	103.05908	467.39263	103.05908
10700.00000	103.21634	462.63532	103.21634
10750.00000	103.32767	458.00947	103.32767
10800.00000	103.43382	452.94071	103.43382
10850.00000	103.50615	447.87022	103.50615
10900.00000	103.52839	442.80541	103.52839
10950.00000	103.48231	437.62152	103.48231
11000.00000	103.44876	432.48662	103.44876
11050.00000	103.28763	427.44284	103.28763
11100.00000	103.17809	422.48651	103.17809
11150.00000	102.98375	417.39103	102.98375
11200.00000	102.79514	412.71115	102.79514
11250.00000	102.52334	407.59282	102.52334
11300.00000	102.25710	402.99113	102.25710
11350.00000	101.97521	398.18577	101.97521
11400.00000	101.63265	393.44872	101.63265
11450.00000	101.27807	388.91593	101.27807
11500.00000	100.94575	384.42539	100.94575
11550.00000	100.56340	380.05155	100.56340
11600.00000	100.17833	375.96713	100.17833
11650.00000	99.79544	372.04538	99.79544
11700.00000	99.46104	367.95054	99.46104
11750.00000	99.04891	364.16854	99.04891
11800.00000	98.68685	360.61291	98.68685
11850.00000	98.32136	357.01976	98.32136
11900.00000	97.91020	354.16990	97.91020
11950.00000	97.57683	350.75588	97.57683
12000.00000	97.23086	348.06322	97.23086
12050.00000	96.87913	345.37885	96.87913
12100.00000	96.47293	342.21072	96.47293
12150.00000	96.09773	339.30051	96.09773
12200.00000	95.72301	336.15966	95.72301
12250.00000	95.34908	333.52867	95.34908
12300.00000	94.85699	330.12151	94.85699
12350.00000	94.51688	327.28732	94.51688
12400.00000	94.09636	323.26238	94.09636
12450.00000	93.83378	319.87604	93.83378
12500.00000	93.47383	316.54930	93.47383
12550.00000	93.12442	313.24784	93.12442
12600.00000	92.86898	308.78899	92.86898
12650.00000	92.61480	305.52608	92.61480
12700.00000	92.14594	301.19141	92.14594
12750.00000	91.87495	297.43602	91.87495
12800.00000	91.61902	292.96630	91.61902
12850.00000	91.22367	288.82769	91.22367
12900.00000	90.94923	283.39999	90.94923
12950.00000	90.74330	277.06600	90.74330
13000.00000	90.45902	270.17388	90.45902
13050.00000	90.30540	264.14981	90.30540
13100.00000	90.23721	256.56852	90.23721
13150.00000	90.32666	249.41522	90.32666
13200.00000	90.66235	239.82660	90.66235
13250.00000	91.25813	229.41056	91.25813
13300.00000	92.15316	223.88498	92.15316
13350.00000	93.34154	216.63911	93.34154
13400.00000	94.78965	213.41125	94.78965
13450.00000	95.72478	216.34310	95.72478
13500.00000	95.70721	223.56405	95.70721
13550.00000	94.91373	223.57701	94.91373
13600.00000	93.78283	220.36044	93.78283
13650.00000	92.56620	211.59069	92.56620
13700.00000	91.88065	201.11755	91.88065
13750.00000	91.57384	186.42842	91.57384
13800.00000	91.80674	172.03234	91.80674
13850.00000	92.37801	157.41067	92.37801
13900.00000	93.18812	142.01729	93.18812
13950.00000	94.57300	129.05360	94.57300
14000.00000	96.28580	118.46873	96.28580
14050.00000	98.48856	112.35581	98.48856
14100.00000	100.89312	108.99708	100.89312
14150.00000	102.60458	115.63566	102.60458
14200.00000	102.86924	125.17413	102.86924
14250.00000	101.83625	131.49947	101.83625
14300.00000	100.61437	130.18967	100.61437
14350.00000	99.46764	123.13596	99.46764
14400.00000	98.83687	115.48929	98.83687
14450.00000	98.28975	105.58814	98.28975
14500.00000	98.07936	95.50752	98.07936
14550.00000	98.13489	84.47947	98.13489
14600.00000	98.29044	75.77940	98.29044
14650.00000	98.71852	66.59685	98.71852
14700.00000	99.32728	57.29294	99.32728
14750.00000	100.13038	50.20879	100.13038
14800.00000	100.94638	45.13820	100.94638
14850.00000	101.95834	41.37004	101.95834
14900.00000	102.93322	39.93667	102.93322
14950.00000	103.35660	40.80636	103.35660
15000.00000	103.46696	41.61710	103.46696
15050.00000	103.22554	42.32372	103.22554
15100.00000	102.79299	40.87031	102.79299
15150.00000	102.21418	37.27789	102.21418
15200.00000	101.77629	32.87796	101.77629
15250.00000	101.36862	27.55563	101.36862
15300.00000	101.07775	21.27815	101.07775
15350.00000	101.09426	15.60844	101.09426
15400.00000	101.15404	 9.31606	101.15404
15450.00000	101.31682	 2.79467	101.31682
15500.00000	101.65725	-1.59963	101.65725
15550.00000	102.03170	-5.26735	102.03170
15600.00000	102.44432	-8.40299	102.44432
15650.00000	102.79696	-9.93669	102.79696
15700.00000	102.90062	-11.47717	102.90062
15750.00000	103.05213	-11.43241	103.05213
15800.00000	102.92517	-12.16775	102.92517
15850.00000	102.87156	-12.68359	102.87156
15900.00000	102.58930	-15.43383	102.58930
15950.00000	102.46663	-18.15112	102.46663
16000.00000	102.34743	-21.52266	102.34743
16050.00000	102.37156	-25.53351	102.37156
16100.00000	102.41461	-28.93734	102.41461
16150.00000	102.60833	-32.90756	102.60833
16200.00000	102.81099	-36.18414	102.81099
16250.00000	103.06620	-39.84103	103.06620
16300.00000	103.30355	-42.93299	103.30355
16350.00000	103.58222	-45.53210	103.58222
16400.00000	103.70129	-47.52082	103.70129
16450.00000	103.88225	-49.43689	103.88225
16500.00000	103.93119	-51.69910	103.93119
16550.00000	103.89685	-53.58605	103.89685
16600.00000	103.94700	-55.99607	103.94700
16650.00000	103.94476	-59.07342	103.94476
16700.00000	104.00843	-62.20877	104.00843
16750.00000	104.07211	-65.48454	104.07211
16800.00000	104.19263	-68.77417	104.19263
16850.00000	104.34540	-72.53404	104.34540
16900.00000	104.52945	-75.37491	104.52945
16950.00000	104.64908	-78.72955	104.64908
17000.00000	104.79976	-81.78268	104.79976
17050.00000	104.87925	-84.32421	104.87925
17100.00000	104.97222	-86.93670	104.97222
17150.00000	105.03280	-89.73891	105.03280
17200.00000	105.00784	-92.37073	105.00784
17250.00000	105.01993	-95.39892	105.01993
17300.00000	104.99683	-98.58558	104.99683
17350.00000	105.03754	-101.87787	105.03754
17400.00000	105.03093	-105.39327	105.03093
17450.00000	105.07469	-108.25110	105.07469
17500.00000	105.10895	-111.30612	105.10895
17550.00000	105.18227	-114.76399	105.18227
17600.00000	105.27814	-117.48890	105.27814
17650.00000	105.32674	-120.50493	105.32674
17700.00000	105.40098	-123.50429	105.40098
17750.00000	105.44649	-126.28959	105.44649
17800.00000	105.44340	-129.28380	105.44340
17850.00000	105.42479	-132.11114	105.42479
17900.00000	105.45104	-135.05960	105.45104
17950.00000	105.41264	-138.05986	105.41264
18000.00000	105.40728	-141.22856	105.40728
18050.00000	105.35694	-144.33046	105.35694
18100.00000	105.31810	-147.38017	105.31810
18150.00000	105.28266	-150.35401	105.28266
18200.00000	105.22684	-153.26568	105.22684
18250.00000	105.20243	-156.06011	105.20243
18300.00000	105.17000	-159.02216	105.17000
18350.00000	105.11451	-162.15120	105.11451
18400.00000	105.03395	-164.82620	105.03395
18450.00000	104.95476	-167.35481	104.95476
18500.00000	104.94112	-169.94409	104.94112
18550.00000	104.87546	-172.70457	104.87546
18600.00000	104.80530	-175.02903	104.80530
18650.00000	104.80309	-177.68262	104.80309
18700.00000	104.75960	-180.16638	104.75960
18750.00000	104.69056	-182.74031	104.69056
18800.00000	104.61449	-185.21131	104.61449
18850.00000	104.54345	-187.50737	104.54345
18900.00000	104.44886	-189.77375	104.44886
18950.00000	104.36007	-192.04724	104.36007
19000.00000	104.31719	-194.38350	104.31719
19050.00000	104.28570	-196.64617	104.28570
19100.00000	104.22601	-198.97028	104.22601
19150.00000	104.17352	-200.82373	104.17352
19200.00000	104.15954	-203.16509	104.15954
19250.00000	104.10143	-205.17379	104.10143
19300.00000	104.10289	-207.36687	104.10289
19350.00000	104.05436	-209.46514	104.05436
19400.00000	104.00287	-211.26999	104.00287
19450.00000	104.00436	-213.43432	104.00436
19500.00000	104.02341	-215.21255	104.02341
19550.00000	104.03961	-217.33380	104.03961
19600.00000	104.05205	-219.36499	104.05205
19650.00000	104.09119	-221.61060	104.09119
19700.00000	104.12154	-223.95335	104.12154
19750.00000	104.09369	-226.06814	104.09369
19800.00000	104.11906	-227.95171	104.11906
19850.00000	104.12802	-230.43638	104.12802
19900.00000	104.13146	-232.68283	104.13146
19950.00000	104.15945	-234.66519	104.15945
20000.00000	104.17345	-237.24527	104.17345
20050.00000	104.17721	-239.39231	104.17721
20100.00000	104.20601	-241.57233	104.20601
20150.00000	104.22484	-243.87879	104.22484
20200.00000	104.27591	-246.24846	104.27591
20250.00000	104.27987	-248.25225	104.27987
20300.00000	104.33396	-250.45099	104.33396
20350.00000	104.36724	-252.77722	104.36724
20400.00000	104.39636	-255.07879	104.39636
20450.00000	104.42813	-257.57134	104.42813
20500.00000	104.44644	-260.01450	104.44644
20550.00000	104.48496	-262.57887	104.48496
20600.00000	104.48652	-264.98583	104.48652
20650.00000	104.48707	-267.45216	104.48707
20700.00000	104.53332	-269.39184	104.53332
20750.00000	104.55339	-271.77652	104.55339
20800.00000	104.54381	-274.20640	104.54381
20850.00000	104.58950	-276.75195	104.58950
20900.00000	104.61495	-279.10609	104.61495
20950.00000	104.65051	-281.70748	104.65051
21000.00000	104.71749	-284.31412	104.71749
21050.00000	104.73786	-286.99348	104.73786
21100.00000	104.76269	-289.64849	104.76269
21150.00000	104.76404	-292.02151	104.76404
21200.00000	104.76173	-294.39114	104.76173
21250.00000	104.74339	-296.90512	104.74339
21300.00000	104.73630	-299.74546	104.73630
21350.00000	104.74644	-302.32155	104.74644
21400.00000	104.73432	-305.19145	104.73432
21450.00000	104.78639	-307.64403	104.78639
21500.00000	104.82138	-310.24670	104.82138
21550.00000	104.81949	-312.73701	104.81949
21600.00000	104.81362	-315.59859	104.81362
21650.00000	104.80587	-318.07261	104.80587
21700.00000	104.73988	-321.15132	104.73988
21750.00000	104.75120	-323.69786	104.75120
21800.00000	104.71173	-326.81156	104.71173
21850.00000	104.66843	-329.54737	104.66843
21900.00000	104.65627	-332.03289	104.65627
21950.00000	104.64041	-334.89020	104.64041
22000.00000	104.55759	-337.53675	104.55759
22050.00000	104.47936	-340.10382	104.47936
22100.00000	104.42133	-342.52502	104.42133
22150.00000	104.38362	-345.02747	104.38362
22200.00000	104.32651	-347.87729	104.32651
22250.00000	104.29530	-350.44844	104.29530
22300.00000	104.24689	-353.14701	104.24689
22350.00000	104.17032	-356.02532	104.17032
22400.00000	104.08287	-358.84314	104.08287
22450.00000	104.02595	-361.46652	104.02595
22500.00000	103.89845	-363.90849	103.89845
22550.00000	103.82368	-366.50071	103.82368
22600.00000	103.70597	-368.73269	103.70597
22650.00000	103.59939	-371.04475	103.59939
22700.00000	103.46036	-373.30792	103.46036
22750.00000	103.41220	-375.77537	103.41220
22800.00000	103.29299	-378.13003	103.29299
22850.00000	103.17733	-380.49542	103.17733
22900.00000	103.13266	-382.40040	103.13266
22950.00000	103.05084	-384.84907	103.05084
23000.00000	102.95300	-387.26803	102.95300
23050.00000	102.82588	-389.19212	102.82588
23100.00000	102.76354	-391.36578	102.76354
23150.00000	102.62753	-393.36276	102.62753
23200.00000	102.53180	-395.95804	102.53180
23250.00000	102.53246	-397.89608	102.53246
23300.00000	102.46619	-400.55822	102.46619
23350.00000	102.31625	-402.30145	102.31625
23400.00000	102.23827	-404.11104	102.23827
23450.00000	102.15179	-406.22120	102.15179
23500.00000	102.12048	-408.05075	102.12048
23550.00000	102.01240	-410.27500	102.01240
23600.00000	101.97434	-412.29644	101.97434
23650.00000	101.81677	-413.74938	101.81677
23700.00000	101.81314	-415.93374	101.81314
23750.00000	101.78203	-417.76500	101.78203
23800.00000	101.68049	-419.65459	101.68049
23850.00000	101.66878	-421.91786	101.66878
23900.00000	101.56619	-424.12678	101.56619
23950.00000	101.47147	-425.70997	101.47147
24000.00000	101.49438	-427.81304	101.49438
24050.00000	101.39583	-430.02608	101.39583
24100.00000	101.34689	-431.83370	101.34689
24150.00000	101.32574	-433.85049	101.32574
24200.00000	101.26774	-436.27228	101.26774
24250.00000	101.20492	-437.72988	101.20492
24300.00000	101.17922	-439.90716	101.17922
24350.00000	101.18754	-441.67707	101.18754
24400.00000	101.14856	-443.89225	101.14856
24450.00000	101.04667	-445.22522	101.04667
24500.00000	101.00493	-448.26276	101.00493
24550.00000	100.91362	-450.43682	100.91362
24600.00000	100.93339	-452.63530	100.93339
24650.00000	100.88985	-454.79438	100.88985
24700.00000	100.82873	-457.02497	100.82873
24750.00000	100.85059	-459.47384	100.85059
24800.00000	100.72687	-461.37891	100.72687
24850.00000	100.67753	-463.44845	100.67753
24900.00000	100.52563	-465.13498	100.52563
24950.00000	100.57196	-467.31363	100.57196
25000.00000	100.43931	-469.93531	100.43931
25050.00000	100.42448	-471.41116	100.42448
25100.00000	100.36675	-473.09941	100.36675
25150.00000	100.21683	-475.19200	100.21683
25200.00000	100.17095	-477.17131	100.17095
25250.00000	100.04982	-479.54399	100.04982
25300.00000	99.93935	-481.35516	99.93935
25350.00000	99.93132	-483.71237	99.93132
25400.00000	99.86573	-485.37031	99.86573
25450.00000	99.83071	-488.10383	99.83071
25500.00000	99.75645	-489.57916	99.75645
25550.00000	99.64067	-491.64030	99.64067
25600.00000	99.57857	-493.20571	99.57857
25650.00000	99.43664	-495.88183	99.43664
25700.00000	99.41721	-497.25210	99.41721
25750.00000	99.38490	-499.81894	99.38490
25800.00000	99.28403	-501.01053	99.28403
25850.00000	99.19467	-503.16790	99.19467
25900.00000	99.06027	-505.17838	99.06027
25950.00000	98.99394	-506.68901	98.99394
26000.00000	98.91881	-508.30564	98.91881
26050.00000	98.93693	-510.63280	98.93693
26100.00000	98.85904	-512.17482	98.85904
26150.00000	98.73204	-514.43826	98.73204
26200.00000	98.61655	-515.63763	98.61655
26250.00000	98.58586	-517.52895	98.58586
26300.00000	98.44856	-519.65619	98.44856
26350.00000	98.41235	-521.30806	98.41235
26400.00000	98.38456	-523.42340	98.38456
26450.00000	98.27457	-525.46415	98.27457
26500.00000	98.21719	-526.97796	98.21719
26550.00000	98.16370	-528.13282	98.16370
26600.00000	98.08777	-529.98172	98.08777
26650.00000	98.02180	-532.00350	98.02180
26700.00000	97.94704	-533.80562	97.94704
26750.00000	97.83752	-535.32105	97.83752
26800.00000	97.77319	-537.30193	97.77319
26850.00000	97.70698	-538.44428	97.70698
26900.00000	97.62136	-540.51015	97.62136
26950.00000	97.53348	-542.38001	97.53348
27000.00000	97.43513	-543.86599	97.43513
27050.00000	97.38997	-545.24428	97.38997
27100.00000	97.30691	-547.12591	97.30691
27150.00000	97.23086	-548.75404	97.23086
27200.00000	97.19223	-550.66316	97.19223
27250.00000	97.07774	-552.20372	97.07774
27300.00000	97.01430	-553.68017	97.01430
27350.00000	96.91047	-555.25538	96.91047
27400.00000	96.84981	-556.61219	96.84981
27450.00000	96.86310	-558.71449	96.86310
27500.00000	96.66821	-559.83559	96.66821
27550.00000	96.63659	-561.37067	96.63659
27600.00000	96.55781	-562.92664	96.55781
27650.00000	96.46221	-564.53777	96.46221
27700.00000	96.33843	-566.30361	96.33843
27750.00000	96.26283	-567.34464	96.26283
27800.00000	96.16718	-569.14341	96.16718
27850.00000	96.10897	-570.44358	96.10897
27900.00000	96.02833	-571.90834	96.02833
27950.00000	95.94539	-572.66257	95.94539
28000.00000	95.86470	-573.75951	95.86470
28050.00000	95.74832	-575.13686	95.74832
28100.00000	95.62155	-576.14601	95.62155
28150.00000	95.54531	-577.42904	95.54531
28200.00000	95.51180	-578.13236	95.51180
28250.00000	95.43928	-579.27040	95.43928
28300.00000	95.39002	-580.71418	95.39002
28350.00000	95.30512	-581.27728	95.30512
28400.00000	95.22611	-582.27501	95.22611
28450.00000	95.20024	-583.16061	95.20024
28500.00000	95.17459	-584.35813	95.17459
28550.00000	95.15025	-585.32176	95.15025
28600.00000	95.24301	-586.11817	95.24301
28650.00000	95.17359	-586.66649	95.17359
28700.00000	95.11932	-587.87163	95.11932
28750.00000	95.10001	-588.78537	95.10001
28800.00000	95.02208	-590.08920	95.02208
28850.00000	95.05323	-590.86240	95.05323
28900.00000	95.10622	-591.75785	95.10622
28950.00000	95.04197	-592.47376	95.04197
29000.00000	95.10666	-593.18796	95.10666
29050.00000	95.17143	-594.05206	95.17143
29100.00000	95.12245	-594.56194	95.12245
29150.00000	95.17003	-596.31388	95.17003
29200.00000	95.28381	-596.39790	95.28381
29250.00000	95.16966	-597.13309	95.16966
29300.00000	95.29786	-598.10348	95.29786
29350.00000	95.32980	-598.87916	95.32980
29400.00000	95.33898	-599.90176	95.33898
29450.00000	95.45303	-600.89027	95.45303
29500.00000	95.55029	-601.90226	95.55029
29550.00000	95.66125	-602.64023	95.66125
29600.00000	95.70071	-603.41896	95.70071
29650.00000	95.75506	-604.48569	95.75506
29700.00000	95.83089	-605.05097	95.83089
29750.00000	95.92356	-606.52530	95.92356
29800.00000	95.99732	-607.14321	95.99732
29850.00000	96.13796	-607.89472	96.13796
29900.00000	96.23507	-609.09026	96.23507
29950.00000	96.31491	-609.77985	96.31491
30000.00000	96.46577	-611.08363	96.46577
30050.00000	96.53471	-611.71658	96.53471
30100.00000	96.67066	-612.84837	96.67066
30150.00000	96.75524	-613.71849	96.75524
30200.00000	96.91355	-614.65595	96.91355
30250.00000	97.02493	-615.75463	97.02493
30300.00000	97.18634	-616.95469	97.18634
30350.00000	97.38020	-618.11673	97.38020
30400.00000	97.49172	-619.05221	97.49172
30450.00000	97.65933	-620.01550	97.65933
30500.00000	97.86303	-621.46811	97.86303
30550.00000	97.98598	-622.77739	97.98598
30600.00000	98.16259	-623.91532	98.16259
30650.00000	98.36872	-624.92824	98.36872
30700.00000	98.58702	-626.39641	98.58702
30750.00000	98.68478	-627.90427	98.68478
30800.00000	98.83926	-629.09133	98.83926
30850.00000	99.02348	-630.70735	99.02348
30900.00000	99.19981	-632.07220	99.19981
30950.00000	99.39031	-633.42646	99.39031
31000.00000	99.56546	-634.89384	99.56546
31050.00000	99.74653	-636.17567	99.74653
31100.00000	99.96293	-637.82876	99.96293
31150.00000	100.13206	-639.36702	100.13206
31200.00000	100.31145	-640.92689	100.31145
31250.00000	100.52506	-642.63610	100.52506
31300.00000	100.72505	-644.25364	100.72505
31350.00000	100.92692	-645.78580	100.92692
31400.00000	101.14355	-647.50537	101.14355
31450.00000	101.33395	-649.21159	101.33395
31500.00000	101.51671	-651.26434	101.51671
31550.00000	101.71070	-653.12025	101.71070
31600.00000	101.88224	-655.16000	101.88224
31650.00000	102.11164	-656.97287	102.11164
31700.00000	102.28638	-659.01436	102.28638
31750.00000	102.48495	-660.80874	102.48495
31800.00000	102.66961	-662.86246	102.66961
31850.00000	102.85836	-664.72399	102.85836
31900.00000	103.05339	-667.04755	103.05339
31950.00000	103.23021	-669.12322	103.23021
32000.00000	103.39654	-671.23958	103.39654
32050.00000	103.57261	-673.26777	103.57261
32100.00000	103.76256	-675.33087	103.76256
32150.00000	103.93420	-677.55264	103.93420
32200.00000	104.11209	-679.64549	104.11209
32250.00000	104.28687	-681.87943	104.28687
32300.00000	104.43217	-683.98559	104.43217
32350.00000	104.61295	-686.14186	104.61295
32400.00000	104.74765	-688.51710	104.74765
32450.00000	104.92779	-690.68794	104.92779
32500.00000	105.02939	-692.85544	105.02939
32550.00000	105.17998	-694.71413	105.17998
32600.00000	105.37784	-696.96532	105.37784
32650.00000	105.54064	-699.18319	105.54064
32700.00000	105.69053	-701.26898	105.69053
32750.00000	105.86130	-703.57266	105.86130
32800.00000	106.00062	-705.72047	106.00062
32850.00000	106.19597	-707.97276	106.19597
32900.00000	106.34557	-710.08670	106.34557
32950.00000	106.49221	-712.27063	106.49221
33000.00000	106.68007	-714.53809	106.68007
33050.00000	106.85499	-716.61296	106.85499
33100.00000	107.04876	-719.01781	107.04876
33150.00000	107.20855	-721.05068	107.20855
33200.00000	107.40177	-723.47653	107.40177
33250.00000	107.56413	-725.79643	107.56413
33300.00000	107.73516	-728.12836	107.73516
33350.00000	107.93990	-730.49243	107.93990
33400.00000	108.11471	-732.94343	108.11471
33450.00000	108.29873	-735.51412	108.29873
33500.00000	108.49016	-737.88263	108.49016
33550.00000	108.66327	-740.47397	108.66327
33600.00000	108.85692	-743.05642	108.85692
33650.00000	109.02269	-745.66390	109.02269
33700.00000	109.19838	-748.47687	109.19838
33750.00000	109.35236	-751.13020	109.35236
33800.00000	109.53929	-753.95348	109.53929
33850.00000	109.70178	-756.66928	109.70178
33900.00000	109.82933	-759.56306	109.82933
33950.00000	109.98223	-762.23070	109.98223
34000.00000	110.13198	-764.81550	110.13198
34050.00000	110.26727	-767.54686	110.26727
34100.00000	110.41659	-770.43600	110.41659
34150.00000	110.55420	-773.33652	110.55420
34200.00000	110.67149	-776.14291	110.67149
34250.00000	110.79659	-778.90483	110.79659
34300.00000	110.90454	-781.90893	110.90454
34350.00000	111.02829	-784.70475	111.02829
34400.00000	111.14275	-787.40944	111.14275
34450.00000	111.23758	-790.17608	111.23758
34500.00000	111.34121	-792.87703	111.34121
34550.00000	111.49254	-795.65128	111.49254
34600.00000	111.62466	-798.49532	111.62466
34650.00000	111.75189	-801.51646	111.75189
34700.00000	111.84041	-804.34082	111.84041
34750.00000	111.94246	-807.53694	111.94246
34800.00000	112.01517	-810.80482	112.01517
34850.00000	112.01530	-813.75992	112.01530
34900.00000	112.00755	-816.14313	112.00755
34950.00000	112.03330	-818.34982	112.03330
35000.00000	112.11096	-820.33424	112.11096
35050.00000	112.25796	-822.55111	112.25796
35100.00000	112.40620	-824.85150	112.40620
35150.00000	112.55846	-827.27303	112.55846
35200.00000	112.71888	-829.87447	112.71888
35250.00000	112.87319	-832.65652	112.87319
35300.00000	113.02032	-835.27467	113.02032
35350.00000	113.18881	-838.09723	113.18881
35400.00000	113.36820	-840.97074	113.36820
35450.00000	113.50734	-843.91226	113.50734
35500.00000	113.66412	-846.95985	113.66412
35550.00000	113.79128	-849.96373	113.79128
35600.00000	113.95722	-853.05488	113.95722
35650.00000	114.10120	-856.24226	114.10120
35700.00000	114.21707	-859.53983	114.21707
35750.00000	114.34237	-862.63599	114.34237
35800.00000	114.47638	-866.03951	114.47638
35850.00000	114.59226	-869.39571	114.59226
35900.00000	114.69920	-872.74334	114.69920
35950.00000	114.79529	-876.21012	114.79529
36000.00000	114.88702	-879.61608	114.88702
36050.00000	114.95748	-883.22223	114.95748
36100.00000	115.02424	-886.60469	115.02424
36150.00000	115.06236	-890.28451	115.06236
36200.00000	115.12003	-893.74607	115.12003
36250.00000	115.15298	-897.27101	115.15298
36300.00000	115.17097	-900.76592	115.17097
36350.00000	115.17102	-904.26717	115.17102
36400.00000	115.17704	-907.80814	115.17704
36450.00000	115.16821	-911.37185	115.16821
36500.00000	115.14239	-914.77863	115.14239
36550.00000	115.09919	-918.24646	115.09919
36600.00000	115.04259	-921.66039	115.04259
36650.00000	114.97011	-924.94595	114.97011
36700.00000	114.89215	-928.17034	114.89215
36750.00000	114.81392	-931.30863	114.81392
36800.00000	114.73814	-934.47859	114.73814
36850.00000	114.63235	-937.35596	114.63235
36900.00000	114.53478	-940.33526	114.53478
36950.00000	114.41256	-943.22846	114.41256
37000.00000	114.30129	-945.96344	114.30129
37050.00000	114.17635	-948.61553	114.17635
37100.00000	114.04257	-951.23855	114.04257
37150.00000	113.90960	-953.48746	113.90960
37200.00000	113.78265	-955.67029	113.78265
37250.00000	113.66239	-957.71720	113.66239
37300.00000	113.54875	-959.61789	113.54875
37350.00000	113.43681	-961.41316	113.43681
37400.00000	113.35067	-963.10346	113.35067
37450.00000	113.26385	-964.58439	113.26385
37500.00000	113.19112	-965.80896	113.19112
37550.00000	113.17070	-967.06131	113.17070
37600.00000	113.16011	-968.15128	113.16011
37650.00000	113.20368	-969.07382	113.20368
37700.00000	113.26845	-969.82828	113.26845
37750.00000	113.40294	-970.73452	113.40294
37800.00000	113.58689	-971.60128	113.58689
37850.00000	113.80429	-972.66950	113.80429
37900.00000	114.06710	-973.95573	114.06710
37950.00000	114.36825	-975.41825	114.36825
38000.00000	114.70293	-977.14670	114.70293
38050.00000	115.04323	-979.37073	115.04323
38100.00000	115.39239	-981.72386	115.39239
38150.00000	115.73431	-984.52731	115.73431
38200.00000	116.08034	-987.51803	116.08034
38250.00000	116.40008	-990.69245	116.40008
38300.00000	116.71090	-994.16736	116.71090
38350.00000	116.99078	-997.83812	116.99078
38400.00000	117.25083	-1001.71094	117.25083
38450.00000	117.47489	-1005.58463	117.47489
38500.00000	117.66658	-1009.51196	117.66658
38550.00000	117.85294	-1013.53020	117.85294
38600.00000	118.01009	-1017.53322	118.01009
38650.00000	118.15125	-1021.60231	118.15125
38700.00000	118.27650	-1025.63118	118.27650
38750.00000	118.39544	-1029.62686	118.39544
38800.00000	118.49038	-1033.66609	118.49038
38850.00000	118.58918	-1037.71761	118.58918
38900.00000	118.66530	-1041.69580	118.66530
38950.00000	118.73874	-1045.73359	118.73874
39000.00000	118.80066	-1049.74473	118.80066
39050.00000	118.85526	-1053.76918	118.85526
39100.00000	118.90224	-1057.88982	118.90224
39150.00000	118.93347	-1061.95522	118.93347
39200.00000	118.95291	-1065.99947	118.95291
39250.00000	118.96926	-1069.94694	118.96926
39300.00000	118.97020	-1073.92644	118.97020
39350.00000	118.97222	-1077.80958	118.97222
39400.00000	118.97946	-1081.80215	118.97946
39450.00000	118.99830	-1085.70667	118.99830
39500.00000	118.99976	-1089.71860	118.99976
39550.00000	119.01476	-1093.75931	119.01476
39600.00000	119.00674	-1097.99258	119.00674
39650.00000	118.99658	-1102.23708	118.99658
39700.00000	118.96484	-1106.49713	118.96484
39750.00000	118.91229	-1110.80730	118.91229
39800.00000	118.83408	-1115.09762	118.83408
39850.00000	118.74949	-1119.41617	118.74949
39900.00000	118.63902	-1123.66783	118.63902
39950.00000	118.51998	-1127.87488	118.51998
40000.00000	118.39085	-1132.04812	118.39085
40050.00000	118.23595	-1136.20716	118.23595
40100.00000	118.07942	-1140.34764	118.07942
40150.00000	117.91528	-1144.32200	117.91528
40200.00000	117.74073	-1148.38839	117.74073
40250.00000	117.54267	-1152.30863	117.54267
40300.00000	117.32801	-1156.19452	117.32801
40350.00000	117.11176	-1160.00714	117.11176
40400.00000	116.88340	-1163.75046	116.88340
40450.00000	116.64198	-1167.44866	116.64198
40500.00000	116.39007	-1170.88900	116.39007
40550.00000	116.12391	-1174.42387	116.12391
40600.00000	115.86328	-1177.73983	115.86328
40650.00000	115.58635	-1180.98251	115.58635
40700.00000	115.31957	-1184.12437	115.31957
40750.00000	115.02957	-1187.13687	115.02957
40800.00000	114.74951	-1189.99646	114.74951
40850.00000	114.45898	-1192.77413	114.45898
40900.00000	114.19716	-1195.39953	114.19716
40950.00000	113.91736	-1197.95026	113.91736
41000.00000	113.65534	-1200.34706	113.65534
41050.00000	113.40248	-1202.65015	113.40248
41100.00000	113.15400	-1204.84958	113.15400
41150.00000	112.94422	-1207.03408	112.94422
41200.00000	112.72066	-1209.12655	112.72066
41250.00000	112.49809	-1211.02467	112.49809
41300.00000	112.31865	-1213.08213	112.31865
41350.00000	112.12860	-1215.00432	112.12860
41400.00000	111.98227	-1216.85272	111.98227
41450.00000	111.83050	-1218.66285	111.83050
41500.00000	111.66482	-1220.51263	111.66482
41550.00000	111.55218	-1222.48917	111.55218
41600.00000	111.43675	-1224.36098	111.43675
41650.00000	111.36531	-1226.27460	111.36531
41700.00000	111.28523	-1228.14570	111.28523
41750.00000	111.20442	-1230.14104	111.20442
41800.00000	111.13811	-1232.29398	111.13811
41850.00000	111.08087	-1234.56610	111.08087
41900.00000	111.04804	-1236.82245	111.04804
41950.00000	110.97770	-1239.15631	110.97770
42000.00000	110.94579	-1241.51946	110.94579
42050.00000	110.88920	-1244.13604	110.88920
42100.00000	110.86625	-1246.70347	110.86625
42150.00000	110.78274	-1249.51191	110.78274
42200.00000	110.71592	-1252.26814	110.71592
42250.00000	110.60329	-1255.13983	110.60329
42300.00000	110.49672	-1257.86719	110.49672
42350.00000	110.37455	-1260.72504	110.37455
42400.00000	110.25728	-1263.62831	110.25728
42450.00000	110.07640	-1266.42546	110.07640
42500.00000	109.91333	-1269.24431	109.91333
42550.00000	109.73480	-1272.19034	109.73480
42600.00000	109.53729	-1274.88064	109.53729
42650.00000	109.34704	-1277.45829	109.34704
42700.00000	109.09553	-1279.85746	109.09553
42750.00000	108.87684	-1282.45949	108.87684
42800.00000	108.57236	-1284.69001	108.57236
42850.00000	108.37152	-1286.61951	108.37152
42900.00000	108.17120	-1288.51635	108.17120
42950.00000	107.88969	-1290.64222	107.88969
43000.00000	107.64163	-1292.22014	107.64163
43050.00000	107.42429	-1294.22953	107.42429
43100.00000	107.24867	-1295.71422	107.24867
43150.00000	106.95582	-1297.02034	106.95582
43200.00000	106.74542	-1298.32549	106.74542
43250.00000	106.56141	-1299.58752	106.56141
43300.00000	106.38617	-1300.94421	106.38617
43350.00000	106.18275	-1301.35692	106.18275
43400.00000	106.07426	-1302.30498	106.07426
43450.00000	105.88792	-1303.22609	105.88792
43500.00000	105.74109	-1303.58391	105.74109
43550.00000	105.72346	-1304.47263	105.72346
43600.00000	105.55088	-1305.03663	105.55088
43650.00000	105.60879	-1305.02718	105.60879
43700.00000	105.53660	-1305.80347	105.53660
43750.00000	105.54913	-1306.81907	105.54913
43800.00000	105.58640	-1307.40964	105.58640
43850.00000	105.57554	-1307.78452	105.57554
43900.00000	105.77936	-1308.77520	105.77936
43950.00000	105.72993	-1309.25617	105.72993
44000.00000	105.89516	-1310.36111	105.89516
44050.00000	105.99598	-1310.88764	105.99598
44100.00000	106.20440	-1312.03931	106.20440
44150.00000	106.35998	-1313.30483	106.35998
44200.00000	106.51350	-1315.06102	106.51350
44250.00000	106.74662	-1316.52553	106.74662
44300.00000	106.97013	-1318.11490	106.97013
44350.00000	107.16256	-1320.13153	107.16256
44400.00000	107.37482	-1322.06635	107.37482
44450.00000	107.57964	-1324.52410	107.57964
44500.00000	107.77676	-1326.46498	107.77676
44550.00000	107.97868	-1328.70086	107.97868
44600.00000	108.18113	-1331.22865	108.18113
44650.00000	108.27653	-1333.74264	108.27653
44700.00000	108.53123	-1336.45015	108.53123
44750.00000	108.63787	-1339.30818	108.63787
44800.00000	108.74709	-1341.74511	108.74709
44850.00000	108.96559	-1345.19249	108.96559
44900.00000	109.07155	-1347.75179	109.07155
44950.00000	109.16926	-1350.83455	109.16926
45000.00000	109.27725	-1353.58166	109.27725
45050.00000	109.37268	-1356.87736	109.37268
45100.00000	109.49135	-1359.69376	109.49135
45150.00000	109.56661	-1362.59688	109.56661
45200.00000	109.64266	-1365.94688	109.64266
45250.00000	109.79905	-1368.63977	109.79905
45300.00000	110.07709	-1372.08008	110.07709
45350.00000	110.07379	-1374.69817	110.07379
45400.00000	110.23110	-1378.21838	110.23110
45450.00000	110.32429	-1381.55784	110.32429
45500.00000	110.37198	-1385.39523	110.37198
45550.00000	110.49938	-1388.60385	110.49938
45600.00000	110.53708	-1392.66893	110.53708
45650.00000	110.58219	-1396.40170	110.58219
45700.00000	110.58993	-1400.03541	110.58993
45750.00000	110.58277	-1403.50514	110.58277
45800.00000	110.59200	-1407.34470	110.59200
45850.00000	110.57474	-1411.34962	110.57474
45900.00000	110.54862	-1414.77127	110.54862
45950.00000	110.51658	-1418.66620	110.51658
46000.00000	110.49299	-1422.45809	110.49299
46050.00000	110.46619	-1426.18586	110.46619
46100.00000	110.44191	-1430.06058	110.44191
46150.00000	110.39251	-1433.77617	110.39251
46200.00000	110.25464	-1437.70570	110.25464
46250.00000	110.16903	-1441.38517	110.16903
46300.00000	110.03616	-1445.06334	110.03616
46350.00000	109.93129	-1448.47362	109.93129
46400.00000	109.83271	-1452.46387	109.83271
46450.00000	109.76864	-1455.59239	109.76864
46500.00000	109.58423	-1459.27681	109.58423
46550.00000	109.39751	-1462.62224	109.39751
46600.00000	109.34233	-1466.71934	109.34233
46650.00000	109.17874	-1469.77800	109.17874
46700.00000	109.00182	-1473.50149	109.00182
46750.00000	108.79921	-1476.82688	108.79921
46800.00000	108.62393	-1480.21984	108.62393
46850.00000	108.41040	-1484.03294	108.41040
46900.00000	108.28670	-1487.48989	108.28670
46950.00000	108.03505	-1489.94287	108.03505
47000.00000	107.82754	-1493.47714	107.82754
47050.00000	107.59397	-1496.41375	107.59397
47100.00000	107.46366	-1499.42134	107.46366
47150.00000	107.19519	-1502.56649	107.19519
47200.00000	106.99318	-1506.07907	106.99318
47250.00000	106.71868	-1508.54968	106.71868
47300.00000	106.56913	-1511.39945	106.56913
47350.00000	106.35172	-1513.92307	106.35172
47400.00000	106.13540	-1516.49736	106.13540
47450.00000	105.90822	-1518.87436	105.90822
47500.00000	105.73512	-1521.92297	105.73512
47550.00000	105.53141	-1524.88102	105.53141
47600.00000	105.32626	-1527.33151	105.32626
47650.00000	105.19021	-1530.03028	105.19021
47700.00000	105.04656	-1533.20516	105.04656
47750.00000	104.80821	-1535.54672	104.80821
47800.00000	104.63513	-1538.24082	104.63513
47850.00000	104.52670	-1540.42097	104.52670
47900.00000	104.29748	-1542.80888	104.29748
47950.00000	104.14456	-1546.30147	104.14456
48000.00000	103.99385	-1549.26072	103.99385
48050.00000	103.79032	-1552.35043	103.79032
48100.00000	103.62850	-1555.57161	103.62850
48150.00000	103.48548	-1557.78151	103.48548
48200.00000	103.16960	-1560.80192	103.16960
48250.00000	102.93907	-1563.48694	102.93907
48300.00000	102.80742	-1566.27150	102.80742
48350.00000	102.71501	-1568.29401	102.71501
48400.00000	102.43322	-1571.45738	102.43322
48450.00000	102.21976	-1574.00610	102.21976
48500.00000	101.98022	-1577.86149	101.98022
48550.00000	101.70522	-1579.08995	101.70522
48600.00000	101.38913	-1583.90802	101.38913
48650.00000	101.17760	-1586.52443	101.17760
48700.00000	100.85166	-1589.10530	100.85166
48750.00000	100.57735	-1593.66561	100.57735
48800.00000	100.04998	-1594.95974	100.04998
48850.00000	99.68337	-1599.23568	99.68337
48900.00000	99.49961	-1601.38819	99.49961
48950.00000	98.90057	-1602.41226	98.90057
49000.00000	98.50270	-1605.86406	98.50270
49050.00000	98.16817	-1607.36523	98.16817
49100.00000	97.85697	-1608.10436	97.85697
49150.00000	97.34916	-1608.52067	97.34916
49200.00000	96.69655	-1251.52600	96.69655
49250.00000	96.47251	-1252.17290	96.47251
49300.00000	96.01810	-1253.01604	96.01810
49350.00000	95.62269	-1252.82918	95.62269
49400.00000	94.97723	-895.46823	94.97723
49450.00000	94.91154	-893.40957	94.91154
49500.00000	94.72419	-534.55310	94.72419
49550.00000	94.24923	-533.52641	94.24923
49600.00000	94.17785	-174.87301	94.17785
49650.00000	94.19225	-174.85781	94.19225
49700.00000	93.93644	184.81857	93.93644
49750.00000	93.59177	186.80853	93.59177
49800.00000	93.96791	187.46118	93.96791
49850.00000	93.75200	905.43254	93.75200
49900.00000	93.54436	906.60917	93.54436
49950.00000	93.79108	1265.49853	93.79108
50000.00000	93.79922	1265.85812	93.79922
50050.00000	93.85151	1266.28827	93.85151
50100.00000	93.68865	1263.19809	93.68865
50150.00000	93.95572	1262.14820	93.95572
50200.00000	94.30530	1261.66274	94.30530
50250.00000	94.29801	1259.28953	94.29801
50300.00000	94.28788	1259.04484	94.28788
50350.00000	94.36033	1258.79079	94.36033
50400.00000	94.80603	1255.22402	94.80603
50450.00000	94.86042	1252.02840	94.86042
50500.00000	94.83748	1252.91877	94.83748
50550.00000	94.83588	1251.31280	94.83588
50600.00000	95.09192	1248.97252	95.09192
50650.00000	95.06850	1246.38911	95.06850
50700.00000	94.91968	1242.57759	94.91968
50750.00000	94.96859	1239.98196	94.96859
50800.00000	95.12596	1238.69057	95.12596
50850.00000	95.16833	1235.63992	95.16833
50900.00000	95.00478	1231.97954	95.00478
50950.00000	95.14225	1230.07858	95.14225
51000.00000	95.26089	1226.86196	95.26089
51050.00000	95.21917	1225.37284	95.21917
51100.00000	95.10120	1220.77651	95.10120
51150.00000	95.03297	1217.54497	95.03297
51200.00000	94.94212	1214.21141	94.94212
51250.00000	94.80011	1210.45096	94.80011
51300.00000	94.78011	1208.82758	94.78011
51350.00000	94.48997	1206.25889	94.48997
51400.00000	94.50293	1202.33255	94.50293
51450.00000	94.27846	1200.40802	94.27846
51500.00000	93.85259	1196.82383	93.85259
51550.00000	93.79712	1194.41423	93.79712
51600.00000	93.19390	1191.93783	93.19390
51650.00000	92.79928	1187.00341	92.79928
51700.00000	92.88355	1184.41846	92.88355
51750.00000	92.31304	1184.04453	92.31304
51800.00000	91.98668	1183.55960	91.98668
51850.00000	91.83430	1181.32837	91.83430
51900.00000	91.60360	1178.74886	91.60360
51950.00000	90.94315	1180.86616	90.94315
52000.00000	90.80869	1178.10529	90.80869
52050.00000	90.61068	1176.19914	90.61068
52100.00000	90.07558	1174.60453	90.07558
52150.00000	90.11689	1177.12847	90.11689
52200.00000	89.52047	1173.50503	89.52047
52250.00000	89.65744	1175.59645	89.65744
52300.00000	89.41302	1175.50880	89.41302
52350.00000	89.20418	1173.39007	89.20418
52400.00000	89.03154	1168.41244	89.03154
52450.00000	88.85346	1171.77882	88.85346
52500.00000	88.85969	1172.53129	88.85969
52550.00000	88.56045	1175.07791	88.56045
52600.00000	89.16593	1169.53224	89.16593
52650.00000	88.37513	1170.59788	88.37513
52700.00000	88.53354	1173.53117	88.53354
52750.00000	88.76624	1172.91977	88.76624
52800.00000	88.81418	1171.69432	88.81418
52850.00000	88.36972	1171.26952	88.36972
52900.00000	88.29076	1166.17751	88.29076
52950.00000	88.37710	1165.91860	88.37710
53000.00000	87.88337	1170.45054	87.88337
53050.00000	88.52937	1167.97018	88.52937
53100.00000	88.89323	1163.67791	88.89323
53150.00000	88.67583	1166.36538	88.67583
53200.00000	88.18269	1162.81759	88.18269
53250.00000	88.76499	1164.05033	88.76499
53300.00000	88.40230	1159.12451	88.40230
53350.00000	88.15257	1159.48381	88.15257
53400.00000	88.52542	1158.53275	88.52542
53450.00000	88.24936	1157.01263	88.24936
53500.00000	88.78463	1158.42844	88.78463
53550.00000	89.07182	1156.50969	89.07182
53600.00000	88.34569	1154.27771	88.34569
53650.00000	88.51869	1151.26015	88.51869
53700.00000	88.40857	1152.63485	88.40857
53750.00000	88.18595	1150.08816	88.18595
53800.00000	88.93332	1151.45337	88.93332
53850.00000	88.73401	1147.65523	88.73401
53900.00000	88.13523	1148.54354	88.13523
53950.00000	88.61019	1143.10197	88.61019
54000.00000	88.10584	1141.58946	88.10584
54050.00000	88.28264	1139.96365	88.28264
54100.00000	88.24212	1141.56067	88.24212
54150.00000	87.98423	1137.12827	87.98423
54200.00000	87.93016	1138.28547	87.93016
54250.00000	88.17088	1139.06944	88.17088
54300.00000	88.10849	1135.74976	88.10849
54350.00000	88.05177	1138.44187	88.05177
54400.00000	87.88530	1135.64546	87.88530
54450.00000	88.12971	1137.69894	88.12971
54500.00000	87.72620	1132.64487	87.72620
54550.00000	87.80216	1129.77862	87.80216
54600.00000	88.21200	1132.29792	88.21200
54650.00000	87.85092	1132.47769	87.85092
54700.00000	87.79185	1135.69203	87.79185
54750.00000	88.37296	1132.55741	88.37296
54800.00000	87.72474	1130.04740	87.72474
54850.00000	88.19203	1131.05378	88.19203
54900.00000	88.14275	1127.87060	88.14275
54950.00000	87.71562	1132.84112	87.71562
55000.00000	88.59890	1130.47420	88.59890
55050.00000	88.62833	1130.39528	88.62833
55100.00000	88.62822	1130.25552	88.62822
55150.00000	89.37330	1127.31123	89.37330
55200.00000	89.21496	1126.61500	89.21496
55250.00000	88.89435	1127.87849	88.89435
55300.00000	89.79970	1125.40162	89.79970
55350.00000	89.45251	1126.46335	89.45251
55400.00000	89.88773	1125.21227	89.88773
55450.00000	90.48398	1125.07862	90.48398
55500.00000	90.75882	1121.80428	90.75882
55550.00000	91.19919	1120.79887	91.19919
55600.00000	91.28130	1120.25288	91.28130
55650.00000	91.40756	1118.62989	91.40756
55700.00000	91.76057	1116.68942	91.76057
55750.00000	92.20589	1112.88647	92.20589
55800.00000	92.46367	1112.73256	92.46367
55850.00000	92.95705	1109.05601	92.95705
55900.00000	93.25988	1106.76608	93.25988
55950.00000	93.24699	1105.67822	93.24699
56000.00000	93.64453	1101.64252	93.64453
56050.00000	93.99820	1099.22966	93.99820
56100.00000	94.22183	1095.91745	94.22183
56150.00000	94.28684	1092.63592	94.28684
56200.00000	94.67609	1090.79720	94.67609
56250.00000	94.65061	1087.00790	94.65061
56300.00000	94.88525	1083.65746	94.88525
56350.00000	95.20864	1079.40695	95.20864
56400.00000	95.24640	1077.39919	95.24640
56450.00000	95.38318	1073.15477	95.38318
56500.00000	95.52313	1069.81430	95.52313
56550.00000	95.47062	1066.23474	95.47062
56600.00000	95.73832	1063.24253	95.73832
56650.00000	95.86715	1059.94869	95.86715
56700.00000	95.62339	1055.48904	95.62339
56750.00000	95.64687	1053.53739	95.64687
56800.00000	95.67976	1050.61480	95.67976
56850.00000	95.87155	1048.24825	95.87155
56900.00000	95.78076	1044.53374	95.78076
56950.00000	95.78755	1041.15322	95.78755
57000.00000	95.61568	1038.57744	95.61568
57050.00000	95.77090	1035.66549	95.77090
57100.00000	95.67443	1032.53350	95.67443
57150.00000	95.56268	1028.36906	95.56268
57200.00000	95.55280	1028.25337	95.55280
57250.00000	95.64399	1023.93617	95.64399
57300.00000	95.59866	1022.14353	95.59866
57350.00000	95.44947	1019.94466	95.44947
57400.00000	95.42367	1016.60286	95.42367
57450.00000	95.27950	1013.81673	95.27950
57500.00000	95.31664	1011.50851	95.31664
57550.00000	95.37665	1009.37788	95.37665
57600.00000	95.07262	1007.77640	95.07262
57650.00000	95.24585	1005.55445	95.24585
57700.00000	95.19980	1003.55562	95.19980
57750.00000	95.16584	1001.40534	95.16584
57800.00000	95.16101	999.66704	95.16101
57850.00000	95.35454	997.89451	95.35454
57900.00000	95.31548	995.70763	95.31548
57950.00000	95.34383	994.12818	95.34383
58000.00000	95.41812	992.09015	95.41812
58050.00000	95.55097	989.94038	95.55097
58100.00000	95.73292	987.65190	95.73292
58150.00000	95.84569	985.07845	95.84569
58200.00000	96.00373	982.71304	96.00373
58250.00000	96.06571	980.90823	96.06571
58300.00000	96.22574	977.85322	96.22574
58350.00000	96.37962	974.71549	96.37962
58400.00000	96.46542	970.77267	96.46542
58450.00000	96.72029	968.18126	96.72029
58500.00000	96.61731	964.87650	96.61731
58550.00000	96.73935	961.06537	96.73935
58600.00000	96.84552	957.14859	96.84552
58650.00000	96.71877	953.78489	96.71877
58700.00000	96.74617	950.29630	96.74617
58750.00000	96.68110	946.51086	96.68110
58800.00000	96.61785	943.03475	96.61785
58850.00000	96.48120	940.58216	96.48120
58900.00000	96.35359	937.41174	96.35359
58950.00000	96.22245	934.18637	96.22245
59000.00000	96.12396	931.26439	96.12396
59050.00000	95.98525	928.16920	95.98525
59100.00000	95.88788	925.60969	95.88788
59150.00000	95.70795	922.71333	95.70795
59200.00000	95.60186	920.42490	95.60186
59250.00000	95.43134	917.91712	95.43134
59300.00000	95.21728	915.40346	95.21728
59350.00000	95.00540	912.77712	95.00540
59400.00000	94.79456	910.94283	94.79456
59450.00000	94.49890	909.05530	94.49890
59500.00000	94.36775	907.56928	94.36775
59550.00000	94.15665	906.34838	94.15665
59600.00000	93.97880	904.94045	93.97880
59650.00000	93.85679	904.59648	93.85679
59700.00000	93.80710	903.98275	93.80710
59750.00000	93.79863	903.43324	93.79863
59800.00000	93.79257	902.67180	93.79257
59850.00000	93.90589	902.44556	93.90589
59900.00000	93.97635	901.02099	93.97635
59950.00000	94.15367	900.97999	94.15367
60000.00000	94.36137	900.09331	94.36137
60050.00000	94.46368	898.91000	94.46368
60100.00000	94.72407	896.97642	94.72407
60150.00000	95.01797	895.31269	95.01797
60200.00000	95.19941	893.60035	95.19941
60250.00000	95.42730	891.80317	95.42730
60300.00000	95.71498	889.41943	95.71498
60350.00000	95.92320	887.28668	95.92320
60400.00000	96.17797	884.60925	96.17797
60450.00000	96.46128	881.92378	96.46128
60500.00000	96.65169	879.22357	96.65169
60550.00000	96.83524	875.85674	96.83524
60600.00000	97.03707	872.65234	97.03707
60650.00000	97.24036	869.10482	97.24036
60700.00000	97.32818	865.72810	97.32818
60750.00000	97.47800	862.29391	97.47800
60800.00000	97.57770	858.32602	97.57770
60850.00000	97.67736	854.92429	97.67736
60900.00000	97.66618	851.37167	97.66618
60950.00000	97.74114	847.75897	97.74114
61000.00000	97.78651	844.60041	97.78651
61050.00000	97.73696	840.88546	97.73696
61100.00000	97.74368	837.67860	97.74368
61150.00000	97.72749	834.69847	97.72749
61200.00000	97.72784	831.38506	97.72784
61250.00000	97.70169	828.16354	97.70169
61300.00000	97.69617	825.07803	97.69617
61350.00000	97.62880	822.09358	97.62880
61400.00000	97.60486	819.09555	97.60486
61450.00000	97.60858	816.26303	97.60858
61500.00000	97.54509	813.14164	97.54509
61550.00000	97.52301	810.32729	97.52301
61600.00000	97.56153	807.47943	97.56153
61650.00000	97.49872	804.85820	97.49872
61700.00000	97.54890	801.87384	97.54890
61750.00000	97.57594	798.84280	97.57594
61800.00000	97.55382	795.46457	97.55382
61850.00000	97.53701	792.98755	97.53701
61900.00000	97.50791	790.12326	97.50791
61950.00000	97.54706	787.11081	97.54706
62000.00000	97.59482	784.18966	97.59482
62050.00000	97.55311	781.24748	97.55311
62100.00000	97.64549	778.21099	97.64549
62150.00000	97.64136	774.72986	97.64136
62200.00000	97.57410	771.68520	97.57410
62250.00000	97.72835	768.67557	97.72835
62300.00000	97.61267	765.53439	97.61267
62350.00000	97.62089	762.10596	97.62089
62400.00000	97.61733	758.55316	97.61733
62450.00000	97.61311	755.11112	97.61311
62500.00000	97.58399	752.31124	97.58399
62550.00000	97.52435	748.53488	97.52435
62600.00000	97.42435	744.60791	97.42435
62650.00000	97.41834	741.06159	97.41834
62700.00000	97.27420	737.82338	97.27420
62750.00000	97.22700	734.34369	97.22700
62800.00000	97.04792	730.67969	97.04792
62850.00000	97.04032	727.59505	97.04032
62900.00000	96.88547	724.18529	96.88547
62950.00000	96.67680	720.85393	96.67680
63000.00000	96.49702	717.10999	96.49702
63050.00000	96.34165	714.43060	96.34165
63100.00000	96.21214	711.98417	96.21214
63150.00000	96.09161	709.01288	96.09161
63200.00000	95.98126	706.15083	95.98126
63250.00000	95.73777	703.24492	95.73777
63300.00000	95.70489	700.19055	95.70489
63350.00000	95.68302	698.34382	95.68302
63400.00000	95.53054	695.32237	95.53054
63450.00000	95.35334	693.14957	95.35334
63500.00000	95.22027	690.26623	95.22027
63550.00000	95.18304	687.59102	95.18304
63600.00000	95.07377	684.93122	95.07377
63650.00000	95.08474	681.89920	95.08474
63700.00000	94.94667	679.35338	94.94667
63750.00000	94.84710	676.59714	94.84710
63800.00000	94.92408	673.43006	94.92408
63850.00000	94.83122	670.55684	94.83122
63900.00000	94.86190	667.91393	94.86190
63950.00000	94.69593	664.59857	94.69593
64000.00000	94.64249	661.03848	94.64249
64050.00000	94.60803	657.24074	94.60803
64100.00000	94.56820	653.95708	94.56820
64150.00000	94.50339	650.68230	94.50339
64200.00000	94.31979	646.77494	94.31979
64250.00000	94.09013	643.34229	94.09013
64300.00000	93.80501	640.27320	93.80501
64350.00000	93.56699	637.10151	93.56699
64400.00000	93.39658	634.16594	93.39658
64450.00000	93.29702	631.52976	93.29702
64500.00000	93.23691	628.09603	93.23691
64550.00000	92.86476	625.62615	92.86476
64600.00000	92.96326	622.83947	92.96326
64650.00000	92.70912	620.04975	92.70912
64700.00000	92.65470	614.70643	92.65470
64750.00000	92.55285	611.03582	92.55285
64800.00000	92.27050	606.46125	92.27050
64850.00000	91.94237	602.56198	91.94237
64900.00000	91.57301	597.98081	91.57301
64950.00000	90.94923	594.47326	90.94923
65000.00000	90.52701	590.71425	90.52701
65050.00000	89.57392	587.04627	89.57392
65100.00000	89.06951	585.22446	89.06951
65150.00000	87.77669	583.38574	87.77669
65200.00000	87.45426	583.98799	87.45426
65250.00000	87.00395	584.90819	87.00395
65300.00000	86.55586	585.74002	86.55586
65350.00000	86.45913	585.96383	86.45913
65400.00000	86.27588	588.39857	86.27588
65450.00000	85.94361	590.35103	85.94361
65500.00000	86.06239	588.58218	86.06239
65550.00000	85.87825	587.99758	85.87825
65600.00000	86.05677	589.05014	86.05677
65650.00000	86.15175	586.39939	86.15175
65700.00000	86.14005	586.71062	86.14005
65750.00000	85.90617	584.95845	85.90617
65800.00000	85.73250	584.94077	85.73250
65850.00000	85.83191	583.18422	85.83191
65900.00000	85.62986	585.08776	85.62986
65950.00000	85.55022	583.17763	85.55022
66000.00000	85.57994	584.12438	85.57994
66050.00000	85.35801	583.36478	85.35801
66100.00000	85.54998	583.71722	85.54998
66150.00000	85.71944	584.56115	85.71944
66200.00000	86.06181	583.58969	86.06181
66250.00000	86.36212	582.59666	86.36212
66300.00000	86.58937	580.08793	86.58937
66350.00000	87.01550	577.95047	87.01550
66400.00000	87.14545	574.85596	87.14545
66450.00000	87.40189	571.88423	87.40189
66500.00000	87.47885	569.75417	87.47885
66550.00000	87.26578	566.51804	87.26578
66600.00000	87.80837	564.01497	87.80837
66650.00000	87.76116	561.75844	87.76116
66700.00000	87.55077	558.76570	87.55077
66750.00000	87.74172	556.08246	87.74172
66800.00000	87.75326	553.44230	87.75326
66850.00000	87.83149	551.46391	87.83149
66900.00000	87.86559	549.47780	87.86559
66950.00000	87.85141	545.40142	87.85141
67000.00000	87.63951	542.64952	87.63951
67050.00000	87.98997	540.04320	87.98997
67100.00000	87.57393	537.05653	87.57393
67150.00000	87.69514	535.02211	87.69514
67200.00000	87.73036	532.28441	87.73036
67250.00000	87.44922	529.38431	87.44922
67300.00000	87.36379	526.08953	87.36379
67350.00000	87.31475	524.91235	87.31475
67400.00000	87.16735	523.16714	87.16735
67450.00000	87.09404	519.96121	87.09404
67500.00000	86.77056	518.66318	86.77056
67550.00000	86.83982	517.90500	86.83982
67600.00000	86.66006	516.33876	86.66006
67650.00000	86.64116	515.52507	86.64116
67700.00000	86.83648	515.34786	86.83648
67750.00000	86.87084	512.94369	86.87084
67800.00000	87.08600	510.60889	87.08600
67850.00000	87.10967	508.77909	87.10967
67900.00000	87.18239	506.07849	87.18239
67950.00000	87.26587	505.46050	87.26587
68000.00000	87.40608	504.56087	87.40608
68050.00000	87.45209	500.69180	87.45209
68100.00000	87.74041	499.30239	87.74041
68150.00000	87.91469	497.70938	87.91469
68200.00000	87.94996	495.08120	87.94996
68250.00000	88.29121	491.93697	88.29121
68300.00000	88.32925	489.11077	88.32925
68350.00000	88.52601	486.56966	88.52601
68400.00000	88.68253	483.63591	88.68253
68450.00000	88.81673	480.68066	88.81673
68500.00000	89.12564	476.92785	89.12564
68550.00000	89.20041	474.10190	89.20041
68600.00000	89.39730	469.97348	89.39730
68650.00000	89.51537	466.50070	89.51537
68700.00000	89.62185	462.77187	89.62185
68750.00000	89.67575	458.81044	89.67575
68800.00000	89.84736	454.85170	89.84736
68850.00000	89.88118	451.80165	89.88118
68900.00000	89.87165	446.90534	89.87165
68950.00000	89.98332	443.33896	89.98332
69000.00000	89.97414	439.39462	89.97414
69050.00000	90.05745	434.42541	90.05745
69100.00000	90.20570	430.80441	90.20570
69150.00000	90.13232	426.46919	90.13232
69200.00000	90.12709	422.13761	90.12709
69250.00000	90.23409	417.66318	90.23409
69300.00000	90.15361	413.09028	90.15361
69350.00000	90.16550	407.77696	90.16550
69400.00000	90.06297	403.59717	90.06297
69450.00000	89.98877	398.31463	89.98877
69500.00000	89.96657	393.04779	89.96657
69550.00000	89.78597	388.15743	89.78597
69600.00000	89.55790	382.64706	89.55790
69650.00000	89.54057	377.58868	89.54057
69700.00000	89.15218	371.97368	89.15218
69750.00000	88.86918	366.92519	88.86918
69800.00000	88.62599	361.11191	88.62599
69850.00000	88.12709	356.48379	88.12709
69900.00000	87.69658	350.13760	87.69658
69950.00000	87.27516	345.56354	87.27516
70000.00000	86.46421	341.62298	86.46421
70050.00000	86.10095	336.74744	86.10095
70100.00000	85.37553	334.65642	85.37553
70150.00000	84.68730	330.67299	84.68730
70200.00000	84.11635	328.03716	84.11635
70250.00000	83.42342	327.02760	83.42342
70300.00000	82.63290	324.31436	82.63290
70350.00000	82.23544	324.11353	82.23544
70400.00000	81.63325	324.02458	81.63325
70450.00000	81.00628	321.26901	81.00628
70500.00000	81.13199	320.16247	81.13199
70550.00000	80.68721	321.69376	80.68721
70600.00000	80.34180	320.71468	80.34180
70650.00000	80.26976	320.93801	80.26976
70700.00000	79.93638	320.01635	79.93638
70750.00000	79.99630	319.50483	79.99630
70800.00000	80.40440	319.55178	80.40440
70850.00000	79.86524	318.13873	79.86524
70900.00000	79.87863	313.83665	79.87863
70950.00000	80.29755	315.09306	80.29755
71000.00000	80.11742	312.40580	80.11742
71050.00000	80.40860	308.02151	80.40860
71100.00000	80.13139	306.09748	80.13139
71150.00000	80.12629	303.58729	80.12629
71200.00000	80.31565	298.74381	80.31565
71250.00000	80.33446	297.96608	80.33446
71300.00000	80.14801	290.19655	80.14801
71350.00000	80.73333	287.15893	80.73333
71400.00000	80.25997	282.61337	80.25997
71450.00000	80.25350	276.07855	80.25350
71500.00000	80.31939	273.51789	80.31939
71550.00000	79.68078	266.51053	79.68078
71600.00000	79.26019	260.53984	79.26019
71650.00000	79.10974	253.91100	79.10974
71700.00000	78.33862	247.42398	78.33862
71750.00000	78.08548	241.56916	78.08548
71800.00000	77.34822	236.59722	77.34822
71850.00000	75.83486	226.63861	75.83486
71900.00000	76.01131	222.40819	76.01131
71950.00000	74.48180	218.20399	74.48180
72000.00000	73.57962	210.91647	73.57962
72050.00000	73.20841	215.25103	73.20841
72100.00000	70.89596	207.39007	70.89596
72150.00000	70.29745	197.65696	70.29745
72200.00000	70.33413	199.19960	70.33413
72250.00000	67.20663	176.22307	67.20663
72300.00000	66.54547	162.25904	66.54547
72350.00000	64.20891	141.88472	64.20891
72400.00000	64.45412	101.48742	64.45412
72450.00000	62.62787	96.96075	62.62787
72500.00000	65.29071	40.04879	65.29071
72550.00000	68.68772	32.81781	68.68772
72600.00000	68.62915	 3.61202	68.62915
72650.00000	71.51782	-6.77109	71.51782
72700.00000	71.74115	-15.03363	71.74115
72750.00000	73.71573	-32.88760	73.71573
72800.00000	74.67906	-39.55681	74.67906
72850.00000	74.96241	-53.37769	74.96241
72900.00000	75.63850	-67.69791	75.63850
72950.00000	75.57580	-68.19188	75.57580
73000.00000	74.93994	-77.81915	74.93994
73050.00000	75.78340	-89.19273	75.78340
73100.00000	75.37876	-94.99004	75.37876
73150.00000	75.02964	-105.29445	75.02964
73200.00000	75.78109	-106.81222	75.78109
73250.00000	74.44337	-111.33465	74.44337
73300.00000	75.23506	-120.29922	75.23506
73350.00000	74.52285	-121.75878	74.52285
73400.00000	74.01077	-125.88374	74.01077
73450.00000	74.45265	-130.94900	74.45265
73500.00000	73.21282	-139.62996	73.21282
73550.00000	73.95157	-148.60485	73.95157
73600.00000	74.19133	-148.19121	74.19133
73650.00000	72.83054	-161.04422	72.83054
73700.00000	73.95925	-167.07250	73.95925
73750.00000	72.62981	-164.74773	72.62981
73800.00000	71.07102	-183.22103	71.07102
73850.00000	71.50080	-187.72426	71.50080
73900.00000	70.13728	-191.12306	70.13728
73950.00000	69.60971	-214.46479	69.60971
74000.00000	69.44619	-212.08794	69.44619
74050.00000	65.91017	-229.72070	65.91017
74100.00000	67.03539	-236.31056	67.03539
74150.00000	65.01833	-244.20593	65.01833
74200.00000	66.65784	-281.20277	66.65784
74250.00000	64.02839	-271.26250	64.02839
74300.00000	60.99825	-329.84929	60.99825
74350.00000	65.27595	-348.52627	65.27595
74400.00000	59.76408	-377.21899	59.76408
74450.00000	60.68487	-613.89345	60.68487
74500.00000	62.33221	-660.11080	62.33221
74550.00000	62.50650	-733.24267	62.50650
74600.00000	63.98746	-730.39572	63.98746
74650.00000	64.58031	-737.77240	64.58031
74700.00000	67.11755	-783.87104	67.11755
74750.00000	66.84925	-773.94537	66.84925
74800.00000	67.18883	-786.65377	67.18883
74850.00000	69.13897	-800.01598	69.13897
74900.00000	67.61211	-799.19562	67.61211
74950.00000	67.19236	-820.73827	67.19236
75000.00000	67.93990	-810.59865	67.93990
75050.00000	62.70557	-829.82479	62.70557
75100.00000	67.72949	-830.95893	67.72949
75150.00000	66.33651	-810.24167	66.33651
75200.00000	64.52913	-862.51778	64.52913
75250.00000	66.29746	-855.02740	66.29746
75300.00000	63.25747	-859.45205	63.25747
75350.00000	65.85210	-876.81884	65.85210
75400.00000	64.58756	-876.11671	64.58756
75450.00000	61.61707	-864.24958	61.61707
75500.00000	64.25335	-867.34069	64.25335
75550.00000	56.29963	-837.76149	56.29963
75600.00000	59.40931	-903.35160	59.40931
75650.00000	64.15177	-844.07577	64.15177
75700.00000	54.95196	-837.78377	54.95196
75750.00000	62.68579	-871.19051	62.68579
75800.00000	61.76756	-824.70533	61.76756
75850.00000	59.83345	-828.49758	59.83345
75900.00000	61.49302	-844.20845	61.49302
75950.00000	62.70172	-796.47346	62.70172
76000.00000	55.35421	-851.48672	55.35421
76050.00000	63.42504	-834.51073	63.42504
76100.00000	56.34216	-807.81166	56.34216
76150.00000	59.92132	-862.35413	59.92132
76200.00000	63.76377	-816.95346	63.76377
76250.00000	61.46285	-842.24219	61.46285
76300.00000	64.12556	-824.18199	64.12556
76350.00000	63.88986	-827.99792	63.88986
76400.00000	64.90737	-813.05655	64.90737
76450.00000	65.69633	-838.48139	65.69633
76500.00000	63.15686	-832.36755	63.15686
76550.00000	66.53359	-839.02173	66.53359
76600.00000	67.52968	-846.77565	67.52968
76650.00000	63.31790	-858.13176	63.31790
76700.00000	67.60946	-840.90393	67.60946
76750.00000	65.05185	-853.21430	65.05185
76800.00000	67.77002	-879.48896	67.77002
76850.00000	67.08536	-847.33481	67.08536
76900.00000	65.82353	-870.36958	65.82353
76950.00000	66.76471	-885.20634	66.76471
77000.00000	68.81065	-850.70680	68.81065
77050.00000	67.64999	-886.36663	67.64999
77100.00000	71.29673	-873.12656	71.29673
77150.00000	64.04370	-847.55976	64.04370
77200.00000	70.02499	-888.72589	70.02499
77250.00000	70.70944	-866.08724	70.70944
77300.00000	67.24792	-895.97502	67.24792
77350.00000	71.21991	-899.35446	71.21991
77400.00000	70.07317	-858.20559	70.07317
77450.00000	67.99654	-918.98249	67.99654
77500.00000	70.85614	-899.96830	70.85614
77550.00000	64.48682	-886.39263	64.48682
77600.00000	70.77402	-924.13422	70.77402
77650.00000	70.24986	-889.01806	70.24986
77700.00000	66.97211	-928.79023	66.97211
77750.00000	70.08603	-916.12063	70.08603
77800.00000	69.13873	-893.57926	69.13873
77850.00000	70.22031	-931.59358	70.22031
77900.00000	72.03886	-909.17421	72.03886
77950.00000	67.18097	-925.72912	67.18097
78000.00000	72.27863	-943.57142	72.27863
78050.00000	70.80135	-915.35961	70.80135
78100.00000	69.78048	-960.47291	69.78048
78150.00000	73.10011	-936.04730	73.10011
78200.00000	68.80134	-940.38151	68.80134
78250.00000	71.11724	-960.47190	71.11724
78300.00000	70.94963	-943.05214	70.94963
78350.00000	69.54358	-977.89466	69.54358
78400.00000	73.18949	-962.41133	73.18949
78450.00000	70.34365	-953.57922	70.34365
78500.00000	70.91359	-978.31976	70.91359
78550.00000	71.86804	-954.35016	71.86804
78600.00000	69.07662	-984.14694	69.07662
78650.00000	72.07380	-978.94622	72.07380
78700.00000	69.25633	-968.04869	69.25633
78750.00000	70.32799	-995.59958	70.32799
78800.00000	71.98003	-980.18284	71.98003
78850.00000	67.63696	-989.47582	67.63696
78900.00000	70.57332	-1001.57780	70.57332
78950.00000	69.26810	-981.19611	69.26810
79000.00000	67.89841	-1007.76607	67.89841
79050.00000	71.33968	-990.33486	71.33968
79100.00000	67.05712	-997.44834	67.05712
79150.00000	70.45297	-1009.27967	70.45297
79200.00000	69.80771	-987.20748	69.80771
79250.00000	67.15546	-1016.45116	67.15546
79300.00000	70.38525	-1000.61981	70.38525
79350.00000	67.41650	-992.72591	67.41650
79400.00000	68.31788	-1019.13613	68.31788
79450.00000	69.29017	-1002.11317	69.29017
79500.00000	66.12250	-1007.14824	66.12250
79550.00000	69.83720	-1009.62537	69.83720
79600.00000	68.12024	-995.24630	68.12024
79650.00000	68.12673	-1024.21306	68.12673
79700.00000	70.28348	-1010.59599	70.28348
79750.00000	66.12342	-1010.13224	66.12342
79800.00000	70.10738	-1023.02507	70.10738
79850.00000	68.90474	-1006.11292	68.90474
79900.00000	67.46179	-1023.49631	67.46179
79950.00000	70.08759	-1019.34287	70.08759
80000.00000	67.98640	-1021.08157	67.98640
80050.00000	69.44724	-1027.40816	69.44724
80100.00000	69.46050	-1019.96825	69.46050
80150.00000	68.42093	-1034.37467	68.42093
80200.00000	70.15444	-1031.79876	70.15444
80250.00000	67.96012	-1034.35681	67.96012
80300.00000	69.29676	-1043.32534	69.29676
80350.00000	69.04462	-1037.30769	69.04462
80400.00000	67.88079	-1057.61410	67.88079
80450.00000	68.58553	-1048.53190	68.58553
80500.00000	65.87196	-1052.06613	65.87196
80550.00000	66.88297	-1059.72987	66.88297
80600.00000	67.14833	-1041.43076	67.14833
80650.00000	64.73460	-1046.39128	64.73460
80700.00000	67.67808	-1043.75733	67.67808
80750.00000	66.58885	-1033.20937	66.58885
80800.00000	67.03811	-1044.34380	67.03811
80850.00000	67.39108	-1041.05389	67.39108
80900.00000	66.46976	-1045.47052	66.46976
80950.00000	67.44349	-1043.80363	67.44349
81000.00000	66.06312	-1042.74431	66.06312
81050.00000	67.07908	-1049.51424	67.07908
81100.00000	67.61930	-1037.60907	67.61930
81150.00000	66.50855	-1040.00170	66.50855
81200.00000	68.41892	-1037.04461	68.41892
81250.00000	67.51405	-1034.69000	67.51405
81300.00000	68.36378	-1041.83806	68.36378
81350.00000	68.67903	-1035.91703	68.67903
81400.00000	68.46777	-1044.07466	68.46777
81450.00000	70.39385	-1044.31169	70.39385
81500.00000	69.52673	-1041.44559	69.52673
81550.00000	70.70828	-1051.75626	70.70828
81600.00000	70.96952	-1047.08494	70.96952
81650.00000	70.47881	-1054.20528	70.47881
81700.00000	71.41371	-1058.12912	71.41371
81750.00000	71.22312	-1058.58644	71.22312
81800.00000	71.93287	-1065.84755	71.93287
81850.00000	71.59606	-1066.74542	71.59606
81900.00000	71.36206	-1072.36169	71.36206
81950.00000	71.77903	-1071.47788	71.77903
82000.00000	71.09342	-1073.30262	71.09342
82050.00000	71.71379	-1081.55221	71.71379
82100.00000	71.56309	-1080.03248	71.56309
82150.00000	70.97435	-1081.88805	70.97435
82200.00000	71.66340	-1081.28219	71.66340
82250.00000	70.44520	-1086.58927	70.44520
82300.00000	71.02122	-1088.73373	71.02122
82350.00000	70.13496	-1087.37865	70.13496
82400.00000	70.30198	-1091.57891	70.30198
82450.00000	70.82708	-1088.51756	70.82708
82500.00000	69.93892	-1093.37550	69.93892
82550.00000	70.25788	-1089.17685	70.25788
82600.00000	69.41306	-1089.31883	69.41306
82650.00000	69.34310	-1089.00122	69.34310
82700.00000	69.40727	-1085.19818	69.40727
82750.00000	69.35166	-1080.49381	69.35166
82800.00000	70.19146	-1071.11648	70.19146
82850.00000	71.64801	-1066.77318	71.64801
82900.00000	73.35646	-1064.72669	73.35646
82950.00000	75.34532	-1067.43569	75.34532
83000.00000	76.59938	-1077.41443	76.59938
83050.00000	77.68141	-1083.85449	77.68141
83100.00000	78.69263	-1090.23062	78.69263
83150.00000	79.42575	-1097.71591	79.42575
83200.00000	80.05148	-1101.59374	80.05148
83250.00000	80.45801	-1108.65030	80.45801
83300.00000	80.85799	-1114.83442	80.85799
83350.00000	81.31061	-1119.61644	81.31061
83400.00000	81.74639	-1128.03686	81.74639
83450.00000	82.01422	-1132.16993	82.01422
83500.00000	82.26198	-1140.18308	82.26198
83550.00000	82.51114	-1148.23056	82.51114
83600.00000	82.27989	-1153.89626	82.27989
83650.00000	82.26215	-1160.42093	82.26215
83700.00000	81.87617	-1166.56106	81.87617
83750.00000	81.53570	-1173.14646	81.53570
83800.00000	80.89206	-1179.42296	80.89206
83850.00000	80.12521	-1182.63277	80.12521
83900.00000	78.97085	-1181.22533	78.97085
83950.00000	78.80496	-1180.35264	78.80496
84000.00000	78.63759	-1179.35594	78.63759
84050.00000	79.16116	-1175.22709	79.16116
84100.00000	80.02796	-1175.07418	80.02796
84150.00000	80.81689	-1174.90344	80.81689
84200.00000	81.55840	-1179.14222	81.55840
84250.00000	82.22681	-1183.80521	82.22681
84300.00000	82.84746	-1189.11196	82.84746
84350.00000	83.34487	-1194.41446	83.34487
84400.00000	83.71851	-1200.03579	83.71851
84450.00000	84.06835	-1207.28326	84.06835
84500.00000	84.50094	-1212.76670	84.50094
84550.00000	84.57081	-1219.20751	84.57081
84600.00000	84.63701	-1225.73440	84.63701
84650.00000	84.86030	-1232.79342	84.86030
84700.00000	84.97304	-1238.80437	84.97304
84750.00000	84.81270	-1245.71146	84.81270
84800.00000	84.78158	-1253.11912	84.78158
84850.00000	84.87234	-1259.05249	84.87234
84900.00000	84.60987	-1266.06923	84.60987
84950.00000	84.44289	-1271.12931	84.44289
85000.00000	84.26026	-1277.65830	84.26026
85050.00000	84.02448	-1282.90395	84.02448
85100.00000	83.77097	-1289.82803	83.77097
85150.00000	83.43624	-1297.37019	83.43624
85200.00000	82.95203	-1301.35983	82.95203
85250.00000	82.92375	-1308.46370	82.92375
85300.00000	82.11447	-1312.51645	82.11447
85350.00000	81.76861	-1318.66052	81.76861
85400.00000	81.26476	-1323.26620	81.26476
85450.00000	80.54577	-1329.31240	80.54577
85500.00000	80.05852	-1332.84576	80.05852
85550.00000	79.71333	-1337.36877	79.71333
85600.00000	78.93792	-1340.68753	78.93792
85650.00000	78.07808	-1344.12593	78.07808
85700.00000	77.74464	-1350.01030	77.74464
85750.00000	76.99359	-1352.52060	76.99359
85800.00000	76.12687	-1356.41136	76.12687
85850.00000	75.71230	-1356.85305	75.71230
85900.00000	74.99257	-1357.37864	74.99257
85950.00000	73.79832	-1359.12772	73.79832
86000.00000	73.68486	-1360.71941	73.68486
86050.00000	72.18131	-1360.00779	72.18131
86100.00000	72.85492	-1360.14468	72.85492
86150.00000	72.09676	-1360.64734	72.09676
86200.00000	71.86121	-1354.15467	71.86121
86250.00000	70.55325	-1359.89135	70.55325
86300.00000	70.22219	-1360.58697	70.22219
86350.00000	70.45495	-1357.41829	70.45495
86400.00000	69.02466	-1357.78401	69.02466
86450.00000	68.75973	-1359.13291	68.75973
86500.00000	70.32651	-1353.95924	70.32651
86550.00000	70.30643	-1357.46995	70.30643
86600.00000	70.02084	-1358.14209	70.02084
86650.00000	69.84289	-1352.50296	69.84289
86700.00000	69.78736	-1354.05565	69.78736
86750.00000	70.54205	-1351.80588	70.54205
86800.00000	70.30075	-1357.27888	70.30075
86850.00000	70.75270	-1358.45038	70.75270
86900.00000	71.01438	-1352.95480	71.01438
86950.00000	71.02612	-1361.63391	71.02612
87000.00000	70.32280	-1359.85425	70.32280
87050.00000	70.86684	-1362.89884	70.86684
87100.00000	71.10644	-1366.25296	71.10644
87150.00000	70.52309	-1363.08123	70.52309
87200.00000	71.28997	-1368.47995	71.28997
87250.00000	70.84684	-1365.45510	70.84684
87300.00000	71.05336	-1372.66452	71.05336
87350.00000	71.08573	-1372.08721	71.08573
87400.00000	71.13280	-1373.14164	71.13280
87450.00000	70.79974	-1377.45140	70.79974
87500.00000	71.54718	-1378.62678	71.54718
87550.00000	70.81280	-1378.27352	70.81280
87600.00000	70.97310	-1380.92995	70.97310
87650.00000	71.42685	-1385.41358	71.42685
87700.00000	71.90146	-1384.84518	71.90146
87750.00000	71.24265	-1388.41856	71.24265
87800.00000	71.46238	-1390.40000	71.46238
87850.00000	71.50817	-1391.66466	71.50817
87900.00000	71.24660	-1393.58602	71.24660
87950.00000	71.69991	-1399.27361	71.69991
88000.00000	71.80885	-1399.42107	71.80885
88050.00000	72.13612	-1402.19455	72.13612
88100.00000	72.17669	-1409.98689	72.17669
88150.00000	72.17080	-1410.46793	72.17080
88200.00000	72.08027	-1410.68793	72.08027
88250.00000	72.04734	-1415.88687	72.04734
88300.00000	72.02059	-1414.96638	72.02059
88350.00000	72.27890	-1420.60558	72.27890
88400.00000	72.20097	-1423.41413	72.20097
88450.00000	71.77269	-1425.92131	71.77269
88500.00000	71.87552	-1434.07127	71.87552
88550.00000	72.02587	-1434.26376	72.02587
88600.00000	71.79640	-1440.29015	71.79640
88650.00000	71.21500	-1441.72362	71.21500
88700.00000	71.40592	-1443.18129	71.40592
88750.00000	71.37882	-1447.59305	71.37882
88800.00000	71.35220	-1453.29504	71.35220
88850.00000	71.47725	-1458.95446	71.47725
88900.00000	71.54559	-1462.92079	71.54559
88950.00000	70.89577	-1464.85840	70.89577
89000.00000	71.08832	-1466.70711	71.08832
89050.00000	70.12826	-1473.93855	70.12826
89100.00000	69.91356	-1468.61930	69.91356
89150.00000	69.65995	-1476.79191	69.65995
89200.00000	69.60916	-1480.24128	69.60916
89250.00000	68.15216	-1484.18613	68.15216
89300.00000	68.90963	-1483.81230	68.90963
89350.00000	68.78277	-1486.48863	68.78277
89400.00000	67.96554	-1488.75471	67.96554
89450.00000	68.86575	-1483.36085	68.86575
89500.00000	68.47621	-1488.47324	68.47621
89550.00000	67.63157	-1487.45604	67.63157
89600.00000	67.02087	-1498.22411	67.02087
89650.00000	66.78007	-1497.23771	66.78007
89700.00000	66.38986	-1499.77051	66.38986
89750.00000	66.02260	-1494.87354	66.02260
89800.00000	65.42576	-1491.36208	65.42576
89850.00000	65.31106	-1496.37948	65.31106
89900.00000	65.19104	-1494.43654	65.19104
89950.00000	64.61886	-1490.31514	64.61886
90000.00000	63.30954	-1484.84263	63.30954
90050.00000	65.51988	-1478.24548	65.51988
90100.00000	67.48318	-1475.90604	67.48318
90150.00000	68.00993	-1479.24072	68.00993
90200.00000	70.00896	-1471.99897	70.00896
90250.00000	71.85985	-1502.07847	71.85985
90300.00000	72.69260	-1509.39828	72.69260
90350.00000	69.00888	-1524.97926	69.00888
90400.00000	67.92451	-1517.72448	67.92451
90450.00000	68.44213	-1518.08441	68.44213
90500.00000	66.09882	-1521.07931	66.09882
90550.00000	66.98222	-1521.75838	66.98222
90600.00000	66.95002	-1516.54631	66.95002
90650.00000	67.06345	-1516.77700	67.06345
90700.00000	67.93977	-1518.35258	67.93977
90750.00000	67.10566	-1514.51283	67.10566
90800.00000	67.36832	-1518.86926	67.36832
90850.00000	67.50917	-1514.06842	67.50917
90900.00000	68.29038	-1522.16119	68.29038
90950.00000	68.55353	-1523.98622	68.55353
91000.00000	68.70143	-1518.76776	68.70143
91050.00000	69.23215	-1518.31328	69.23215
91100.00000	70.18133	-1525.96983	70.18133
91150.00000	70.78423	-1524.71872	70.78423
91200.00000	71.64283	-1531.45186	71.64283
91250.00000	71.75337	-1534.92269	71.75337
91300.00000	71.66774	-1538.39125	71.66774
91350.00000	71.88641	-1546.83243	71.88641
91400.00000	71.73068	-1546.15524	71.73068
91450.00000	71.76730	-1545.37734	71.76730
91500.00000	72.54479	-1551.58976	72.54479
91550.00000	72.41329	-1556.30385	72.41329
91600.00000	72.80472	-1558.99102	72.80472
91650.00000	73.10304	-1563.02456	73.10304
91700.00000	73.26062	-1566.32302	73.26062
91750.00000	73.18842	-1566.84549	73.18842
91800.00000	72.92779	-1571.14570	72.92779
91850.00000	73.74125	-1577.08598	73.74125
91900.00000	73.92371	-1582.81573	73.92371
91950.00000	73.88171	-1583.01182	73.88171
92000.00000	74.13937	-1585.18051	74.13937
92050.00000	74.18606	-1591.51351	74.18606
92100.00000	74.09451	-1597.37819	74.09451
92150.00000	74.91199	-1602.29440	74.91199
92200.00000	74.36727	-1608.44432	74.36727
92250.00000	74.63250	-1608.72033	74.63250
92300.00000	75.28564	-1616.83946	75.28564
92350.00000	74.96921	-1622.86757	74.96921
92400.00000	75.65899	-1629.32460	75.65899
92450.00000	75.16531	-1630.08828	75.16531
92500.00000	75.37476	-1644.15677	75.37476
92550.00000	75.09503	-1642.96512	75.09503
92600.00000	75.21017	-1653.41329	75.21017
92650.00000	75.17023	-1657.89433	75.17023
92700.00000	74.17223	-1662.79671	74.17223
92750.00000	74.30868	-1672.19373	74.30868
92800.00000	73.86761	-1675.95047	73.86761
92850.00000	74.33833	-1681.25704	74.33833
92900.00000	73.32937	-1689.44539	73.32937
92950.00000	72.89143	-1692.93456	72.89143
93000.00000	72.86017	-1698.17170	72.86017
93050.00000	71.67297	-1707.80467	71.67297
93100.00000	72.18663	-1710.04454	72.18663
93150.00000	71.68921	-1707.94156	71.68921
93200.00000	70.97654	-1720.80729	70.97654
93250.00000	70.53432	-1723.22035	70.53432
93300.00000	70.64502	-1730.71857	70.64502
93350.00000	69.23778	-1735.60854	69.23778
93400.00000	68.95870	-1737.39373	68.95870
93450.00000	67.97547	-1736.92984	67.97547
93500.00000	67.42084	-1740.86790	67.42084
93550.00000	66.44604	-1744.12456	66.44604
93600.00000	67.35487	-1744.07669	67.35487
93650.00000	66.03497	-1752.90265	66.03497
93700.00000	64.94982	-1745.94775	64.94982
93750.00000	66.20288	-1754.84544	66.20288
93800.00000	65.13114	-1741.31709	65.13114
93850.00000	65.07571	-1750.08951	65.07571
93900.00000	66.21512	-1755.11659	66.21512
93950.00000	65.53428	-1757.44538	65.53428
94000.00000	65.01398	-1759.51035	65.01398
94050.00000	65.94837	-1769.17116	65.94837
94100.00000	65.96594	-1764.39810	65.96594
94150.00000	65.48815	-1767.08902	65.48815
94200.00000	66.17528	-1774.35125	66.17528
94250.00000	66.77169	-1780.88684	66.77169
94300.00000	66.31962	-1775.62581	66.31962
94350.00000	66.15338	-1783.65709	66.15338
94400.00000	67.44764	-1791.31369	67.44764
94450.00000	67.39317	-1794.85922	67.39317
94500.00000	67.46502	-1804.44332	67.46502
94550.00000	66.26309	-1803.88376	66.26309
94600.00000	66.04588	-1810.61737	66.04588
94650.00000	66.79849	-1821.99966	66.79849
94700.00000	65.83662	-1811.55655	65.83662
94750.00000	66.23637	-1812.93895	66.23637
94800.00000	66.55952	-1822.53646	66.55952
94850.00000	65.65794	-1828.78849	65.65794
94900.00000	65.21773	-1824.08043	65.21773
94950.00000	63.90237	-1828.95892	63.90237
95000.00000	64.86309	-1828.56400	64.86309
95050.00000	63.85525	-1838.31753	63.85525
95100.00000	64.61285	-1827.83264	64.61285
95150.00000	64.96116	-1836.67820	64.96116
95200.00000	63.49301	-1837.23928	63.49301
95250.00000	65.27622	-1844.82919	65.27622
95300.00000	65.27713	-1839.71198	65.27713
95350.00000	64.66257	-1835.15124	64.66257
95400.00000	65.39224	-1843.72123	65.39224
95450.00000	64.37285	-1851.90830	64.37285
95500.00000	64.86986	-1857.99160	64.86986
95550.00000	62.59705	-1859.87845	62.59705
95600.00000	64.49947	-1872.97003	64.49947
95650.00000	64.50745	-1853.27445	64.50745
95700.00000	65.20526	-1875.28402	65.20526
95750.00000	62.39638	-1861.07507	62.39638
95800.00000	63.96189	-1884.57735	63.96189
95850.00000	63.80745	-1881.93635	63.80745
95900.00000	65.54379	-1881.52639	65.54379
95950.00000	64.31168	-1888.97265	64.31168
96000.00000	65.87685	-1895.92090	65.87685
96050.00000	63.71018	-1902.34760	63.71018
96100.00000	67.88053	-1918.20963	67.88053
96150.00000	67.21159	-1915.90067	67.21159
96200.00000	65.98060	-1933.35835	65.98060
96250.00000	66.99420	-1937.80803	66.99420
96300.00000	63.44137	-1940.04005	63.44137
96350.00000	64.92586	-1945.22173	64.92586
96400.00000	64.63566	-1948.54677	64.63566
96450.00000	63.49925	-1957.96080	63.49925
96500.00000	64.47427	-1962.01551	64.47427
96550.00000	66.43549	-1967.90922	66.43549
96600.00000	66.54970	-1978.25399	66.54970
96650.00000	59.26402	-2009.06629	59.26402
96700.00000	58.07546	-2015.14925	58.07546
96750.00000	56.26341	-2004.59459	56.26341
96800.00000	57.75217	-2024.66112	57.75217
96850.00000	63.97986	-2040.84252	63.97986
96900.00000	64.76514	-2017.61500	64.76514
96950.00000	67.09099	-2023.39341	67.09099
97000.00000	62.44060	-2074.01984	62.44060
97050.00000	63.21079	-2085.71262	63.21079
97100.00000	66.44948	-2025.95516	66.44948
97150.00000	65.63760	-2112.16251	65.63760
97200.00000	69.90080	-2047.42232	69.90080
97250.00000	60.88051	-2063.26981	60.88051
97300.00000	50.74849	-2175.43933	50.74849
97350.00000	60.39488	-2113.53115	60.39488
97400.00000	62.45908	-2238.56483	62.45908
97450.00000	55.64712	-2118.06357	55.64712
97500.00000	57.15163	-2160.50919	57.15163
97550.00000	52.53272	-2032.02406	52.53272
97600.00000	51.36576	-2166.92701	51.36576
97650.00000	54.23575	-2155.39321	54.23575
97700.00000	55.40296	-2122.78679	55.40296
97750.00000	50.11002	-2155.45547	50.11002
97800.00000	50.62276	-2086.78012	50.62276
97850.00000	54.93047	-2089.27195	54.93047
97900.00000	55.40033	-2118.43560	55.40033
97950.00000	57.47705	-2137.51036	57.47705
98000.00000	57.56587	-2102.20097	57.56587
98050.00000	55.24863	-2163.85394	55.24863
98100.00000	56.14713	-2125.24383	56.14713
98150.00000	54.27088	-2070.30853	54.27088
98200.00000	55.26152	-2171.30055	55.26152
98250.00000	58.46734	-2107.29498	58.46734
98300.00000	56.26626	-2140.50805	56.26626
98350.00000	60.20538	-2117.33190	60.20538
98400.00000	59.42142	-2126.86900	59.42142
98450.00000	58.05340	-2107.29135	58.05340
98500.00000	57.83667	-2133.37643	57.83667
98550.00000	57.62924	-2171.04690	57.62924
98600.00000	59.77809	-2132.41440	59.77809
98650.00000	54.25459	-2153.10739	54.25459
98700.00000	49.85332	-2159.71845	49.85332
98750.00000	53.28341	-2107.47603	53.28341
98800.00000	55.45389	-2100.32378	55.45389
98850.00000	58.72889	-2135.30756	58.72889
98900.00000	46.27076	-2204.14279	46.27076
98950.00000	53.35457	-2136.57266	53.35457
99000.00000	57.14250	-2162.31961	57.14250
99050.00000	48.69741	-2204.13905	48.69741
99100.00000	50.67145	-2082.34347	50.67145
99150.00000	35.70876	-2110.52805	35.70876
99200.00000	59.35943	-2145.04725	59.35943
99250.00000	56.07696	-2098.51967	56.07696
99300.00000	47.98492	-2124.65627	47.98492
99350.00000	56.17839	-2174.01977	56.17839
99400.00000	54.91272	-2120.65373	54.91272
99450.00000	50.44336	-2222.76318	50.44336
99500.00000	46.06677	-2113.64962	46.06677
99550.00000	57.98645	-2143.33813	57.98645
99600.00000	37.56837	-2095.39211	37.56837
99650.00000	54.31472	-2146.82395	54.31472
99700.00000	53.69555	-2120.47575	53.69555
99750.00000	49.90251	-2104.16427	49.90251
99800.00000	47.54650	-2150.14815	47.54650
99850.00000	51.59126	-2137.43659	51.59126
99900.00000	53.71623	-2114.89024	53.71623
99950.00000	51.85767	-2153.18100	51.85767
