---ACOUSTIC CALIBRATION---
Filename: C:\Data\AZH DATA\AZH22\RightPrimary.calib
Date: 8/27/2019 12:26:12 PM
Format: 4
Probe Tube Correction File: C:\Data\Probe Tube Calibrations\50_ProbeTube.calib
Experiment VIs: 850
EPL_CFTS.exe V12.0.1 (2012)
DAQmx V9.6

Attenuation (dB): 40.000000
Min Freq (Hz): 50.000000
Max Freq (Hz): 49950.000000
Freq Step (Hz): 50.000000
Sample Rate (Hz): 100000.000000
[Smoothing]
Method=None
MA.Iterations=0
MA.Length=0
Loess.Length=0
Loess.Type=Linear
Loess.Robust=FALSE


Freq(Hz)	Mag(dB)	Phase(deg)	Unsmoothed(dB)

50.00000	104.80118	311.01451	104.80118
100.00000	68.05467	252.98538	68.05467
150.00000	76.15878	418.87869	76.15878
200.00000	81.77175	432.39349	81.77175
250.00000	87.98944	440.38325	87.98944
300.00000	86.53490	396.75183	86.53490
350.00000	84.01655	388.77218	84.01655
400.00000	82.52712	383.93171	82.52712
450.00000	85.02781	364.71881	85.02781
500.00000	90.51759	372.27971	90.51759
550.00000	94.56783	370.45630	94.56783
600.00000	93.91815	364.76383	93.91815
650.00000	97.11820	354.58866	97.11820
700.00000	99.38393	336.27284	99.38393
750.00000	100.98788	320.63995	100.98788
800.00000	101.54730	292.40463	101.54730
850.00000	100.70016	277.92676	100.70016
900.00000	99.34614	260.54411	99.34614
950.00000	97.41346	259.28197	97.41346
1000.00000	95.98752	260.72231	95.98752
1050.00000	93.77873	278.19816	93.77873
1100.00000	96.11706	298.17339	96.11706
1150.00000	99.09418	302.95469	99.09418
1200.00000	101.91242	300.11793	101.91242
1250.00000	103.35325	291.35830	103.35325
1300.00000	105.14810	286.32732	105.14810
1350.00000	106.24861	276.84678	106.24861
1400.00000	107.18541	270.54833	107.18541
1450.00000	108.23349	262.99009	108.23349
1500.00000	109.43581	256.59611	109.43581
1550.00000	110.14134	247.13685	110.14134
1600.00000	111.48482	237.54994	111.48482
1650.00000	112.44266	220.55479	112.44266
1700.00000	111.10200	210.55188	111.10200
1750.00000	110.90801	205.17762	110.90801
1800.00000	110.49927	200.55606	110.49927
1850.00000	110.76977	200.69645	110.76977
1900.00000	111.95205	195.99455	111.95205
1950.00000	112.58243	182.13674	112.58243
2000.00000	111.58715	170.38851	111.58715
2050.00000	110.39065	176.28702	110.39065
2100.00000	112.26160	174.44902	112.26160
2150.00000	112.81382	163.12337	112.81382
2200.00000	112.72694	153.17935	112.72694
2250.00000	112.06516	146.16884	112.06516
2300.00000	112.20922	140.88127	112.20922
2350.00000	111.85846	134.40269	111.85846
2400.00000	111.61320	128.84637	111.61320
2450.00000	111.33259	122.44456	111.33259
2500.00000	110.85858	117.69532	110.85858
2550.00000	110.42705	111.92489	110.42705
2600.00000	109.80045	107.92888	109.80045
2650.00000	109.27900	103.93241	109.27900
2700.00000	108.75489	100.35155	108.75489
2750.00000	108.11627	97.23528	108.11627
2800.00000	107.30553	94.50231	107.30553
2850.00000	106.62017	93.21389	106.62017
2900.00000	105.83520	91.67729	105.83520
2950.00000	104.96166	91.81542	104.96166
3000.00000	104.09148	92.68737	104.09148
3050.00000	102.88320	96.34967	102.88320
3100.00000	101.99222	101.98129	101.99222
3150.00000	101.08580	110.29134	101.08580
3200.00000	100.81254	125.29130	100.81254
3250.00000	101.61481	138.01426	101.61481
3300.00000	103.21369	148.48260	103.21369
3350.00000	104.98678	157.12391	104.98678
3400.00000	107.09140	161.07044	107.09140
3450.00000	109.45255	160.74495	109.45255
3500.00000	111.51778	156.93118	111.51778
3550.00000	113.10991	150.43078	113.10991
3600.00000	114.61731	144.72117	114.61731
3650.00000	115.81665	137.55482	115.81665
3700.00000	116.91523	130.34039	116.91523
3750.00000	117.96827	122.65669	117.96827
3800.00000	118.78163	114.19802	118.78163
3850.00000	119.41448	106.20782	119.41448
3900.00000	119.96560	99.08383	119.96560
3950.00000	120.58168	91.85317	120.58168
4000.00000	121.15256	84.51831	121.15256
4050.00000	121.71668	77.18325	121.71668
4100.00000	122.32201	69.34059	122.32201
4150.00000	123.05660	60.76056	123.05660
4200.00000	123.43925	50.72458	123.43925
4250.00000	123.76993	40.29564	123.76993
4300.00000	123.87766	29.62857	123.87766
4350.00000	123.77266	19.00769	123.77266
4400.00000	123.50858	 9.46054	123.50858
4450.00000	123.15813	 0.51413	123.15813
4500.00000	122.77859	-7.62838	122.77859
4550.00000	122.38936	-15.45985	122.38936
4600.00000	121.97082	-23.06659	121.97082
4650.00000	121.58039	-30.44410	121.58039
4700.00000	121.10585	-38.36415	121.10585
4750.00000	120.47457	-46.51071	120.47457
4800.00000	119.62849	-54.37474	119.62849
4850.00000	118.51503	-61.08001	118.51503
4900.00000	117.29179	-65.65074	117.29179
4950.00000	116.06335	-67.78215	116.06335
5000.00000	115.00378	-68.13646	115.00378
5050.00000	114.09861	-67.90565	114.09861
5100.00000	113.12466	-64.16383	113.12466
5150.00000	113.29513	-59.94909	113.29513
5200.00000	113.11281	-55.10355	113.11281
5250.00000	114.84037	-53.93557	114.84037
5300.00000	115.39617	-64.87950	115.39617
5350.00000	114.86186	-71.94912	114.86186
5400.00000	114.33970	-75.62865	114.33970
5450.00000	113.93397	-78.03179	113.93397
5500.00000	113.60427	-80.20549	113.60427
5550.00000	113.36476	-82.07360	113.36476
5600.00000	113.15839	-84.02371	113.15839
5650.00000	112.98939	-85.77195	112.98939
5700.00000	112.82350	-87.71641	112.82350
5750.00000	112.71145	-89.47846	112.71145
5800.00000	112.60437	-91.27956	112.60437
5850.00000	112.53383	-93.18833	112.53383
5900.00000	112.54053	-95.10317	112.54053
5950.00000	112.54838	-97.17119	112.54838
6000.00000	112.55362	-99.71536	112.55362
6050.00000	112.54145	-102.42980	112.54145
6100.00000	112.49487	-105.33188	112.49487
6150.00000	112.43818	-108.20710	112.43818
6200.00000	112.32457	-111.00342	112.32457
6250.00000	112.24779	-113.70490	112.24779
6300.00000	112.15805	-116.25610	112.15805
6350.00000	112.04960	-119.03956	112.04960
6400.00000	111.95264	-121.46346	111.95264
6450.00000	111.86452	-123.98687	111.86452
6500.00000	111.76886	-126.56564	111.76886
6550.00000	111.68253	-128.95319	111.68253
6600.00000	111.59225	-131.45355	111.59225
6650.00000	111.52957	-133.75187	111.52957
6700.00000	111.49408	-136.26730	111.49408
6750.00000	111.42764	-138.63546	111.42764
6800.00000	111.38346	-141.09637	111.38346
6850.00000	111.34535	-143.68787	111.34535
6900.00000	111.31362	-146.23408	111.31362
6950.00000	111.26416	-148.64139	111.26416
7000.00000	111.24819	-151.20492	111.24819
7050.00000	111.21435	-153.88588	111.21435
7100.00000	111.18364	-156.66238	111.18364
7150.00000	111.14698	-159.30611	111.14698
7200.00000	111.11290	-162.15829	111.11290
7250.00000	111.05381	-165.08020	111.05381
7300.00000	111.04935	-167.88890	111.04935
7350.00000	110.97504	-170.67419	110.97504
7400.00000	110.95916	-173.69501	110.95916
7450.00000	110.88348	-176.69185	110.88348
7500.00000	110.82897	-179.83600	110.82897
7550.00000	110.78710	-182.90438	110.78710
7600.00000	110.68259	-185.99883	110.68259
7650.00000	110.60666	-188.96280	110.60666
7700.00000	110.56206	-192.03225	110.56206
7750.00000	110.42961	-195.20233	110.42961
7800.00000	110.32604	-198.21094	110.32604
7850.00000	110.19416	-201.34053	110.19416
7900.00000	110.10820	-204.08893	110.10820
7950.00000	109.98605	-207.23267	109.98605
8000.00000	109.89187	-210.27002	109.89187
8050.00000	109.76370	-213.55360	109.76370
8100.00000	109.65998	-216.18107	109.65998
8150.00000	109.48503	-219.20958	109.48503
8200.00000	109.35613	-221.87843	109.35613
8250.00000	109.19168	-224.91468	109.19168
8300.00000	109.04252	-227.65083	109.04252
8350.00000	108.87408	-230.40741	108.87408
8400.00000	108.65251	-233.56695	108.65251
8450.00000	108.40375	-236.44187	108.40375
8500.00000	108.16376	-239.39165	108.16376
8550.00000	107.99583	-242.02732	107.99583
8600.00000	107.78855	-245.09631	107.78855
8650.00000	107.51583	-247.94742	107.51583
8700.00000	107.35138	-251.33047	107.35138
8750.00000	107.10097	-253.08566	107.10097
8800.00000	106.93436	-256.08138	106.93436
8850.00000	106.69907	-258.59328	106.69907
8900.00000	106.52063	-260.81814	106.52063
8950.00000	106.28258	-263.46619	106.28258
9000.00000	105.99495	-265.71480	105.99495
9050.00000	105.79743	-268.16360	105.79743
9100.00000	105.55053	-270.15666	105.55053
9150.00000	105.29707	-272.35560	105.29707
9200.00000	105.14801	-274.94505	105.14801
9250.00000	104.90284	-277.30499	104.90284
9300.00000	104.76787	-279.55763	104.76787
9350.00000	104.66556	-281.67307	104.66556
9400.00000	104.43569	-283.25195	104.43569
9450.00000	104.34476	-284.82657	104.34476
9500.00000	104.27474	-285.54978	104.27474
9550.00000	104.31669	-286.77755	104.31669
9600.00000	104.31978	-288.95594	104.31978
9650.00000	104.18246	-291.04666	104.18246
9700.00000	103.98437	-292.64305	103.98437
9750.00000	103.89025	-295.26412	103.89025
9800.00000	103.68857	-297.08187	103.68857
9850.00000	103.56651	-299.22580	103.56651
9900.00000	103.30155	-301.79117	103.30155
9950.00000	103.17702	-303.57393	103.17702
10000.00000	103.06674	-306.26289	103.06674
10050.00000	102.93938	-308.24328	102.93938
10100.00000	102.75919	-310.06842	102.75919
10150.00000	102.54650	-312.58002	102.54650
10200.00000	102.38279	-314.55734	102.38279
10250.00000	102.15394	-316.85908	102.15394
10300.00000	102.03416	-319.10294	102.03416
10350.00000	101.83497	-321.32510	101.83497
10400.00000	101.59719	-323.99977	101.59719
10450.00000	101.54374	-326.86489	101.54374
10500.00000	101.46495	-329.42449	101.46495
10550.00000	101.38018	-331.89319	101.38018
10600.00000	101.26459	-333.97597	101.26459
10650.00000	101.12641	-335.76020	101.12641
10700.00000	101.01139	-338.62163	101.01139
10750.00000	100.89312	-340.68668	100.89312
10800.00000	100.63658	-342.60800	100.63658
10850.00000	100.41676	-345.64626	100.41676
10900.00000	100.21123	-347.84455	100.21123
10950.00000	100.01795	-349.91537	100.01795
11000.00000	99.80291	-352.23333	99.80291
11050.00000	99.45386	-354.40654	99.45386
11100.00000	99.22564	-357.03512	99.22564
11150.00000	98.87594	-358.77555	98.87594
11200.00000	98.66954	-360.57447	98.66954
11250.00000	98.31166	-362.57974	98.31166
11300.00000	97.94774	-364.62456	97.94774
11350.00000	97.62656	-365.97014	97.62656
11400.00000	97.22422	-367.54594	97.22422
11450.00000	96.95035	-369.37592	96.95035
11500.00000	96.79874	-370.13279	96.79874
11550.00000	96.41893	-371.07907	96.41893
11600.00000	96.27783	-372.68663	96.27783
11650.00000	96.02773	-372.35876	96.02773
11700.00000	95.88723	-373.00534	95.88723
11750.00000	95.73071	-373.98518	95.73071
11800.00000	95.58520	-374.78109	95.58520
11850.00000	95.46886	-374.39281	95.46886
11900.00000	95.20759	-375.82176	95.20759
11950.00000	95.12169	-376.29250	95.12169
12000.00000	94.97926	-376.73076	94.97926
12050.00000	94.80906	-376.95790	94.80906
12100.00000	94.76326	-378.91645	94.76326
12150.00000	94.73547	-379.79621	94.73547
12200.00000	94.73423	-381.21537	94.73423
12250.00000	94.70861	-381.88752	94.70861
12300.00000	95.80383	-383.13962	95.80383
12350.00000	94.66876	-384.77247	94.66876
12400.00000	94.67701	-385.38158	94.67701
12450.00000	94.60581	-386.91724	94.60581
12500.00000	94.60423	-389.50137	94.60423
12550.00000	94.55310	-390.82068	94.55310
12600.00000	94.45917	-393.11688	94.45917
12650.00000	94.47383	-395.02679	94.47383
12700.00000	94.27856	-396.90713	94.27856
12750.00000	94.17077	-399.58846	94.17077
12800.00000	94.04145	-401.35484	94.04145
12850.00000	93.59408	-403.41843	93.59408
12900.00000	93.47356	-405.76462	93.47356
12950.00000	93.41808	-407.99443	93.41808
13000.00000	93.12811	-410.26636	93.12811
13050.00000	92.94817	-411.24016	92.94817
13100.00000	92.64313	-413.53948	92.64313
13150.00000	92.35010	-415.76731	92.35010
13200.00000	92.16989	-416.13876	92.16989
13250.00000	91.83920	-417.26551	91.83920
13300.00000	91.52708	-416.96778	91.52708
13350.00000	91.23493	-418.13218	91.23493
13400.00000	91.06213	-419.66491	91.06213
13450.00000	90.69691	-418.96043	90.69691
13500.00000	90.57365	-419.17850	90.57365
13550.00000	90.22469	-419.18450	90.22469
13600.00000	90.03153	-419.31909	90.03153
13650.00000	89.84321	-419.77859	89.84321
13700.00000	89.44965	-419.88868	89.44965
13750.00000	89.18295	-420.17849	89.18295
13800.00000	88.86892	-422.83461	88.86892
13850.00000	88.83061	-423.80021	88.83061
13900.00000	88.58488	-422.26154	88.58488
13950.00000	88.41485	-421.51254	88.41485
14000.00000	88.51577	-420.64148	88.51577
14050.00000	88.39062	-420.26013	88.39062
14100.00000	88.09541	-420.18196	88.09541
14150.00000	87.95921	-420.32612	87.95921
14200.00000	88.12876	-419.99061	88.12876
14250.00000	88.38853	-417.48553	88.38853
14300.00000	88.17163	-418.02833	88.17163
14350.00000	88.02509	-415.33741	88.02509
14400.00000	87.62239	-415.66411	87.62239
14450.00000	87.50833	-412.64500	87.50833
14500.00000	87.35408	-414.15575	87.35408
14550.00000	87.67910	-412.24758	87.67910
14600.00000	87.57882	-412.73572	87.57882
14650.00000	87.71973	-410.19736	87.71973
14700.00000	87.79061	-412.99772	87.79061
14750.00000	87.88247	-410.67717	87.88247
14800.00000	87.86357	-409.49573	87.86357
14850.00000	88.20962	-408.55845	88.20962
14900.00000	88.63817	-408.18779	88.63817
14950.00000	88.72471	-406.77695	88.72471
15000.00000	88.93868	-406.96548	88.93868
15050.00000	89.18764	-405.62066	89.18764
15100.00000	89.33595	-404.34930	89.33595
15150.00000	89.57887	-405.24348	89.57887
15200.00000	89.83957	-403.99544	89.83957
15250.00000	90.03492	-404.15659	90.03492
15300.00000	90.51116	-404.66441	90.51116
15350.00000	90.78962	-405.63333	90.78962
15400.00000	90.95067	-404.35391	90.95067
15450.00000	91.13449	-404.91465	91.13449
15500.00000	91.59923	-406.09019	91.59923
15550.00000	91.94355	-407.07675	91.94355
15600.00000	92.20519	-407.19001	92.20519
15650.00000	92.66489	-406.59769	92.66489
15700.00000	92.89781	-408.61665	92.89781
15750.00000	93.24942	-408.14256	93.24942
15800.00000	93.55660	-409.06856	93.55660
15850.00000	93.96428	-410.09167	93.96428
15900.00000	94.24325	-411.62629	94.24325
15950.00000	94.61802	-412.88734	94.61802
16000.00000	94.99876	-414.09557	94.99876
16050.00000	95.41388	-415.00942	95.41388
16100.00000	95.57637	-416.54554	95.57637
16150.00000	95.91421	-419.17672	95.91421
16200.00000	96.30528	-421.31850	96.30528
16250.00000	96.65874	-423.09048	96.65874
16300.00000	97.24470	-424.80102	97.24470
16350.00000	97.51572	-426.19672	97.51572
16400.00000	97.76877	-427.82857	97.76877
16450.00000	98.10433	-430.50438	98.10433
16500.00000	98.47237	-432.82577	98.47237
16550.00000	98.85141	-436.34580	98.85141
16600.00000	99.20587	-438.57560	99.20587
16650.00000	99.45641	-440.68911	99.45641
16700.00000	99.68238	-443.70104	99.68238
16750.00000	99.83982	-446.74144	99.83982
16800.00000	100.13908	-449.90788	100.13908
16850.00000	100.43470	-453.19633	100.43470
16900.00000	100.71780	-456.22313	100.71780
16950.00000	100.85674	-458.99136	100.85674
17000.00000	100.91843	-462.06162	100.91843
17050.00000	101.09791	-464.08008	101.09791
17100.00000	101.13392	-466.17395	101.13392
17150.00000	101.43141	-470.06898	101.43141
17200.00000	101.57434	-472.48023	101.57434
17250.00000	101.65598	-475.77274	101.65598
17300.00000	101.88255	-478.51166	101.88255
17350.00000	101.84751	-480.68550	101.84751
17400.00000	102.01807	-483.52616	102.01807
17450.00000	102.11100	-486.73988	102.11100
17500.00000	102.26854	-489.07909	102.26854
17550.00000	102.41325	-491.48410	102.41325
17600.00000	102.60232	-493.71709	102.60232
17650.00000	102.68974	-497.18460	102.68974
17700.00000	102.79685	-500.03673	102.79685
17750.00000	103.05921	-502.34502	103.05921
17800.00000	103.06520	-505.55427	103.06520
17850.00000	103.23967	-508.05342	103.23967
17900.00000	103.31738	-510.80394	103.31738
17950.00000	103.49670	-514.08189	103.49670
18000.00000	103.60746	-517.91266	103.60746
18050.00000	103.83240	-520.05602	103.83240
18100.00000	103.81544	-524.00372	103.81544
18150.00000	103.90451	-526.33608	103.90451
18200.00000	103.92296	-529.75087	103.92296
18250.00000	104.02901	-532.06179	104.02901
18300.00000	104.15983	-535.21190	104.15983
18350.00000	104.18136	-537.89605	104.18136
18400.00000	104.17872	-541.11590	104.17872
18450.00000	104.17491	-544.99479	104.17491
18500.00000	104.27145	-547.81454	104.27145
18550.00000	104.26383	-549.94816	104.26383
18600.00000	104.40973	-553.17764	104.40973
18650.00000	104.31472	-555.85073	104.31472
18700.00000	104.39471	-559.00226	104.39471
18750.00000	104.46566	-561.69388	104.46566
18800.00000	104.64863	-563.94591	104.64863
18850.00000	104.54336	-567.05136	104.54336
18900.00000	104.60261	-569.87529	104.60261
18950.00000	104.66644	-573.11440	104.66644
19000.00000	104.56008	-575.52807	104.56008
19050.00000	104.76563	-578.68535	104.76563
19100.00000	104.74718	-581.30468	104.74718
19150.00000	104.91819	-584.19075	104.91819
19200.00000	104.94256	-586.65393	104.94256
19250.00000	104.93050	-590.67133	104.93050
19300.00000	104.93089	-593.25943	104.93089
19350.00000	104.98354	-596.22011	104.98354
19400.00000	104.97453	-599.14337	104.97453
19450.00000	105.09946	-601.58923	105.09946
19500.00000	105.00843	-605.52926	105.00843
19550.00000	105.04395	-608.55999	105.04395
19600.00000	105.13911	-611.97891	105.13911
19650.00000	105.06737	-614.64929	105.06737
19700.00000	104.96463	-617.85105	104.96463
19750.00000	104.93271	-620.62201	104.93271
19800.00000	104.99968	-624.49741	104.99968
19850.00000	104.98344	-627.12253	104.98344
19900.00000	104.89807	-631.03328	104.89807
19950.00000	104.81993	-633.94448	104.81993
20000.00000	104.78415	-637.14060	104.78415
20050.00000	104.72383	-640.19066	104.72383
20100.00000	104.55977	-643.21467	104.55977
20150.00000	104.55523	-645.52473	104.55523
20200.00000	104.43658	-649.21864	104.43658
20250.00000	104.26371	-652.03386	104.26371
20300.00000	104.09785	-654.87629	104.09785
20350.00000	104.04938	-657.93833	104.04938
20400.00000	103.87448	-659.99276	103.87448
20450.00000	103.64271	-662.76632	103.64271
20500.00000	103.54578	-665.71757	103.54578
20550.00000	103.17347	-667.52752	103.17347
20600.00000	103.08320	-669.64845	103.08320
20650.00000	102.92544	-672.02574	102.92544
20700.00000	102.69199	-673.88324	102.69199
20750.00000	102.57035	-675.76626	102.57035
20800.00000	102.34038	-677.17394	102.34038
20850.00000	102.23439	-678.90669	102.23439
20900.00000	102.02509	-680.27004	102.02509
20950.00000	101.86832	-681.02978	101.86832
21000.00000	101.76433	-682.05101	101.76433
21050.00000	101.79800	-682.72057	101.79800
21100.00000	101.72788	-683.43850	101.72788
21150.00000	101.77145	-684.49637	101.77145
21200.00000	101.82216	-685.21021	101.82216
21250.00000	101.86578	-687.39220	101.86578
21300.00000	101.97958	-688.24543	101.97958
21350.00000	102.05830	-689.42898	102.05830
21400.00000	102.09509	-691.47970	102.09509
21450.00000	102.21685	-693.24923	102.21685
21500.00000	102.28591	-695.51217	102.28591
21550.00000	102.27746	-697.33847	102.27746
21600.00000	102.39611	-699.53275	102.39611
21650.00000	102.41398	-701.91428	102.41398
21700.00000	102.41653	-703.83174	102.41653
21750.00000	102.43912	-706.24855	102.43912
21800.00000	102.49135	-708.48738	102.49135
21850.00000	102.37196	-710.63078	102.37196
21900.00000	102.40839	-712.74054	102.40839
21950.00000	102.37190	-714.64741	102.37190
22000.00000	102.41943	-716.90847	102.41943
22050.00000	102.33812	-718.39204	102.33812
22100.00000	102.32069	-720.58689	102.32069
22150.00000	102.27500	-722.22721	102.27500
22200.00000	102.33906	-724.46135	102.33906
22250.00000	102.29051	-725.75105	102.29051
22300.00000	102.15370	-727.85395	102.15370
22350.00000	102.25650	-729.63927	102.25650
22400.00000	102.25035	-731.81787	102.25035
22450.00000	102.23184	-733.55635	102.23184
22500.00000	102.13710	-734.31990	102.13710
22550.00000	102.16813	-736.63862	102.16813
22600.00000	102.13611	-739.24079	102.13611
22650.00000	102.19024	-741.51324	102.19024
22700.00000	102.14461	-742.60692	102.14461
22750.00000	102.09497	-743.19073	102.09497
22800.00000	102.15059	-746.84868	102.15059
22850.00000	102.18074	-749.40563	102.18074
22900.00000	102.18128	-749.66782	102.18128
22950.00000	102.20243	-751.99955	102.20243
23000.00000	102.20512	-752.94592	102.20512
23050.00000	102.10523	-755.85356	102.10523
23100.00000	102.28418	-756.73298	102.28418
23150.00000	102.05189	-757.62067	102.05189
23200.00000	102.27509	-761.05709	102.27509
23250.00000	102.00262	-763.05523	102.00262
23300.00000	102.35846	-765.41694	102.35846
23350.00000	101.99277	-766.79414	101.99277
23400.00000	102.11732	-768.66260	102.11732
23450.00000	102.23369	-770.73833	102.23369
23500.00000	102.14257	-772.30015	102.14257
23550.00000	102.08043	-772.44654	102.08043
23600.00000	102.02382	-776.68782	102.02382
23650.00000	102.11082	-777.31719	102.11082
23700.00000	102.32672	-781.73816	102.32672
23750.00000	102.28199	-781.93689	102.28199
23800.00000	102.08055	-783.20067	102.08055
23850.00000	102.29038	-783.93666	102.29038
23900.00000	102.63879	-786.55693	102.63879
23950.00000	102.36898	-789.71451	102.36898
24000.00000	102.29781	-792.18965	102.29781
24050.00000	102.46618	-792.37911	102.46618
24100.00000	102.67258	-796.31917	102.67258
24150.00000	102.81350	-798.06879	102.81350
24200.00000	102.80525	-802.06616	102.80525
24250.00000	102.52911	-802.43310	102.52911
24300.00000	102.89160	-805.80018	102.89160
24350.00000	102.90223	-807.07217	102.90223
24400.00000	102.77926	-810.96918	102.77926
24450.00000	102.71213	-812.28184	102.71213
24500.00000	103.17589	-814.03048	103.17589
24550.00000	103.08178	-819.32063	103.08178
24600.00000	103.47278	-460.47480	103.47278
24650.00000	103.21658	-105.00526	103.21658
24700.00000	103.14447	255.05257	103.14447
24750.00000	103.32535	609.45462	103.32535
24800.00000	103.17884	967.56252	103.17884
24850.00000	102.90906	1325.85981	102.90906
24900.00000	102.99380	1684.04854	102.99380
24950.00000	103.43895	2037.20388	103.43895
25000.00000	103.12058	2032.43251	103.12058
25050.00000	103.23649	2032.99392	103.23649
25100.00000	102.72493	2028.79746	102.72493
25150.00000	103.09655	2028.39359	103.09655
25200.00000	102.76042	2024.72564	102.76042
25250.00000	103.02202	2023.22008	103.02202
25300.00000	102.94750	2020.05878	102.94750
25350.00000	102.92821	2014.70843	102.92821
25400.00000	102.79640	2010.89366	102.79640
25450.00000	102.87089	2009.28084	102.87089
25500.00000	102.66810	2007.33801	102.66810
25550.00000	102.56409	2003.38955	102.56409
25600.00000	102.53764	2001.07487	102.53764
25650.00000	102.56562	2000.36165	102.56562
25700.00000	102.44496	1996.07197	102.44496
25750.00000	102.23659	1993.83547	102.23659
25800.00000	102.16589	1989.92839	102.16589
25850.00000	102.12725	1988.24961	102.12725
25900.00000	102.06937	1984.08471	102.06937
25950.00000	101.81433	1986.02287	101.81433
26000.00000	101.92454	1980.96336	101.92454
26050.00000	101.74258	1978.33780	101.74258
26100.00000	101.76637	1975.95138	101.76637
26150.00000	101.63224	1973.83992	101.63224
26200.00000	101.76165	1971.55922	101.76165
26250.00000	101.53297	1968.61707	101.53297
26300.00000	101.71875	1966.05948	101.71875
26350.00000	101.20105	1965.36074	101.20105
26400.00000	101.17776	1962.94962	101.17776
26450.00000	101.49968	1958.66501	101.49968
26500.00000	101.31597	1957.28648	101.31597
26550.00000	101.24434	1951.40069	101.24434
26600.00000	101.03487	1949.77722	101.03487
26650.00000	101.21494	1949.60395	101.21494
26700.00000	101.06578	1946.82163	101.06578
26750.00000	100.91561	1943.48286	100.91561
26800.00000	100.85328	1939.13764	100.85328
26850.00000	101.06069	1938.25274	101.06069
26900.00000	101.08638	1935.43143	101.08638
26950.00000	101.12730	1931.16391	101.12730
27000.00000	100.63200	1929.88341	100.63200
27050.00000	100.93850	1926.65372	100.93850
27100.00000	100.59914	1924.81333	100.59914
27150.00000	100.52561	1921.19798	100.52561
27200.00000	100.60986	1918.35045	100.60986
27250.00000	100.09493	1916.90221	100.09493
27300.00000	99.82259	1912.95937	99.82259
27350.00000	99.90737	1911.87157	99.90737
27400.00000	99.46657	1908.00533	99.46657
27450.00000	99.21057	1905.96224	99.21057
27500.00000	99.14809	1904.37383	99.14809
27550.00000	99.23920	1899.94369	99.23920
27600.00000	99.18417	1898.27209	99.18417
27650.00000	98.65630	1897.74739	98.65630
27700.00000	98.40052	1891.49474	98.40052
27750.00000	98.30764	1889.39226	98.30764
27800.00000	98.09470	1886.01538	98.09470
27850.00000	98.24920	1888.06513	98.24920
27900.00000	97.65116	1885.45382	97.65116
27950.00000	96.72375	1882.64864	96.72375
28000.00000	97.01000	1882.27401	97.01000
28050.00000	97.12203	1879.83916	97.12203
28100.00000	96.41191	1877.55273	96.41191
28150.00000	96.05529	1876.55288	96.05529
28200.00000	96.31301	1872.20673	96.31301
28250.00000	95.66026	1870.09761	95.66026
28300.00000	95.23509	1872.29432	95.23509
28350.00000	95.34217	1870.49154	95.34217
28400.00000	94.95218	1871.27614	94.95218
28450.00000	95.36606	1868.52712	95.36606
28500.00000	94.84855	1868.01370	94.84855
28550.00000	94.56345	1870.67363	94.56345
28600.00000	94.16840	1867.79137	94.16840
28650.00000	94.46083	1864.96259	94.46083
28700.00000	94.02774	1866.75728	94.02774
28750.00000	94.60396	1867.10032	94.60396
28800.00000	94.25150	1865.08915	94.25150
28850.00000	93.46369	1860.80511	93.46369
28900.00000	93.44392	1862.21567	93.44392
28950.00000	93.26110	1862.32805	93.26110
29000.00000	93.28610	1861.65210	93.28610
29050.00000	93.23619	1862.45311	93.23619
29100.00000	92.73988	1862.78969	92.73988
29150.00000	92.84704	1864.00061	92.84704
29200.00000	92.65108	1861.21058	92.65108
29250.00000	92.91671	1860.46813	92.91671
29300.00000	92.51496	1859.29028	92.51496
29350.00000	92.64661	1857.86475	92.64661
29400.00000	92.61124	1860.23866	92.61124
29450.00000	92.23745	1858.25816	92.23745
29500.00000	92.54048	1861.53481	92.54048
29550.00000	92.60239	1855.97380	92.60239
29600.00000	92.01306	1858.79907	92.01306
29650.00000	92.49180	1855.70856	92.49180
29700.00000	92.34302	1858.27200	92.34302
29750.00000	92.02935	1860.59128	92.02935
29800.00000	92.01898	1857.44406	92.01898
29850.00000	91.77935	1855.63078	91.77935
29900.00000	92.37697	1857.81641	92.37697
29950.00000	91.55749	1856.76763	91.55749
30000.00000	92.07906	1859.96285	92.07906
30050.00000	92.33920	1857.34977	92.33920
30100.00000	92.10905	1858.02191	92.10905
30150.00000	92.34443	1857.62219	92.34443
30200.00000	92.40590	1854.37257	92.40590
30250.00000	92.25310	1857.42863	92.25310
30300.00000	92.33312	1858.19111	92.33312
30350.00000	92.28110	1859.72957	92.28110
30400.00000	92.51844	1857.48972	92.51844
30450.00000	92.44965	1856.18670	92.44965
30500.00000	92.39790	1856.24395	92.39790
30550.00000	92.69235	1857.50059	92.69235
30600.00000	92.87146	1857.61503	92.87146
30650.00000	93.08927	1857.88824	93.08927
30700.00000	93.44927	1856.43082	93.44927
30750.00000	93.25537	1858.39054	93.25537
30800.00000	93.66713	1857.59450	93.66713
30850.00000	94.03330	1858.33038	94.03330
30900.00000	94.11117	1860.25200	94.11117
30950.00000	94.71033	1857.95569	94.71033
31000.00000	95.04446	1856.29151	95.04446
31050.00000	95.53133	1857.90489	95.53133
31100.00000	96.13229	1856.70698	96.13229
31150.00000	96.19055	1855.45037	96.19055
31200.00000	97.05609	1854.59217	97.05609
31250.00000	97.44098	1852.36096	97.44098
31300.00000	97.78558	1850.93981	97.78558
31350.00000	98.39511	1848.25092	98.39511
31400.00000	98.71344	1845.07715	98.71344
31450.00000	99.21094	1843.40753	99.21094
31500.00000	99.65509	1839.32111	99.65509
31550.00000	100.07723	1836.62108	100.07723
31600.00000	100.58013	1832.91045	100.58013
31650.00000	101.00578	1829.71292	101.00578
31700.00000	101.21994	1826.61498	101.21994
31750.00000	101.70964	1824.58376	101.70964
31800.00000	102.06822	1819.83322	102.06822
31850.00000	102.27386	1815.82387	102.27386
31900.00000	102.40342	1812.96384	102.40342
31950.00000	102.91268	1808.43597	102.91268
32000.00000	102.99674	1804.41915	102.99674
32050.00000	103.39098	1801.39057	103.39098
32100.00000	103.57223	1796.42755	103.57223
32150.00000	103.66508	1793.10458	103.66508
32200.00000	103.99856	1789.78036	103.99856
32250.00000	104.14774	1785.02605	104.14774
32300.00000	104.16670	1781.84202	104.16670
32350.00000	104.35128	1778.26172	104.35128
32400.00000	104.45443	1774.55376	104.45443
32450.00000	104.48916	1771.08398	104.48916
32500.00000	104.74800	1768.31073	104.74800
32550.00000	104.97797	1763.66957	104.97797
32600.00000	104.84739	1760.84490	104.84739
32650.00000	105.02515	1757.43309	105.02515
32700.00000	104.91595	1752.78426	104.91595
32750.00000	104.89032	1749.72812	104.89032
32800.00000	105.24238	1746.91976	105.24238
32850.00000	105.23931	1742.44221	105.23931
32900.00000	105.13153	1738.10708	105.13153
32950.00000	105.10733	1734.99860	105.10733
33000.00000	105.21288	1732.80227	105.21288
33050.00000	104.93099	1728.55312	104.93099
33100.00000	105.02452	1725.42819	105.02452
33150.00000	105.11083	1723.06551	105.11083
33200.00000	104.96179	1721.06696	104.96179
33250.00000	105.05383	1717.31228	105.05383
33300.00000	104.86942	1713.19464	104.86942
33350.00000	104.72816	1711.23285	104.72816
33400.00000	104.61997	1708.72226	104.61997
33450.00000	104.61760	1704.23111	104.61760
33500.00000	104.56440	1703.99752	104.56440
33550.00000	104.26559	1700.74295	104.26559
33600.00000	104.52579	1697.96513	104.52579
33650.00000	104.16248	1695.78964	104.16248
33700.00000	104.23291	1694.28627	104.23291
33750.00000	103.88122	1691.27912	103.88122
33800.00000	103.80315	1688.24098	103.80315
33850.00000	103.46615	1688.92261	103.46615
33900.00000	103.71801	1685.29065	103.71801
33950.00000	103.42187	1683.23272	103.42187
34000.00000	103.33449	1682.20650	103.33449
34050.00000	103.34482	1681.08127	103.34482
34100.00000	102.91424	1678.85066	102.91424
34150.00000	102.99472	1678.61523	102.99472
34200.00000	103.00439	1677.97124	103.00439
34250.00000	103.05775	1674.69572	103.05775
34300.00000	102.58040	1674.22198	102.58040
34350.00000	103.00610	1673.84633	103.00610
34400.00000	102.64311	1674.48311	102.64311
34450.00000	102.46293	1670.05509	102.46293
34500.00000	102.58237	1671.15440	102.58237
34550.00000	102.90989	1670.17268	102.90989
34600.00000	102.23105	1666.87135	102.23105
34650.00000	102.65615	1670.87310	102.65615
34700.00000	102.48933	1668.78327	102.48933
34750.00000	102.43261	1664.79706	102.43261
34800.00000	102.47281	1668.43514	102.47281
34850.00000	102.87075	1671.09096	102.87075
34900.00000	103.00661	1667.05468	103.00661
34950.00000	102.87112	1668.61597	102.87112
35000.00000	102.95109	1666.98595	102.95109
35050.00000	103.34812	1666.00029	103.34812
35100.00000	103.19200	1665.46781	103.19200
35150.00000	103.54326	1666.61687	103.54326
35200.00000	103.49181	1663.85425	103.49181
35250.00000	103.57870	1663.12261	103.57870
35300.00000	103.87386	1664.00358	103.87386
35350.00000	104.37456	1661.88546	104.37456
35400.00000	104.28523	1661.01033	104.28523
35450.00000	104.59846	1661.02812	104.59846
35500.00000	104.52069	1660.70962	104.52069
35550.00000	105.30375	1660.59590	105.30375
35600.00000	105.31389	1659.14408	105.31389
35650.00000	105.70016	1659.51994	105.70016
35700.00000	106.09128	1658.75030	106.09128
35750.00000	106.19548	1656.27382	106.19548
35800.00000	106.43684	1656.20805	106.43684
35850.00000	106.88489	1653.68533	106.88489
35900.00000	107.17089	1652.98627	107.17089
35950.00000	107.47474	1650.08270	107.47474
36000.00000	107.76853	1649.91189	107.76853
36050.00000	108.16123	1646.59001	108.16123
36100.00000	108.53191	1643.91155	108.53191
36150.00000	108.46615	1641.35489	108.46615
36200.00000	108.73520	1641.74570	108.73520
36250.00000	109.16964	1639.39819	109.16964
36300.00000	109.39431	1636.56641	109.39431
36350.00000	109.64554	1633.45727	109.64554
36400.00000	109.83727	1632.68956	109.83727
36450.00000	110.04350	1629.84032	110.04350
36500.00000	110.38740	1627.30094	110.38740
36550.00000	110.38468	1624.71185	110.38468
36600.00000	110.64153	1623.02028	110.64153
36650.00000	111.03022	1620.35048	111.03022
36700.00000	111.33497	1616.14624	111.33497
36750.00000	111.50419	1612.99625	111.50419
36800.00000	111.46239	1610.84391	111.46239
36850.00000	111.43578	1608.55905	111.43578
36900.00000	111.87870	1604.58129	111.87870
36950.00000	111.71668	1601.32094	111.71668
37000.00000	111.70065	1599.50441	111.70065
37050.00000	111.95081	1597.17654	111.95081
37100.00000	112.20483	1592.50332	112.20483
37150.00000	112.31647	1588.44795	112.31647
37200.00000	112.53556	1587.27233	112.53556
37250.00000	112.40444	1583.11324	112.40444
37300.00000	112.42293	1579.28450	112.42293
37350.00000	112.79857	1575.82537	112.79857
37400.00000	112.60925	1573.15637	112.60925
37450.00000	112.61321	1569.78704	112.61321
37500.00000	112.93174	1565.29053	112.93174
37550.00000	112.67710	1562.79368	112.67710
37600.00000	112.77251	1559.45913	112.77251
37650.00000	112.88254	1557.53415	112.88254
37700.00000	113.06998	1551.89345	113.06998
37750.00000	113.02857	1549.77115	113.02857
37800.00000	113.05004	1545.43330	113.05004
37850.00000	113.19640	1541.23249	113.19640
37900.00000	113.21854	1537.04219	113.21854
37950.00000	113.17742	1534.66700	113.17742
38000.00000	113.17982	1531.73674	113.17982
38050.00000	113.40867	1527.71226	113.40867
38100.00000	113.59679	1523.80030	113.59679
38150.00000	113.64581	1518.69471	113.64581
38200.00000	113.79454	1514.56015	113.79454
38250.00000	113.84304	1511.23268	113.84304
38300.00000	114.05219	1506.89914	114.05219
38350.00000	114.26390	1502.69113	114.26390
38400.00000	114.30538	1498.00663	114.30538
38450.00000	114.43139	1493.38112	114.43139
38500.00000	114.56648	1488.69246	114.56648
38550.00000	114.79366	1484.35146	114.79366
38600.00000	114.94384	1479.85974	114.94384
38650.00000	115.04359	1474.75138	115.04359
38700.00000	115.11709	1469.92938	115.11709
38750.00000	115.28144	1464.93669	115.28144
38800.00000	115.46058	1460.11837	115.46058
38850.00000	115.52057	1454.45354	115.52057
38900.00000	115.57778	1449.75079	115.57778
38950.00000	115.65323	1443.99640	115.65323
39000.00000	115.71089	1438.36453	115.71089
39050.00000	115.81607	1433.14324	115.81607
39100.00000	115.68698	1427.69590	115.68698
39150.00000	115.60236	1422.11419	115.60236
39200.00000	115.58450	1416.79257	115.58450
39250.00000	115.50580	1411.04287	115.50580
39300.00000	115.37273	1405.64847	115.37273
39350.00000	115.22137	1400.89564	115.22137
39400.00000	115.03437	1394.90895	115.03437
39450.00000	114.79530	1390.43110	114.79530
39500.00000	114.62175	1385.61473	114.62175
39550.00000	114.32038	1380.71772	114.32038
39600.00000	114.01003	1375.87599	114.01003
39650.00000	113.70948	1372.46946	113.70948
39700.00000	113.36991	1368.40791	113.36991
39750.00000	113.16661	1364.37405	113.16661
39800.00000	112.86336	1360.35623	112.86336
39850.00000	112.49287	1356.05645	112.49287
39900.00000	112.10471	1353.28384	112.10471
39950.00000	111.80629	1350.02679	111.80629
40000.00000	111.30468	1348.40517	111.30468
40050.00000	111.07179	1344.42669	111.07179
40100.00000	110.80898	1340.83155	110.80898
40150.00000	110.42455	1337.59859	110.42455
40200.00000	110.04975	1335.08443	110.04975
40250.00000	109.71347	1332.89926	109.71347
40300.00000	109.44415	1331.09782	109.44415
40350.00000	108.95081	1328.75628	108.95081
40400.00000	108.64779	1326.42412	108.64779
40450.00000	108.30990	1324.78406	108.30990
40500.00000	107.90631	1323.07213	107.90631
40550.00000	107.62501	1321.20230	107.62501
40600.00000	107.21976	1319.02458	107.21976
40650.00000	106.88960	1318.43020	106.88960
40700.00000	106.35116	1317.50640	106.35116
40750.00000	106.12933	1317.02083	106.12933
40800.00000	105.83183	1314.56142	105.83183
40850.00000	105.36158	1315.31019	105.36158
40900.00000	105.05751	1314.03223	105.05751
40950.00000	104.66682	1313.66656	104.66682
41000.00000	103.89873	1314.60362	103.89873
41050.00000	103.73775	1315.15914	103.73775
41100.00000	103.49349	1314.88066	103.49349
41150.00000	103.23240	1316.00428	103.23240
41200.00000	102.92997	1316.33344	102.92997
41250.00000	102.60664	1314.80630	102.60664
41300.00000	102.04992	1316.48041	102.04992
41350.00000	101.59237	1317.95097	101.59237
41400.00000	101.29357	1314.50908	101.29357
41450.00000	101.44298	1320.93206	101.44298
41500.00000	100.85557	1319.32522	100.85557
41550.00000	100.93331	1325.04841	100.93331
41600.00000	100.27458	1326.25208	100.27458
41650.00000	100.43139	1324.70369	100.43139
41700.00000	100.22860	1327.02068	100.22860
41750.00000	99.51958	1333.55939	99.51958
41800.00000	97.94349	1329.36882	97.94349
41850.00000	98.50211	1331.04520	98.50211
41900.00000	98.26199	1333.94496	98.26199
41950.00000	97.87562	1344.41279	97.87562
42000.00000	97.07336	1341.41729	97.07336
42050.00000	96.28185	1340.85614	96.28185
42100.00000	97.01582	1347.82640	97.01582
42150.00000	96.13076	1344.01639	96.13076
42200.00000	95.70193	1347.50670	95.70193
42250.00000	95.39608	1354.66396	95.39608
42300.00000	93.14756	1352.95066	93.14756
42350.00000	92.91078	1364.91424	92.91078
42400.00000	93.52022	1368.70876	93.52022
42450.00000	93.89584	1365.09372	93.89584
42500.00000	94.02736	1368.15363	94.02736
42550.00000	92.51391	1390.31550	92.51391
42600.00000	92.82076	1379.27505	92.82076
42650.00000	91.35577	1376.28840	91.35577
42700.00000	92.06112	1373.37033	92.06112
42750.00000	91.76607	1374.25468	91.76607
42800.00000	91.72998	1379.54968	91.72998
42850.00000	91.69073	1369.04633	91.69073
42900.00000	92.16514	1391.30124	92.16514
42950.00000	89.81598	1377.00231	89.81598
43000.00000	88.42386	1343.03179	88.42386
43050.00000	86.67587	1362.35792	86.67587
43100.00000	89.81790	1355.67398	89.81790
43150.00000	87.32023	1357.46214	87.32023
43200.00000	89.05885	1327.15131	89.05885
43250.00000	90.18391	1313.01487	90.18391
43300.00000	87.38750	1303.28134	87.38750
43350.00000	90.88770	1302.35525	90.88770
43400.00000	91.70196	1293.77460	91.70196
43450.00000	93.19278	1278.89894	93.19278
43500.00000	91.62717	1261.88937	91.62717
43550.00000	92.95201	1263.46576	92.95201
43600.00000	94.22457	1258.09806	94.22457
43650.00000	94.59865	1240.45545	94.59865
43700.00000	95.40440	1238.70797	95.40440
43750.00000	97.15604	1240.07747	97.15604
43800.00000	97.42665	1234.26475	97.42665
43850.00000	98.49179	1221.85315	98.49179
43900.00000	99.45613	1217.77893	99.45613
43950.00000	99.66335	1214.64259	99.66335
44000.00000	99.31584	1208.30186	99.31584
44050.00000	100.78483	1199.39903	100.78483
44100.00000	101.25885	1193.36222	101.25885
44150.00000	102.20440	1191.57355	102.20440
44200.00000	101.97787	1188.81906	101.97787
44250.00000	103.04397	1181.77522	103.04397
44300.00000	103.29291	1173.56353	103.29291
44350.00000	102.42779	1171.26593	102.42779
44400.00000	103.49672	1164.00291	103.49672
44450.00000	104.31673	1157.87659	104.31673
44500.00000	103.82829	1159.66662	103.82829
44550.00000	105.79179	1147.82509	105.79179
44600.00000	104.68591	1150.40754	104.68591
44650.00000	104.21801	1140.98677	104.21801
44700.00000	104.57904	1137.17490	104.57904
44750.00000	104.76656	1134.75468	104.76656
44800.00000	105.66544	1128.59950	105.66544
44850.00000	105.14428	1120.53009	105.14428
44900.00000	104.72107	1124.02640	104.72107
44950.00000	105.20718	1113.97111	105.20718
45000.00000	104.95799	1105.35746	104.95799
45050.00000	103.81093	1111.92941	103.81093
45100.00000	104.80105	1106.65694	104.80105
45150.00000	105.05966	1092.12012	105.05966
45200.00000	104.34861	1096.66468	104.34861
45250.00000	104.66178	1094.28975	104.66178
45300.00000	104.50881	1085.76685	104.50881
45350.00000	104.10215	1079.20542	104.10215
45400.00000	103.96929	1079.78184	103.96929
45450.00000	104.01193	1072.90111	104.01193
45500.00000	102.17622	1069.46579	102.17622
45550.00000	102.68863	1070.70848	102.68863
45600.00000	103.66516	1059.99370	103.66516
45650.00000	102.44225	1056.14922	102.44225
45700.00000	101.88364	1053.88979	101.88364
45750.00000	102.74730	1060.81130	102.74730
45800.00000	101.21123	1051.17136	101.21123
45850.00000	102.12255	1050.81168	102.12255
45900.00000	101.72512	1048.56658	101.72512
45950.00000	101.13128	1050.09953	101.13128
46000.00000	99.74255	1030.54196	99.74255
46050.00000	99.75122	1030.52062	99.75122
46100.00000	99.01127	1038.57945	99.01127
46150.00000	99.25739	1033.30416	99.25739
46200.00000	96.89413	1027.55526	96.89413
46250.00000	97.98544	1024.71734	97.98544
46300.00000	96.58622	1026.74030	96.58622
46350.00000	98.34728	1023.55638	98.34728
46400.00000	96.83767	1018.71651	96.83767
46450.00000	94.90848	1020.93714	94.90848
46500.00000	95.98356	1024.52037	95.98356
46550.00000	95.74803	1027.08561	95.74803
46600.00000	96.20956	1026.12041	96.20956
46650.00000	93.45281	1021.15109	93.45281
46700.00000	93.19636	1028.39607	93.19636
46750.00000	94.12781	1037.66290	94.12781
46800.00000	92.18397	1025.85106	92.18397
46850.00000	92.83617	685.45563	92.83617
46900.00000	93.48101	673.69764	93.48101
46950.00000	94.20734	673.43278	94.20734
47000.00000	93.40103	679.35539	93.40103
47050.00000	95.50118	675.68464	95.50118
47100.00000	93.61951	667.76340	93.61951
47150.00000	95.22899	674.15786	95.22899
47200.00000	93.58019	671.97470	93.58019
47250.00000	95.65547	669.69916	95.65547
47300.00000	95.04685	663.81238	95.04685
47350.00000	94.88495	308.19340	94.88495
47400.00000	93.69328	311.43589	93.69328
47450.00000	96.06119	313.22011	96.06119
47500.00000	93.80738	297.73900	93.80738
47550.00000	93.75387	-53.82294	93.75387
47600.00000	94.39324	-53.91916	94.39324
47650.00000	94.71869	-56.87449	94.71869
47700.00000	94.02457	-56.21635	94.02457
47750.00000	92.30576	-56.83562	92.30576
47800.00000	93.22807	-70.02696	93.22807
47850.00000	94.15459	-422.96484	94.15459
47900.00000	93.61604	-772.19245	93.61604
47950.00000	93.34147	-779.09960	93.34147
48000.00000	92.67076	-769.80721	92.67076
48050.00000	94.19954	-783.48967	94.19954
48100.00000	92.94234	-783.38431	92.94234
48150.00000	93.95254	-1135.16170	93.95254
48200.00000	93.79512	-1133.34795	93.79512
48250.00000	93.56856	-1145.65368	93.56856
48300.00000	93.99906	-1142.49033	93.99906
48350.00000	94.11015	-1147.41457	94.11015
48400.00000	93.55336	-1489.62058	93.55336
48450.00000	96.02192	-1495.61138	96.02192
48500.00000	93.99046	-1502.15615	93.99046
48550.00000	94.26394	-1506.83429	94.26394
48600.00000	95.46254	-1862.75208	95.46254
48650.00000	95.90128	-1859.44894	95.90128
48700.00000	96.48434	-1869.16475	96.48434
48750.00000	94.54860	-2216.88195	94.54860
48800.00000	96.20753	-2227.84904	96.20753
48850.00000	95.98037	-2232.63300	95.98037
48900.00000	94.49307	-2590.81138	94.49307
48950.00000	96.06308	-2599.15849	96.06308
49000.00000	96.13078	-2593.97742	96.13078
49050.00000	96.38363	-2601.65409	96.38363
49100.00000	95.48290	-2960.90938	95.48290
49150.00000	96.63320	-3321.50385	96.63320
49200.00000	96.84828	-3331.24408	96.84828
49250.00000	96.74208	-3674.61458	96.74208
49300.00000	97.83496	-3329.92042	97.83496
49350.00000	95.21748	-3318.62020	95.21748
49400.00000	95.66384	-2965.31798	95.66384
49450.00000	94.67747	-2615.43925	94.67747
49500.00000	96.16192	-2262.06071	96.16192
49550.00000	95.80679	-1902.91372	95.80679
49600.00000	94.56614	-1892.41873	94.56614
49650.00000	96.89486	-1893.80360	96.89486
49700.00000	97.16992	-1554.35825	97.16992
49750.00000	97.19712	-1551.71407	97.19712
49800.00000	97.13352	-1555.44989	97.13352
49850.00000	96.61757	-1544.31437	96.61757
49900.00000	96.41371	-1172.54614	96.41371
49950.00000	98.40715	-842.28950	98.40715
