---ACOUSTIC CALIBRATION---
Filename: C:\Data\AZH DATA\AZH22\RightSecondary.calib
Date: 8/27/2019 12:26:20 PM
Format: 4
Probe Tube Correction File: C:\Data\Probe Tube Calibrations\50_ProbeTube.calib
Experiment VIs: 850
EPL_CFTS.exe V12.0.1 (2012)
DAQmx V9.6

Attenuation (dB): 40.000000
Min Freq (Hz): 50.000000
Max Freq (Hz): 49950.000000
Freq Step (Hz): 50.000000
Sample Rate (Hz): 100000.000000
[Smoothing]
Method=None
MA.Iterations=0
MA.Length=0
Loess.Length=0
Loess.Type=Linear
Loess.Robust=FALSE


Freq(Hz)	Mag(dB)	Phase(deg)	Unsmoothed(dB)

50.00000	107.00558	348.63947	107.00558
100.00000	84.22695	507.98406	84.22695
150.00000	71.75274	450.03919	71.75274
200.00000	79.24905	403.83738	79.24905
250.00000	88.58543	445.82919	88.58543
300.00000	89.90161	295.94101	89.90161
350.00000	81.27411	324.94030	81.27411
400.00000	84.93375	322.65864	84.93375
450.00000	86.62663	323.16018	86.62663
500.00000	88.01058	317.04423	88.01058
550.00000	88.52662	320.35605	88.52662
600.00000	90.21231	329.51439	90.21231
650.00000	92.45337	324.30334	92.45337
700.00000	96.09352	316.11270	96.09352
750.00000	97.63283	318.97664	97.63283
800.00000	100.02500	309.90744	100.02500
850.00000	102.50866	297.77963	102.50866
900.00000	104.23271	278.80365	104.23271
950.00000	105.49191	262.52624	105.49191
1000.00000	105.42915	245.01496	105.42915
1050.00000	104.93838	235.78726	104.93838
1100.00000	105.26572	223.90199	105.26572
1150.00000	104.39850	214.36303	104.39850
1200.00000	104.21952	211.48124	104.21952
1250.00000	104.20374	199.97375	104.20374
1300.00000	103.46640	194.50085	103.46640
1350.00000	102.48323	190.75843	102.48323
1400.00000	101.62521	192.05104	101.62521
1450.00000	101.85558	191.45164	101.85558
1500.00000	102.30381	191.04001	102.30381
1550.00000	102.24471	188.67914	102.24471
1600.00000	102.99387	186.44907	102.99387
1650.00000	103.88296	177.16931	103.88296
1700.00000	102.74162	174.08982	102.74162
1750.00000	102.46209	169.81894	102.46209
1800.00000	102.25732	167.42315	102.25732
1850.00000	102.09052	169.39086	102.09052
1900.00000	102.94283	173.60087	102.94283
1950.00000	103.77842	164.91176	103.77842
2000.00000	103.30840	152.93417	103.30840
2050.00000	102.71840	148.36292	102.71840
2100.00000	103.02423	147.53577	103.02423
2150.00000	102.49202	146.97573	102.49202
2200.00000	101.55227	144.40770	101.55227
2250.00000	100.63078	141.43621	100.63078
2300.00000	100.77488	141.63442	100.77488
2350.00000	100.75056	145.62047	100.75056
2400.00000	100.88431	148.77720	100.88431
2450.00000	100.73347	149.39268	100.73347
2500.00000	100.66679	151.02262	100.66679
2550.00000	101.23002	155.00771	101.23002
2600.00000	102.13802	159.28655	102.13802
2650.00000	103.66406	157.35422	103.66406
2700.00000	104.83489	147.93140	104.83489
2750.00000	105.24149	138.12886	105.24149
2800.00000	105.28072	131.14868	105.28072
2850.00000	104.88614	127.10165	104.88614
2900.00000	104.30606	122.88447	104.30606
2950.00000	104.00174	119.23572	104.00174
3000.00000	103.77687	115.56966	103.77687
3050.00000	103.42489	114.59250	103.42489
3100.00000	103.36198	112.62817	103.36198
3150.00000	102.78915	108.70935	102.78915
3200.00000	102.14845	105.71133	102.14845
3250.00000	101.51837	104.63036	101.51837
3300.00000	100.63757	106.31622	100.63757
3350.00000	99.41234	109.95322	99.41234
3400.00000	98.69707	119.07159	98.69707
3450.00000	99.27192	126.00240	99.27192
3500.00000	100.07441	130.69148	100.07441
3550.00000	100.22485	132.02874	100.22485
3600.00000	100.44765	131.99679	100.44765
3650.00000	100.45462	134.42034	100.45462
3700.00000	100.25386	145.69378	100.25386
3750.00000	100.91518	159.16234	100.91518
3800.00000	102.78436	166.97989	102.78436
3850.00000	104.87204	168.69682	104.87204
3900.00000	106.79829	167.82218	106.79829
3950.00000	108.47749	164.75947	108.47749
4000.00000	109.82558	160.16901	109.82558
4050.00000	110.85308	155.41888	110.85308
4100.00000	111.70559	151.05992	111.70559
4150.00000	112.67002	147.92984	112.67002
4200.00000	113.32782	144.58681	113.32782
4250.00000	114.19620	142.10722	114.19620
4300.00000	115.23280	139.69595	115.23280
4350.00000	116.35375	137.13639	116.35375
4400.00000	117.53674	134.11461	117.53674
4450.00000	118.83746	129.79386	118.83746
4500.00000	120.21580	124.43090	120.21580
4550.00000	121.61125	117.72245	121.61125
4600.00000	122.94137	109.42103	122.94137
4650.00000	124.28771	99.77619	124.28771
4700.00000	125.48206	88.03213	125.48206
4750.00000	126.42699	74.46933	126.42699
4800.00000	127.02120	59.35110	127.02120
4850.00000	127.13354	43.92257	127.13354
4900.00000	126.79429	29.11707	126.79429
4950.00000	126.04863	15.78276	126.04863
5000.00000	124.91735	 5.03847	124.91735
5050.00000	123.77823	-2.45679	123.77823
5100.00000	122.37836	-10.41695	122.37836
5150.00000	119.89396	-8.89430	119.89396
5200.00000	119.74697	11.86112	119.74697
5250.00000	123.07299	12.17246	123.07299
5300.00000	124.56560	-2.46717	124.56560
5350.00000	124.70466	-16.13751	124.70466
5400.00000	124.35241	-26.91915	124.35241
5450.00000	123.89741	-35.33658	123.89741
5500.00000	123.38272	-42.47386	123.38272
5550.00000	122.90035	-48.73051	122.90035
5600.00000	122.44759	-54.45433	122.44759
5650.00000	121.99432	-59.68819	121.99432
5700.00000	121.54261	-64.80822	121.54261
5750.00000	121.10209	-69.26527	121.10209
5800.00000	120.66846	-73.70822	120.66846
5850.00000	120.27066	-77.85029	120.27066
5900.00000	119.90049	-81.70466	119.90049
5950.00000	119.52925	-85.54528	119.52925
6000.00000	119.16287	-89.24815	119.16287
6050.00000	118.81072	-92.76708	118.81072
6100.00000	118.45475	-96.29011	118.45475
6150.00000	118.13128	-99.73905	118.13128
6200.00000	117.78836	-103.03346	117.78836
6250.00000	117.45423	-106.29599	117.45423
6300.00000	117.15324	-109.52105	117.15324
6350.00000	116.82817	-112.63052	116.82817
6400.00000	116.49154	-115.45053	116.49154
6450.00000	116.19633	-118.46450	116.19633
6500.00000	115.84362	-121.19521	115.84362
6550.00000	115.50246	-123.94493	115.50246
6600.00000	115.17783	-126.36814	115.17783
6650.00000	114.84966	-128.73075	114.84966
6700.00000	114.52988	-131.27897	114.52988
6750.00000	114.23098	-133.40743	114.23098
6800.00000	113.94635	-135.31714	113.94635
6850.00000	113.64870	-137.26245	113.64870
6900.00000	113.40735	-139.19737	113.40735
6950.00000	113.15366	-140.87189	113.15366
7000.00000	112.92120	-142.90093	112.92120
7050.00000	112.67767	-144.60039	112.67767
7100.00000	112.47798	-146.24888	112.47798
7150.00000	112.23461	-147.72216	112.23461
7200.00000	112.03702	-149.06064	112.03702
7250.00000	111.81999	-150.33915	111.81999
7300.00000	111.69509	-151.34070	111.69509
7350.00000	111.54033	-152.16862	111.54033
7400.00000	111.47093	-152.95931	111.47093
7450.00000	111.40850	-153.83900	111.40850
7500.00000	111.42078	-154.99818	111.42078
7550.00000	111.43807	-155.62446	111.43807
7600.00000	111.49420	-157.09492	111.49420
7650.00000	111.58380	-158.32604	111.58380
7700.00000	111.73125	-159.89229	111.73125
7750.00000	111.83261	-161.77086	111.83261
7800.00000	111.97298	-163.97892	111.97298
7850.00000	112.12432	-166.31223	112.12432
7900.00000	112.25029	-168.94009	112.25029
7950.00000	112.35937	-171.86996	112.35937
8000.00000	112.45735	-175.00924	112.45735
8050.00000	112.52634	-178.36123	112.52634
8100.00000	112.57713	-181.27242	112.57713
8150.00000	112.54282	-184.41187	112.54282
8200.00000	112.54537	-187.78546	112.54537
8250.00000	112.50781	-191.19358	112.50781
8300.00000	112.48023	-194.49079	112.48023
8350.00000	112.41651	-197.67789	112.41651
8400.00000	112.30620	-201.27049	112.30620
8450.00000	112.11098	-204.45982	112.11098
8500.00000	111.94787	-207.63568	111.94787
8550.00000	111.82562	-210.33937	111.82562
8600.00000	111.65533	-213.49759	111.65533
8650.00000	111.47112	-216.30760	111.47112
8700.00000	111.33004	-219.83359	111.33004
8750.00000	111.08996	-221.96266	111.08996
8800.00000	110.97105	-224.97853	110.97105
8850.00000	110.73299	-227.80586	110.73299
8900.00000	110.59251	-230.16132	110.59251
8950.00000	110.44475	-233.08046	110.44475
9000.00000	110.24214	-235.37686	110.24214
9050.00000	110.14250	-238.38557	110.14250
9100.00000	110.02696	-240.47084	110.02696
9150.00000	109.91999	-242.76137	109.91999
9200.00000	109.83701	-244.97661	109.83701
9250.00000	109.72595	-247.25785	109.72595
9300.00000	109.62818	-249.59219	109.62818
9350.00000	109.60307	-251.52466	109.60307
9400.00000	109.42590	-253.58156	109.42590
9450.00000	109.40464	-255.83013	109.40464
9500.00000	109.35538	-257.97222	109.35538
9550.00000	109.28224	-260.29396	109.28224
9600.00000	109.28495	-262.91055	109.28495
9650.00000	109.26262	-265.76918	109.26262
9700.00000	109.20071	-267.96775	109.20071
9750.00000	109.23018	-271.16947	109.23018
9800.00000	109.12916	-273.27394	109.12916
9850.00000	109.06098	-275.34931	109.06098
9900.00000	108.80492	-278.25930	108.80492
9950.00000	108.66795	-280.34515	108.66795
10000.00000	108.50764	-283.43589	108.50764
10050.00000	108.28658	-286.16734	108.28658
10100.00000	108.09257	-288.80920	108.09257
10150.00000	107.82960	-292.26382	107.82960
10200.00000	107.67060	-295.20973	107.67060
10250.00000	107.46970	-298.17033	107.46970
10300.00000	107.44750	-300.90513	107.44750
10350.00000	107.27441	-303.27415	107.27441
10400.00000	107.06118	-305.78379	107.06118
10450.00000	107.01239	-308.35073	107.01239
10500.00000	106.89019	-310.78263	106.89019
10550.00000	106.69880	-313.35618	106.69880
10600.00000	106.50732	-315.72659	106.50732
10650.00000	106.30744	-318.00703	106.30744
10700.00000	106.14162	-321.55941	106.14162
10750.00000	106.02685	-324.51010	106.02685
10800.00000	105.81822	-326.96936	105.81822
10850.00000	105.65427	-330.26232	105.65427
10900.00000	105.51073	-332.51965	105.51073
10950.00000	105.31090	-334.55840	105.31090
11000.00000	105.08333	-336.81950	105.08333
11050.00000	104.67020	-339.01544	104.67020
11100.00000	104.35962	-341.80048	104.35962
11150.00000	103.95549	-344.13107	103.95549
11200.00000	103.69522	-346.41428	103.69522
11250.00000	103.33763	-349.05983	103.33763
11300.00000	102.98041	-351.23542	102.98041
11350.00000	102.69175	-352.58780	102.69175
11400.00000	102.31349	-354.02162	102.31349
11450.00000	102.02907	-355.62817	102.02907
11500.00000	101.84685	-356.03926	101.84685
11550.00000	101.42322	-357.29387	101.42322
11600.00000	101.26038	-359.30455	101.26038
11650.00000	101.00180	-359.43764	101.00180
11700.00000	100.84761	-360.58322	100.84761
11750.00000	100.75133	-361.65087	100.75133
11800.00000	100.64493	-363.06117	100.64493
11850.00000	100.59945	-363.03401	100.59945
11900.00000	100.32904	-364.60900	100.32904
11950.00000	100.26600	-365.42951	100.26600
12000.00000	100.04829	-366.25202	100.04829
12050.00000	99.84264	-367.33955	99.84264
12100.00000	99.75962	-369.59732	99.75962
12150.00000	99.64871	-371.50622	99.64871
12200.00000	99.62098	-373.68240	99.62098
12250.00000	99.49090	-374.81828	99.49090
12300.00000	100.52026	-376.95121	100.52026
12350.00000	99.25392	-378.54463	99.25392
12400.00000	99.06747	-379.58406	99.06747
12450.00000	98.82613	-381.53258	98.82613
12500.00000	98.64338	-383.27789	98.64338
12550.00000	98.45233	-385.39705	98.45233
12600.00000	98.16639	-387.22401	98.16639
12650.00000	98.12337	-388.80929	98.12337
12700.00000	97.85307	-390.23043	97.85307
12750.00000	97.63035	-391.95209	97.63035
12800.00000	97.40412	-392.39912	97.40412
12850.00000	96.92315	-394.15288	96.92315
12900.00000	96.74901	-395.22368	96.74901
12950.00000	96.69848	-397.10776	96.69848
13000.00000	96.44407	-398.73526	96.44407
13050.00000	96.45354	-398.09570	96.45354
13100.00000	96.17670	-399.27572	96.17670
13150.00000	95.92047	-400.77007	95.92047
13200.00000	95.60105	-400.08396	95.60105
13250.00000	95.26097	-401.36944	95.26097
13300.00000	94.85553	-401.13420	94.85553
13350.00000	94.80947	-402.75417	94.80947
13400.00000	94.77605	-405.43984	94.77605
13450.00000	94.51808	-405.09214	94.51808
13500.00000	94.60138	-403.99062	94.60138
13550.00000	94.37071	-404.30300	94.37071
13600.00000	94.11395	-403.15246	94.11395
13650.00000	93.98649	-403.63375	93.98649
13700.00000	93.56088	-404.47120	93.56088
13750.00000	93.29493	-404.76026	93.29493
13800.00000	93.06318	-407.17982	93.06318
13850.00000	92.85383	-408.57828	92.85383
13900.00000	92.72351	-408.24741	92.72351
13950.00000	92.60906	-408.23687	92.60906
14000.00000	92.85487	-406.68539	92.85487
14050.00000	92.82729	-407.00841	92.82729
14100.00000	92.57007	-406.04367	92.57007
14150.00000	92.56400	-405.96231	92.56400
14200.00000	92.55993	-404.78507	92.55993
14250.00000	92.73710	-403.62119	92.73710
14300.00000	92.61925	-403.44621	92.61925
14350.00000	92.46201	-402.24805	92.46201
14400.00000	92.07559	-403.17266	92.07559
14450.00000	92.02309	-401.74235	92.02309
14500.00000	92.10646	-403.29358	92.10646
14550.00000	92.41662	-402.34741	92.41662
14600.00000	92.39131	-401.39793	92.39131
14650.00000	92.70734	-398.84971	92.70734
14700.00000	92.71140	-401.31786	92.71140
14750.00000	92.79253	-401.13810	92.79253
14800.00000	92.68681	-400.51737	92.68681
14850.00000	92.95273	-399.64279	92.95273
14900.00000	93.26103	-400.23465	93.26103
14950.00000	93.41994	-401.37281	93.41994
15000.00000	93.47214	-401.56191	93.47214
15050.00000	93.59030	-401.23816	93.59030
15100.00000	93.74621	-400.66889	93.74621
15150.00000	94.13191	-401.06061	94.13191
15200.00000	94.28330	-398.89318	94.28330
15250.00000	94.31023	-398.88066	94.31023
15300.00000	94.59454	-399.36700	94.59454
15350.00000	94.62583	-400.30760	94.62583
15400.00000	94.77209	-399.37946	94.77209
15450.00000	95.03142	-400.52723	95.03142
15500.00000	95.39186	-401.96409	95.39186
15550.00000	95.72211	-403.40882	95.72211
15600.00000	96.04628	-403.59479	96.04628
15650.00000	96.51525	-402.92455	96.51525
15700.00000	96.67544	-403.69548	96.67544
15750.00000	96.99463	-403.66070	96.99463
15800.00000	97.16449	-404.20142	97.16449
15850.00000	97.52055	-405.54512	97.52055
15900.00000	97.71794	-406.47552	97.71794
15950.00000	98.04459	-407.30537	98.04459
16000.00000	98.37884	-408.16159	98.37884
16050.00000	98.62728	-409.64388	98.62728
16100.00000	98.80691	-411.44494	98.80691
16150.00000	99.15945	-413.01131	99.15945
16200.00000	99.54265	-414.98130	99.54265
16250.00000	99.90181	-415.40197	99.90181
16300.00000	100.30756	-416.80195	100.30756
16350.00000	100.49974	-418.17712	100.49974
16400.00000	100.81563	-419.99357	100.81563
16450.00000	101.16933	-421.82114	101.16933
16500.00000	101.44560	-423.65349	101.44560
16550.00000	101.79799	-426.36318	101.79799
16600.00000	102.14043	-428.68034	102.14043
16650.00000	102.39107	-430.54066	102.39107
16700.00000	102.66334	-432.60132	102.66334
16750.00000	102.81991	-435.22781	102.81991
16800.00000	103.11940	-437.96057	103.11940
16850.00000	103.45028	-440.20562	103.45028
16900.00000	103.71887	-442.75042	103.71887
16950.00000	103.90290	-444.86983	103.90290
17000.00000	103.94521	-447.47882	103.94521
17050.00000	104.15154	-449.71451	104.15154
17100.00000	104.31668	-451.30369	104.31668
17150.00000	104.67183	-454.54589	104.67183
17200.00000	104.89875	-456.30128	104.89875
17250.00000	104.98109	-459.08214	104.98109
17300.00000	105.17420	-461.48381	105.17420
17350.00000	105.23764	-463.60264	105.23764
17400.00000	105.54657	-466.08542	105.54657
17450.00000	105.66457	-468.61656	105.66457
17500.00000	105.89205	-470.66799	105.89205
17550.00000	106.03911	-473.13684	106.03911
17600.00000	106.31885	-475.26885	106.31885
17650.00000	106.48094	-478.58386	106.48094
17700.00000	106.63985	-481.23299	106.63985
17750.00000	106.96875	-483.01246	106.96875
17800.00000	107.03102	-486.03577	107.03102
17850.00000	107.22096	-488.19718	107.22096
17900.00000	107.35882	-491.06727	107.35882
17950.00000	107.62070	-493.98197	107.62070
18000.00000	107.76968	-497.55780	107.76968
18050.00000	108.06557	-499.70315	108.06557
18100.00000	108.16695	-503.19234	108.16695
18150.00000	108.29396	-505.41124	108.29396
18200.00000	108.34415	-508.87732	108.34415
18250.00000	108.53438	-511.14301	108.53438
18300.00000	108.74034	-514.19162	108.74034
18350.00000	108.86907	-516.83849	108.86907
18400.00000	108.88976	-519.89621	108.88976
18450.00000	108.96680	-523.95180	108.96680
18500.00000	109.11026	-526.69971	109.11026
18550.00000	109.23528	-528.92169	109.23528
18600.00000	109.44710	-532.08064	109.44710
18650.00000	109.42253	-534.60262	109.42253
18700.00000	109.54564	-537.99853	109.54564
18750.00000	109.72298	-540.96930	109.72298
18800.00000	109.98866	-543.33486	109.98866
18850.00000	109.99957	-546.58193	109.99957
18900.00000	110.10603	-549.56236	110.10603
18950.00000	110.26043	-553.39158	110.26043
19000.00000	110.24134	-556.20551	110.24134
19050.00000	110.50689	-559.70466	110.50689
19100.00000	110.56142	-562.90874	110.56142
19150.00000	110.77766	-566.17997	110.77766
19200.00000	110.84021	-569.33389	110.84021
19250.00000	110.89648	-573.99253	110.89648
19300.00000	110.91321	-576.94181	110.91321
19350.00000	110.98858	-580.62358	110.98858
19400.00000	110.98068	-584.10428	110.98068
19450.00000	111.10199	-587.23666	111.10199
19500.00000	111.02991	-591.76207	111.02991
19550.00000	111.07050	-595.39629	111.07050
19600.00000	111.14232	-599.61963	111.14232
19650.00000	111.05009	-602.69941	111.05009
19700.00000	110.91988	-606.53208	110.91988
19750.00000	110.84495	-609.63001	110.84495
19800.00000	110.88959	-614.15378	110.88959
19850.00000	110.84420	-617.31323	110.84420
19900.00000	110.70008	-621.54508	110.70008
19950.00000	110.57685	-624.96778	110.57685
20000.00000	110.47092	-628.53321	110.47092
20050.00000	110.37621	-631.97304	110.37621
20100.00000	110.17018	-635.39292	110.17018
20150.00000	110.09116	-637.75513	110.09116
20200.00000	109.89751	-641.75836	109.89751
20250.00000	109.67926	-644.85961	109.67926
20300.00000	109.44958	-648.09323	109.44958
20350.00000	109.34964	-651.22173	109.34964
20400.00000	109.10442	-653.32484	109.10442
20450.00000	108.81325	-656.24918	108.81325
20500.00000	108.66457	-659.39491	108.66457
20550.00000	108.24185	-661.23791	108.24185
20600.00000	108.11305	-663.36446	108.11305
20650.00000	107.87805	-665.57119	107.87805
20700.00000	107.58251	-667.62298	107.58251
20750.00000	107.42037	-669.38452	107.42037
20800.00000	107.15474	-670.75184	107.15474
20850.00000	107.01695	-672.32528	107.01695
20900.00000	106.75928	-673.57843	106.75928
20950.00000	106.56297	-674.18617	106.56297
21000.00000	106.40934	-675.07471	106.40934
21050.00000	106.44134	-675.67449	106.44134
21100.00000	106.33539	-676.09314	106.33539
21150.00000	106.35409	-677.01880	106.35409
21200.00000	106.37764	-677.53448	106.37764
21250.00000	106.41694	-679.57684	106.41694
21300.00000	106.54852	-680.04293	106.54852
21350.00000	106.58086	-681.07094	106.58086
21400.00000	106.63539	-682.79954	106.63539
21450.00000	106.73832	-684.44908	106.73832
21500.00000	106.84394	-686.43703	106.84394
21550.00000	106.83449	-687.81504	106.83449
21600.00000	106.98813	-689.82371	106.98813
21650.00000	107.01389	-691.91885	107.01389
21700.00000	107.08925	-693.75516	107.08925
21750.00000	107.15314	-695.69607	107.15314
21800.00000	107.22519	-697.81601	107.22519
21850.00000	107.19791	-699.70838	107.19791
21900.00000	107.26141	-701.99884	107.26141
21950.00000	107.28150	-703.88026	107.28150
22000.00000	107.38842	-705.97531	107.38842
22050.00000	107.36800	-707.50457	107.36800
22100.00000	107.35076	-709.80245	107.35076
22150.00000	107.35650	-711.82811	107.35650
22200.00000	107.45646	-713.85326	107.45646
22250.00000	107.41285	-715.26539	107.41285
22300.00000	107.32198	-717.45218	107.32198
22350.00000	107.43613	-719.47621	107.43613
22400.00000	107.44704	-721.58792	107.44704
22450.00000	107.41408	-723.23935	107.41408
22500.00000	107.39870	-723.94421	107.39870
22550.00000	107.38121	-725.88427	107.38121
22600.00000	107.35322	-728.78010	107.35322
22650.00000	107.41341	-730.53293	107.41341
22700.00000	107.43154	-731.58881	107.43154
22750.00000	107.38539	-731.40551	107.38539
22800.00000	107.44495	-735.24695	107.44495
22850.00000	107.52560	-737.63777	107.52560
22900.00000	107.55529	-737.86674	107.55529
22950.00000	107.63772	-739.25868	107.63772
23000.00000	107.61855	-740.28397	107.61855
23050.00000	107.57547	-742.82607	107.57547
23100.00000	107.79202	-743.49595	107.79202
23150.00000	107.71784	-744.36924	107.71784
23200.00000	107.93225	-746.68851	107.93225
23250.00000	107.78073	-749.38270	107.78073
23300.00000	108.13403	-751.24173	108.13403
23350.00000	107.97518	-752.76570	107.97518
23400.00000	108.05477	-754.32640	108.05477
23450.00000	108.24881	-756.03391	108.24881
23500.00000	108.19733	-757.34907	108.19733
23550.00000	108.26517	-757.55782	108.26517
23600.00000	108.31777	-761.25145	108.31777
23650.00000	108.43437	-762.25101	108.43437
23700.00000	108.69743	-766.31794	108.69743
23750.00000	108.76540	-766.98496	108.76540
23800.00000	108.61388	-767.72036	108.61388
23850.00000	108.84857	-768.78507	108.84857
23900.00000	109.29456	-771.20448	109.29456
23950.00000	109.10613	-774.26693	109.10613
24000.00000	109.07141	-777.18785	109.07141
24050.00000	109.34044	-777.52543	109.34044
24100.00000	109.68672	-781.35001	109.68672
24150.00000	109.80390	-783.38067	109.80390
24200.00000	109.88540	-787.35340	109.88540
24250.00000	109.66440	-787.68730	109.66440
24300.00000	110.09502	-790.86621	110.09502
24350.00000	110.09873	-793.58270	110.09873
24400.00000	110.11068	-797.29907	110.11068
24450.00000	109.96976	-799.57855	109.96976
24500.00000	110.50146	-801.11241	110.50146
24550.00000	110.42882	-446.63577	110.42882
24600.00000	110.95665	-88.36495	110.95665
24650.00000	110.75199	267.01268	110.75199
24700.00000	110.62857	626.28475	110.62857
24750.00000	110.77680	980.66887	110.77680
24800.00000	110.80869	1337.75838	110.80869
24850.00000	110.51679	1695.74867	110.51679
24900.00000	110.66361	2053.48358	110.66361
24950.00000	110.80259	2408.36947	110.80259
25000.00000	110.83017	2400.02043	110.83017
25050.00000	110.91550	2398.47593	110.91550
25100.00000	110.38709	2395.86912	110.38709
25150.00000	110.73618	2394.20479	110.73618
25200.00000	110.42616	2389.05420	110.42616
25250.00000	110.52812	2386.91897	110.52812
25300.00000	110.47608	2384.44078	110.47608
25350.00000	110.32920	2377.03566	110.32920
25400.00000	110.26282	2372.93423	110.26282
25450.00000	110.21019	2370.68812	110.21019
25500.00000	109.94041	2367.55988	109.94041
25550.00000	109.81154	2363.25674	109.81154
25600.00000	109.75792	2360.37196	109.75792
25650.00000	109.50191	2358.13534	109.50191
25700.00000	109.44999	2354.36525	109.44999
25750.00000	109.17285	2350.46263	109.17285
25800.00000	108.96176	2346.16531	108.96176
25850.00000	108.81394	2343.57743	108.81394
25900.00000	108.66439	2338.87687	108.66439
25950.00000	108.29529	2339.87756	108.29529
26000.00000	108.20330	2334.02897	108.20330
26050.00000	108.01873	2331.45049	108.01873
26100.00000	107.79011	2328.29109	107.79011
26150.00000	107.63194	2325.65073	107.63194
26200.00000	107.58102	2322.40648	107.58102
26250.00000	107.28923	2319.45241	107.28923
26300.00000	107.22570	2315.75208	107.22570
26350.00000	106.66388	2314.47668	106.66388
26400.00000	106.56631	2311.65138	106.56631
26450.00000	106.73255	2308.03365	106.73255
26500.00000	106.33143	2305.24299	106.33143
26550.00000	106.08193	2299.62207	106.08193
26600.00000	105.81969	2297.39454	105.81969
26650.00000	105.80160	2297.57500	105.80160
26700.00000	105.61770	2294.07596	105.61770
26750.00000	105.33089	2291.08460	105.33089
26800.00000	105.08314	2285.69180	105.08314
26850.00000	105.23363	2285.33739	105.23363
26900.00000	105.08621	2282.83065	105.08621
26950.00000	105.00468	2278.70409	105.00468
27000.00000	104.43438	2277.32297	104.43438
27050.00000	104.55164	2274.16665	104.55164
27100.00000	104.18771	2272.23458	104.18771
27150.00000	104.02200	2268.76547	104.02200
27200.00000	104.07904	2266.77133	104.07904
27250.00000	103.51582	2264.46018	103.51582
27300.00000	103.21397	2261.15751	103.21397
27350.00000	103.19250	2260.21844	103.19250
27400.00000	102.73294	2257.78450	102.73294
27450.00000	102.59860	2254.98300	102.59860
27500.00000	102.41803	2253.43382	102.41803
27550.00000	102.33978	2250.58763	102.33978
27600.00000	102.35626	2247.36520	102.35626
27650.00000	101.91014	2247.30835	101.91014
27700.00000	101.82187	2241.39050	101.82187
27750.00000	101.75088	2239.79044	101.75088
27800.00000	101.74449	2235.28618	101.74449
27850.00000	101.78536	2237.36467	101.78536
27900.00000	101.20999	2235.15157	101.20999
27950.00000	100.42485	2232.22657	100.42485
28000.00000	100.64170	2232.46519	100.64170
28050.00000	101.02454	2228.04801	101.02454
28100.00000	100.27953	2226.69384	100.27953
28150.00000	100.01511	2225.62711	100.01511
28200.00000	100.18422	2221.21811	100.18422
28250.00000	99.79194	2218.74711	99.79194
28300.00000	99.38235	2218.12346	99.38235
28350.00000	99.57778	2217.67429	99.57778
28400.00000	99.20466	2216.63783	99.20466
28450.00000	99.73360	2213.28962	99.73360
28500.00000	99.10301	2213.08547	99.10301
28550.00000	98.92555	2214.06506	98.92555
28600.00000	98.93239	2212.26937	98.93239
28650.00000	99.05392	2207.94742	99.05392
28700.00000	98.87896	2208.59560	98.87896
28750.00000	99.30692	2207.57629	99.30692
28800.00000	98.88738	2206.46552	98.88738
28850.00000	98.17923	2202.42299	98.17923
28900.00000	98.45744	2200.95690	98.45744
28950.00000	98.17940	2200.90296	98.17940
29000.00000	98.40310	2199.29498	98.40310
29050.00000	98.00765	2200.78069	98.00765
29100.00000	97.87746	2199.28764	97.87746
29150.00000	97.81864	2199.00025	97.81864
29200.00000	97.54149	2195.74438	97.54149
29250.00000	97.74310	2196.04754	97.74310
29300.00000	97.47550	2194.52754	97.47550
29350.00000	97.78354	2192.46107	97.78354
29400.00000	97.52879	2192.62392	97.52879
29450.00000	97.35277	2191.13985	97.35277
29500.00000	97.71086	2192.20230	97.71086
29550.00000	97.39212	2187.96042	97.39212
29600.00000	97.16334	2189.46735	97.16334
29650.00000	97.11789	2187.66027	97.11789
29700.00000	97.17000	2189.96822	97.17000
29750.00000	97.04526	2190.53393	97.04526
29800.00000	96.93643	2188.20779	96.93643
29850.00000	97.01058	2186.73763	97.01058
29900.00000	97.21396	2187.90588	97.21396
29950.00000	96.49920	2189.00474	96.49920
30000.00000	96.94710	2188.78049	96.94710
30050.00000	97.17059	2187.89641	97.17059
30100.00000	96.68630	2190.34145	96.68630
30150.00000	96.97632	2188.05938	96.97632
30200.00000	97.00007	2187.16254	97.00007
30250.00000	96.96545	2188.04414	96.96545
30300.00000	96.65016	2189.12834	96.65016
30350.00000	96.93661	2191.29375	96.93661
30400.00000	97.05438	2190.14715	97.05438
30450.00000	96.82685	2191.11624	96.82685
30500.00000	96.95815	2190.80853	96.95815
30550.00000	97.08245	2192.86426	97.08245
30600.00000	97.14774	2194.42357	97.14774
30650.00000	97.28978	2194.52705	97.28978
30700.00000	97.46617	2194.30261	97.46617
30750.00000	97.44267	2196.28137	97.44267
30800.00000	97.65429	2196.86457	97.65429
30850.00000	97.93092	2199.17978	97.93092
30900.00000	98.03632	2200.98489	98.03632
30950.00000	98.55470	2199.83395	98.55470
31000.00000	98.83848	2199.42015	98.83848
31050.00000	99.17368	2200.48590	99.17368
31100.00000	99.73977	2201.36137	99.73977
31150.00000	99.67023	2201.16383	99.67023
31200.00000	100.48920	2199.89514	100.48920
31250.00000	100.73824	2199.49168	100.73824
31300.00000	101.09536	2198.81291	101.09536
31350.00000	101.58798	2197.92546	101.58798
31400.00000	101.79072	2195.48610	101.79072
31450.00000	102.19678	2194.22191	102.19678
31500.00000	102.52388	2191.57602	102.52388
31550.00000	102.87351	2189.69048	102.87351
31600.00000	103.25657	2186.46737	103.25657
31650.00000	103.47147	2184.12824	103.47147
31700.00000	103.75268	2182.14813	103.75268
31750.00000	104.00663	2180.58415	104.00663
31800.00000	104.22655	2175.89715	104.22655
31850.00000	104.41794	2172.85567	104.41794
31900.00000	104.49607	2170.59702	104.49607
31950.00000	104.65314	2167.33446	104.65314
32000.00000	104.79926	2163.99754	104.79926
32050.00000	104.96673	2161.75982	104.96673
32100.00000	105.00457	2157.34341	105.00457
32150.00000	105.10618	2154.35590	105.10618
32200.00000	105.12688	2151.35368	105.12688
32250.00000	105.10834	2147.16111	105.10834
32300.00000	105.10030	2144.68344	105.10030
32350.00000	105.04387	2141.54039	105.04387
32400.00000	105.10221	2139.45345	105.10221
32450.00000	104.86481	2135.31267	104.86481
32500.00000	104.94642	2132.93774	104.94642
32550.00000	104.99523	2128.85127	104.99523
32600.00000	104.76142	2125.89106	104.76142
32650.00000	104.74064	2123.29671	104.74064
32700.00000	104.56365	2119.22693	104.56365
32750.00000	104.36435	2117.28865	104.36435
32800.00000	104.37200	2115.11842	104.37200
32850.00000	104.35064	2112.33338	104.35064
32900.00000	104.34507	2108.54837	104.34507
32950.00000	103.96083	2105.62970	103.96083
33000.00000	103.89821	2105.07099	103.89821
33050.00000	103.68717	2101.93497	103.68717
33100.00000	103.78242	2098.98916	103.78242
33150.00000	103.76475	2097.55175	103.76475
33200.00000	103.64919	2096.26994	103.64919
33250.00000	103.45546	2093.84944	103.45546
33300.00000	103.54776	2091.02546	103.54776
33350.00000	103.39909	2088.69037	103.39909
33400.00000	103.42707	2088.13615	103.42707
33450.00000	103.29809	2084.89936	103.29809
33500.00000	103.46999	2084.77981	103.46999
33550.00000	103.15402	2081.19334	103.15402
33600.00000	103.40224	2078.75249	103.40224
33650.00000	103.46350	2077.86633	103.46350
33700.00000	103.40581	2076.10633	103.40581
33750.00000	103.45740	2071.92558	103.45740
33800.00000	103.32675	2070.15247	103.32675
33850.00000	103.15959	2068.79574	103.15959
33900.00000	103.48231	2064.79639	103.48231
33950.00000	103.40192	2063.15131	103.40192
34000.00000	103.70642	2060.80011	103.70642
34050.00000	103.63727	2058.64764	103.63727
34100.00000	103.45504	2056.55788	103.45504
34150.00000	103.51488	2053.46202	103.51488
34200.00000	103.52222	2053.60523	103.52222
34250.00000	103.61749	2048.21860	103.61749
34300.00000	103.62164	2046.52906	103.62164
34350.00000	103.76447	2045.12021	103.76447
34400.00000	103.42582	2042.87310	103.42582
34450.00000	103.50362	2038.43488	103.50362
34500.00000	103.65819	2038.31589	103.65819
34550.00000	103.71204	2035.12894	103.71204
34600.00000	102.92255	2032.15161	102.92255
34650.00000	103.38522	2032.80746	103.38522
34700.00000	103.22460	2033.25680	103.22460
34750.00000	103.49809	2025.80606	103.49809
34800.00000	103.51358	2028.21369	103.51358
34850.00000	103.35562	2028.88018	103.35562
34900.00000	103.84420	2023.82641	103.84420
34950.00000	103.68594	2025.23430	103.68594
35000.00000	103.81360	2022.66959	103.81360
35050.00000	103.75528	2022.42157	103.75528
35100.00000	104.21210	2019.80335	104.21210
35150.00000	103.91507	2019.98928	103.91507
35200.00000	104.19753	2018.26254	104.19753
35250.00000	104.30574	2016.63162	104.30574
35300.00000	104.59068	2015.19194	104.59068
35350.00000	104.91084	2014.55048	104.91084
35400.00000	105.04536	2012.93724	105.04536
35450.00000	105.27796	2013.34613	105.27796
35500.00000	105.37816	2012.20107	105.37816
35550.00000	106.00535	2011.95708	106.00535
35600.00000	106.22456	2009.10544	106.22456
35650.00000	106.43226	2008.23144	106.43226
35700.00000	106.98521	2007.31168	106.98521
35750.00000	107.15692	2005.12001	107.15692
35800.00000	107.38638	2005.58981	107.38638
35850.00000	107.92370	2001.59080	107.92370
35900.00000	108.23335	1999.37008	108.23335
35950.00000	108.71859	1997.14082	108.71859
36000.00000	109.01505	1996.00311	109.01505
36050.00000	109.60724	1993.81912	109.60724
36100.00000	109.85781	1990.46574	109.85781
36150.00000	110.06606	1988.38360	110.06606
36200.00000	110.35241	1986.30692	110.35241
36250.00000	110.71813	1984.27105	110.71813
36300.00000	110.91796	1981.75632	110.91796
36350.00000	111.39991	1978.83182	111.39991
36400.00000	111.73273	1976.62109	111.73273
36450.00000	111.71766	1972.87427	111.71766
36500.00000	112.30179	1971.29564	112.30179
36550.00000	112.27752	1968.05028	112.27752
36600.00000	112.60315	1965.74487	112.60315
36650.00000	113.04485	1963.59463	113.04485
36700.00000	113.37603	1960.30638	113.37603
36750.00000	113.56549	1957.11736	113.56549
36800.00000	113.77349	1954.87434	113.77349
36850.00000	113.81916	1952.05562	113.81916
36900.00000	114.25854	1949.40643	114.25854
36950.00000	114.27287	1946.00046	114.27287
37000.00000	114.24564	1944.51385	114.24564
37050.00000	114.45363	1942.22310	114.45363
37100.00000	114.84646	1938.47138	114.84646
37150.00000	115.05193	1935.02280	115.05193
37200.00000	115.41849	1933.84081	115.41849
37250.00000	115.19219	1930.15367	115.19219
37300.00000	115.34376	1927.65389	115.34376
37350.00000	115.74124	1925.15910	115.74124
37400.00000	115.68093	1923.07334	115.68093
37450.00000	115.67100	1920.59875	115.67100
37500.00000	116.14964	1917.59555	116.14964
37550.00000	115.95826	1915.39875	115.95826
37600.00000	116.09972	1912.92391	116.09972
37650.00000	116.29191	1910.66958	116.29191
37700.00000	116.47640	1906.85905	116.47640
37750.00000	116.49749	1904.80866	116.49749
37800.00000	116.48180	1901.70537	116.48180
37850.00000	116.67239	1898.00777	116.67239
37900.00000	116.71494	1895.87432	116.71494
37950.00000	116.92333	1893.70271	116.92333
38000.00000	116.83679	1890.92626	116.83679
38050.00000	117.01549	1887.75397	117.01549
38100.00000	117.16842	1884.70759	117.16842
38150.00000	117.18755	1881.00716	117.18755
38200.00000	117.37059	1877.04235	117.37059
38250.00000	117.36246	1874.28110	117.36246
38300.00000	117.58101	1870.18495	117.58101
38350.00000	117.58328	1867.26382	117.58328
38400.00000	117.63760	1863.58869	117.63760
38450.00000	117.68841	1859.22154	117.68841
38500.00000	117.81672	1855.18884	117.81672
38550.00000	117.87476	1851.59798	117.87476
38600.00000	117.89343	1847.56005	117.89343
38650.00000	117.91413	1843.01774	117.91413
38700.00000	117.86946	1838.61649	117.86946
38750.00000	117.95746	1834.66105	117.95746
38800.00000	117.97994	1830.34415	117.97994
38850.00000	117.99346	1825.19079	117.99346
38900.00000	117.97147	1820.89618	117.97147
38950.00000	117.88513	1816.05470	117.88513
39000.00000	117.83363	1810.99227	117.83363
39050.00000	117.81691	1806.19519	117.81691
39100.00000	117.58580	1801.44346	117.58580
39150.00000	117.44316	1796.37421	117.44316
39200.00000	117.32871	1791.76220	117.32871
39250.00000	117.18671	1786.83981	117.18671
39300.00000	117.04461	1781.87915	117.04461
39350.00000	116.76925	1777.50447	116.76925
39400.00000	116.52981	1772.58405	116.52981
39450.00000	116.25471	1768.51677	116.25471
39500.00000	116.09939	1763.90947	116.09939
39550.00000	115.74954	1759.17498	115.74954
39600.00000	115.48349	1755.24250	115.48349
39650.00000	115.18547	1751.39496	115.18547
39700.00000	114.84992	1747.39979	114.84992
39750.00000	114.66302	1743.20246	114.66302
39800.00000	114.35941	1739.52808	114.35941
39850.00000	114.03287	1735.90407	114.03287
39900.00000	113.74858	1732.20011	113.74858
39950.00000	113.51191	1728.73801	113.51191
40000.00000	113.14106	1727.10109	113.14106
40050.00000	112.93620	1722.08316	112.93620
40100.00000	112.65839	1718.44817	112.65839
40150.00000	112.28587	1715.05295	112.28587
40200.00000	112.05877	1711.53467	112.05877
40250.00000	111.81551	1709.06911	111.81551
40300.00000	111.60815	1706.44071	111.60815
40350.00000	111.13745	1703.43402	111.13745
40400.00000	110.83888	1700.55243	110.83888
40450.00000	110.59625	1698.44561	110.59625
40500.00000	110.38389	1696.23554	110.38389
40550.00000	110.13932	1692.60823	110.13932
40600.00000	109.82377	1690.58407	109.82377
40650.00000	109.62945	1688.46841	109.62945
40700.00000	109.11080	1687.72124	109.11080
40750.00000	109.12772	1685.26338	109.12772
40800.00000	108.77094	1682.85245	108.77094
40850.00000	108.59026	1682.25576	108.59026
40900.00000	108.27965	1680.47980	108.27965
40950.00000	107.93089	1679.41842	107.93089
41000.00000	107.61838	1678.11761	107.61838
41050.00000	107.55332	1678.44901	107.55332
41100.00000	107.46969	1675.51732	107.46969
41150.00000	107.37593	1676.61797	107.37593
41200.00000	107.24923	1676.09293	107.24923
41250.00000	107.14016	1672.86961	107.14016
41300.00000	106.70516	1673.96185	106.70516
41350.00000	106.78170	1675.10436	106.78170
41400.00000	106.60589	1670.66235	106.60589
41450.00000	106.84693	1673.22072	106.84693
41500.00000	106.55340	1672.98008	106.55340
41550.00000	106.32655	1677.07143	106.32655
41600.00000	106.04525	1674.93340	106.04525
41650.00000	106.52306	1674.75563	106.52306
41700.00000	106.53993	1673.75753	106.53993
41750.00000	106.35264	1678.29766	106.35264
41800.00000	105.67477	1674.24436	105.67477
41850.00000	105.86247	1674.97081	105.86247
41900.00000	105.77557	1675.51412	105.77557
41950.00000	106.71045	1679.74384	106.71045
42000.00000	105.70818	1675.93589	105.70818
42050.00000	104.97974	1674.96208	104.97974
42100.00000	105.59477	1677.36810	105.59477
42150.00000	104.92858	1673.61480	104.92858
42200.00000	104.86821	1679.98782	104.86821
42250.00000	104.59491	1679.60055	104.59491
42300.00000	103.84788	1676.88558	103.84788
42350.00000	104.62592	1680.10734	104.62592
42400.00000	104.23389	1682.33871	104.23389
42450.00000	104.82954	1679.21599	104.82954
42500.00000	103.98190	1680.13580	103.98190
42550.00000	104.18687	1690.60633	104.18687
42600.00000	104.19699	1682.16599	104.19699
42650.00000	104.10628	1688.80608	104.10628
42700.00000	102.99585	1688.40012	102.99585
42750.00000	104.27821	1686.92393	104.27821
42800.00000	103.66922	1683.78101	103.66922
42850.00000	104.09942	1681.25086	104.09942
42900.00000	105.09569	1691.25916	105.09569
42950.00000	103.78681	1682.86619	103.78681
43000.00000	104.63386	1678.86261	104.63386
43050.00000	104.23912	1676.36632	104.23912
43100.00000	104.28788	1681.04767	104.28788
43150.00000	103.87404	1682.86212	103.87404
43200.00000	104.39838	1677.45034	104.39838
43250.00000	104.09369	1674.36160	104.09369
43300.00000	104.34019	1672.41813	104.34019
43350.00000	105.20714	1672.33976	105.20714
43400.00000	104.58355	1666.59357	104.58355
43450.00000	104.96212	1670.92748	104.96212
43500.00000	104.11769	1662.50712	104.11769
43550.00000	104.87088	1659.17772	104.87088
43600.00000	104.60808	1654.74662	104.60808
43650.00000	105.11834	1651.98429	105.11834
43700.00000	104.96392	1647.89331	104.96392
43750.00000	104.43934	1645.06867	104.43934
43800.00000	104.39328	1636.38133	104.39328
43850.00000	104.98579	1631.23732	104.98579
43900.00000	105.01241	1631.45378	105.01241
43950.00000	104.80392	1625.90386	104.80392
44000.00000	104.26777	1619.98870	104.26777
44050.00000	104.59673	1612.67234	104.59673
44100.00000	104.00575	1602.94361	104.00575
44150.00000	103.84589	1605.18349	103.84589
44200.00000	103.34626	1604.16977	103.34626
44250.00000	103.70244	1596.15277	103.70244
44300.00000	103.51147	1589.89316	103.51147
44350.00000	102.43478	1583.85308	102.43478
44400.00000	103.01807	1580.84453	103.01807
44450.00000	103.16567	1581.77016	103.16567
44500.00000	102.53748	1574.22179	102.53748
44550.00000	103.89265	1564.97081	103.89265
44600.00000	102.71498	1564.85563	102.71498
44650.00000	101.72555	1557.91344	101.72555
44700.00000	101.65698	1553.11241	101.65698
44750.00000	101.85861	1553.61100	101.85861
44800.00000	101.67921	1544.83395	101.67921
44850.00000	101.25864	1540.23389	101.25864
44900.00000	100.28858	1535.67521	100.28858
44950.00000	100.79339	1528.97618	100.79339
45000.00000	100.94866	1523.74059	100.94866
45050.00000	98.18555	1525.53048	98.18555
45100.00000	99.27208	1523.60660	99.27208
45150.00000	99.49819	1510.10541	99.49819
45200.00000	98.62218	1509.32126	98.62218
45250.00000	99.58270	1508.82754	99.58270
45300.00000	98.85775	1499.37698	98.85775
45350.00000	98.38616	1490.83848	98.38616
45400.00000	97.81854	1486.82724	97.81854
45450.00000	97.36667	1484.50874	97.36667
45500.00000	95.68835	1475.89314	95.68835
45550.00000	96.15111	1475.59061	96.15111
45600.00000	96.86678	1464.50248	96.86678
45650.00000	93.34881	1473.86944	93.34881
45700.00000	95.39759	1463.59248	95.39759
45750.00000	96.13950	1457.28596	96.13950
45800.00000	95.05465	1451.18346	95.05465
45850.00000	94.38211	1446.60505	94.38211
45900.00000	93.40995	1453.71314	93.40995
45950.00000	92.37985	1449.49904	92.37985
46000.00000	91.19219	1428.27079	91.19219
46050.00000	91.23911	1438.26831	91.23911
46100.00000	89.77821	1435.89888	89.77821
46150.00000	89.36461	1431.54766	89.36461
46200.00000	87.32661	1418.45894	87.32661
46250.00000	88.58733	1423.41383	88.58733
46300.00000	87.63759	1425.99519	87.63759
46350.00000	88.24474	1418.83434	88.24474
46400.00000	86.67330	1406.92171	86.67330
46450.00000	85.06789	1407.60249	85.06789
46500.00000	85.14506	1425.05839	85.14506
46550.00000	84.55327	1420.69697	84.55327
46600.00000	85.21743	1418.74231	85.21743
46650.00000	83.49596	1423.56551	83.49596
46700.00000	82.63110	1415.81367	82.63110
46750.00000	84.27921	1434.49881	84.27921
46800.00000	80.12904	1415.83282	80.12904
46850.00000	84.59447	1065.21355	84.59447
46900.00000	81.02882	1063.35721	81.02882
46950.00000	82.75258	1055.02073	82.75258
47000.00000	82.64876	1053.59010	82.64876
47050.00000	82.74447	1056.47827	82.74447
47100.00000	81.47953	1052.63622	81.47953
47150.00000	83.97616	1050.93681	83.97616
47200.00000	82.82325	1054.50049	82.82325
47250.00000	85.37155	1055.84701	85.37155
47300.00000	84.28394	1045.13880	84.28394
47350.00000	84.80904	700.56797	84.80904
47400.00000	84.82639	697.33430	84.82639
47450.00000	83.74075	679.61287	83.74075
47500.00000	81.60403	669.63299	81.60403
47550.00000	80.32106	321.56013	80.32106
47600.00000	83.15056	329.46934	83.15056
47650.00000	83.58266	316.65507	83.58266
47700.00000	85.07632	315.70059	85.07632
47750.00000	81.08972	322.75098	81.08972
47800.00000	82.97790	300.82581	82.97790
47850.00000	82.99575	-41.72697	82.99575
47900.00000	83.12166	-386.24806	83.12166
47950.00000	82.14447	-375.35587	82.14447
48000.00000	84.24884	-395.48930	84.24884
48050.00000	85.32540	-400.03500	85.32540
48100.00000	84.56305	-414.81079	84.56305
48150.00000	84.29648	-768.56378	84.29648
48200.00000	85.82880	-768.35931	85.82880
48250.00000	84.44542	-777.49850	84.44542
48300.00000	84.23033	-771.98817	84.23033
48350.00000	82.63610	-794.46740	82.63610
48400.00000	86.73322	-1130.06740	86.73322
48450.00000	85.59411	-1146.33200	85.59411
48500.00000	85.64064	-1151.78120	85.64064
48550.00000	86.14553	-1155.40807	86.14553
48600.00000	86.98391	-1518.52343	86.98391
48650.00000	84.54201	-1521.61082	84.54201
48700.00000	85.21875	-1523.45349	85.21875
48750.00000	85.73036	-1866.03183	85.73036
48800.00000	86.31401	-1887.39819	86.31401
48850.00000	84.20678	-1892.06711	84.20678
48900.00000	83.10331	-2257.97458	83.10331
48950.00000	86.39600	-2267.07385	86.39600
49000.00000	82.77638	-2257.69199	82.77638
49050.00000	84.73600	-2274.80740	84.73600
49100.00000	85.12000	-2610.83710	85.12000
49150.00000	87.23582	-2964.75574	87.23582
49200.00000	81.69152	-3005.53788	81.69152
49250.00000	86.16563	-3341.26904	86.16563
49300.00000	85.45699	-2990.59086	85.45699
49350.00000	82.71627	-2983.82699	82.71627
49400.00000	83.83441	-2605.95628	83.83441
49450.00000	79.94372	-2277.17301	79.94372
49500.00000	80.73238	-1888.91335	80.73238
49550.00000	81.64571	-1521.91495	81.64571
49600.00000	81.80810	-1526.24422	81.80810
49650.00000	84.62045	-1519.26652	84.62045
49700.00000	85.03396	-1177.82711	85.03396
49750.00000	82.13323	-1167.06608	82.13323
49800.00000	84.85388	-1185.26885	84.85388
49850.00000	82.76647	-1191.07450	82.76647
49900.00000	88.16526	-800.06427	88.16526
49950.00000	84.98407	-479.98476	84.98407
