---ACOUSTIC CALIBRATION---
Filename: C:\Data\CL0809 DATA\CL08095\RightSecondary.calib
Date: 8/9/2019 4:08:55 PM
Format: 4
Probe Tube Correction File: C:\Data\Probe Tube Calibrations\74_ProbeTube.calib
Experiment VIs: 2128
EPL_CFTS.exe V15.0.1f5 (2015)
DAQmx V15.1

Attenuation (dB): 40.000000
Min Freq (Hz): 50.000000
Max Freq (Hz): 99950.000000
Freq Step (Hz): 50.000000
Sample Rate (Hz): 200000.000000
[Smoothing]
Method=None
MA.Iterations=0
MA.Length=0
Loess.Length=0
Loess.Type=Linear
Loess.Robust=FALSE


Freq(Hz)	Mag(dB)	Phase(deg)	Unsmoothed(dB)

50.00000	94.39853	224.09975	94.39853
100.00000	64.11793	292.63405	64.11793
150.00000	59.96284	465.91882	59.96284
200.00000	56.62734	502.22056	56.62734
250.00000	52.18510	808.49428	52.18510
300.00000	67.76053	833.71875	67.76053
350.00000	66.53098	1009.90397	66.53098
400.00000	62.74620	1092.09728	62.74620
450.00000	70.24694	1109.68749	70.24694
500.00000	73.33127	1201.81515	73.33127
550.00000	81.18463	1150.66078	81.18463
600.00000	80.39026	1112.84576	80.39026
650.00000	86.08883	1097.59925	86.08883
700.00000	85.69380	1097.54208	85.69380
750.00000	90.37141	1066.78773	90.37141
800.00000	91.12887	1043.90518	91.12887
850.00000	90.18035	1033.41877	90.18035
900.00000	91.26083	1029.81091	91.26083
950.00000	92.34165	1010.84355	92.34165
1000.00000	92.25608	1003.56232	92.25608
1050.00000	92.10217	991.65897	92.10217
1100.00000	90.99592	981.23385	90.99592
1150.00000	90.40782	982.03079	90.40782
1200.00000	89.93463	990.56004	89.93463
1250.00000	90.61444	994.27826	90.61444
1300.00000	92.44721	990.28308	92.44721
1350.00000	92.81642	988.83893	92.81642
1400.00000	93.65319	994.26616	93.65319
1450.00000	95.22480	985.88301	95.22480
1500.00000	96.24105	985.26075	96.24105
1550.00000	97.66107	979.78465	97.66107
1600.00000	98.83846	971.89935	98.83846
1650.00000	99.97790	968.28768	99.97790
1700.00000	103.95856	951.70786	103.95856
1750.00000	100.89414	930.05973	100.89414
1800.00000	100.82892	925.50386	100.82892
1850.00000	100.37108	916.82997	100.37108
1900.00000	99.98785	910.11304	99.98785
1950.00000	99.57301	906.19003	99.57301
2000.00000	98.60009	901.00787	98.60009
2050.00000	97.68909	902.78057	97.68909
2100.00000	98.58054	909.28223	98.58054
2150.00000	99.54944	903.79881	99.54944
2200.00000	99.78939	893.03610	99.78939
2250.00000	99.13275	888.08447	99.13275
2300.00000	98.69205	888.18106	98.69205
2350.00000	98.89224	883.55905	98.89224
2400.00000	98.80794	881.44456	98.80794
2450.00000	98.46919	878.66681	98.46919
2500.00000	98.12696	877.44970	98.12696
2550.00000	98.23376	878.24655	98.23376
2600.00000	98.26590	877.24525	98.26590
2650.00000	98.39029	876.38403	98.39029
2700.00000	98.68159	875.72302	98.68159
2750.00000	98.79522	874.19035	98.79522
2800.00000	99.02277	872.36792	99.02277
2850.00000	99.49762	871.53951	99.49762
2900.00000	99.75216	868.34072	99.75216
2950.00000	100.00986	865.92780	100.00986
3000.00000	100.33197	864.19265	100.33197
3050.00000	100.49583	861.08139	100.49583
3100.00000	100.73691	857.93265	100.73691
3150.00000	100.75723	855.62122	100.75723
3200.00000	100.81070	852.82112	100.81070
3250.00000	101.14027	850.82509	101.14027
3300.00000	101.13880	848.67642	101.13880
3350.00000	101.30868	847.29237	101.30868
3400.00000	101.54746	845.59122	101.54746
3450.00000	101.73246	844.50884	101.73246
3500.00000	101.92650	843.64621	101.92650
3550.00000	102.68923	841.28416	102.68923
3600.00000	102.74398	837.37231	102.74398
3650.00000	103.01975	836.55711	103.01975
3700.00000	103.20184	834.69307	103.20184
3750.00000	103.61524	832.11819	103.61524
3800.00000	104.40850	830.72963	104.40850
3850.00000	104.91576	821.96782	104.91576
3900.00000	105.24530	815.11366	105.24530
3950.00000	104.46800	812.45792	104.46800
4000.00000	104.15929	814.73652	104.15929
4050.00000	104.61071	816.36882	104.61071
4100.00000	105.35697	816.49718	105.35697
4150.00000	106.98622	813.63166	106.98622
4200.00000	107.96192	808.94202	107.96192
4250.00000	108.07178	796.27737	108.07178
4300.00000	108.17458	793.20479	108.17458
4350.00000	108.58236	788.46839	108.58236
4400.00000	108.94053	782.35670	108.94053
4450.00000	109.02331	775.17761	109.02331
4500.00000	109.12163	769.09770	109.12163
4550.00000	109.00514	763.80812	109.00514
4600.00000	109.02995	758.48442	109.02995
4650.00000	109.05319	753.75732	109.05319
4700.00000	109.02133	748.94028	109.02133
4750.00000	108.98762	744.31523	108.98762
4800.00000	109.00632	740.07040	109.00632
4850.00000	109.02912	735.30670	109.02912
4900.00000	109.03932	729.92427	109.03932
4950.00000	109.01736	724.91206	109.01736
5000.00000	108.94337	719.31634	108.94337
5050.00000	108.81480	713.72984	108.81480
5100.00000	108.59424	708.04722	108.59424
5150.00000	108.24117	702.28857	108.24117
5200.00000	107.59604	697.22182	107.59604
5250.00000	106.79213	697.59646	106.79213
5300.00000	107.37697	697.39590	107.37697
5350.00000	107.56889	691.22415	107.56889
5400.00000	107.36167	685.44830	107.36167
5450.00000	107.05224	680.75300	107.05224
5500.00000	106.72924	676.34937	106.72924
5550.00000	106.43999	672.41979	106.43999
5600.00000	106.09134	668.16952	106.09134
5650.00000	105.63634	664.80562	105.63634
5700.00000	105.27001	661.53001	105.27001
5750.00000	104.90316	658.53123	104.90316
5800.00000	104.53217	655.99030	104.53217
5850.00000	104.18835	653.43666	104.18835
5900.00000	103.82097	650.71256	103.82097
5950.00000	103.51044	648.52682	103.51044
6000.00000	103.20225	646.39975	103.20225
6050.00000	102.85690	643.93828	102.85690
6100.00000	102.57666	641.90950	102.57666
6150.00000	102.22013	639.77574	102.22013
6200.00000	101.86897	637.82921	101.86897
6250.00000	101.54458	636.52419	101.54458
6300.00000	101.22968	634.97634	101.22968
6350.00000	100.94000	633.36896	100.94000
6400.00000	100.63779	632.53124	100.63779
6450.00000	100.31093	631.50525	100.31093
6500.00000	100.08304	631.12131	100.08304
6550.00000	99.91035	631.23148	99.91035
6600.00000	99.85044	630.37173	99.85044
6650.00000	99.81388	630.14499	99.81388
6700.00000	99.85096	629.44614	99.85096
6750.00000	99.99013	627.54596	99.99013
6800.00000	100.00731	625.52207	100.00731
6850.00000	99.93274	622.98446	99.93274
6900.00000	99.87909	620.21036	99.87909
6950.00000	99.65341	618.12673	99.65341
7000.00000	99.50345	615.33265	99.50345
7050.00000	99.28590	613.32459	99.28590
7100.00000	98.93390	611.23568	98.93390
7150.00000	98.75156	609.76242	98.75156
7200.00000	98.45832	608.49404	98.45832
7250.00000	98.07579	606.77203	98.07579
7300.00000	97.83375	606.75650	97.83375
7350.00000	97.45445	606.51222	97.45445
7400.00000	97.25527	606.42068	97.25527
7450.00000	97.08329	607.71538	97.08329
7500.00000	96.88235	607.66622	96.88235
7550.00000	96.87835	609.05627	96.87835
7600.00000	96.96601	610.97203	96.96601
7650.00000	97.12806	610.27335	97.12806
7700.00000	97.31991	611.16658	97.31991
7750.00000	97.44974	611.01594	97.44974
7800.00000	97.78110	609.84914	97.78110
7850.00000	98.02121	609.54991	98.02121
7900.00000	98.17826	607.73755	98.17826
7950.00000	98.41965	606.22751	98.41965
8000.00000	98.51376	605.54361	98.51376
8050.00000	98.77319	603.52108	98.77319
8100.00000	99.01497	601.86725	99.01497
8150.00000	99.04588	599.88187	99.04588
8200.00000	99.25808	598.30184	99.25808
8250.00000	99.42167	596.75982	99.42167
8300.00000	99.56744	594.39706	99.56744
8350.00000	99.79358	592.86814	99.79358
8400.00000	99.85951	590.69183	99.85951
8450.00000	100.02394	588.48477	100.02394
8500.00000	100.18093	586.90733	100.18093
8550.00000	100.36574	584.12972	100.36574
8600.00000	100.53936	582.21185	100.53936
8650.00000	100.60997	580.17244	100.60997
8700.00000	100.83209	577.61979	100.83209
8750.00000	100.97111	575.52344	100.97111
8800.00000	101.10781	572.82187	101.10781
8850.00000	101.33427	570.17715	101.33427
8900.00000	101.35783	567.62239	101.35783
8950.00000	101.56632	564.95718	101.56632
9000.00000	101.70025	562.18960	101.70025
9050.00000	101.79749	558.57514	101.79749
9100.00000	101.87911	555.83593	101.87911
9150.00000	101.93647	552.75763	101.93647
9200.00000	102.05052	549.23361	102.05052
9250.00000	102.06320	546.12976	102.06320
9300.00000	102.10251	542.19927	102.10251
9350.00000	102.08713	538.67217	102.08713
9400.00000	101.98955	534.91915	101.98955
9450.00000	101.99498	531.43649	101.99498
9500.00000	101.89779	527.85742	101.89779
9550.00000	101.74429	524.02231	101.74429
9600.00000	101.60620	521.09206	101.60620
9650.00000	101.42656	517.79525	101.42656
9700.00000	101.28549	514.39814	101.28549
9750.00000	101.02056	511.66292	101.02056
9800.00000	100.80918	508.72559	100.80918
9850.00000	100.58030	506.70184	100.58030
9900.00000	100.31374	504.89200	100.31374
9950.00000	100.15599	502.95797	100.15599
10000.00000	99.96735	501.70662	99.96735
10050.00000	99.78264	499.74710	99.78264
10100.00000	99.59568	498.62424	99.59568
10150.00000	99.38330	497.02228	99.38330
10200.00000	99.26547	496.00286	99.26547
10250.00000	99.08516	495.44439	99.08516
10300.00000	99.00969	494.30310	99.00969
10350.00000	98.94091	493.72010	98.94091
10400.00000	98.83200	492.70986	98.83200
10450.00000	98.88858	491.93376	98.88858
10500.00000	98.89945	490.36955	98.89945
10550.00000	98.95245	489.40962	98.95245
10600.00000	99.06582	487.88849	99.06582
10650.00000	99.16204	486.16562	99.16204
10700.00000	99.27955	484.35172	99.27955
10750.00000	99.39108	482.28378	99.39108
10800.00000	99.56398	479.84980	99.56398
10850.00000	99.67401	477.42776	99.67401
10900.00000	99.83186	474.99025	99.83186
10950.00000	99.95039	472.39521	99.95039
11000.00000	100.07383	469.44803	100.07383
11050.00000	100.09639	466.74420	100.09639
11100.00000	100.17592	463.71680	100.17592
11150.00000	100.22224	460.63943	100.22224
11200.00000	100.21367	457.53194	100.21367
11250.00000	100.14576	454.18908	100.14576
11300.00000	100.08712	451.28038	100.08712
11350.00000	99.98252	447.51168	99.98252
11400.00000	99.83521	444.29062	99.83521
11450.00000	99.69091	440.91301	99.69091
11500.00000	99.52546	437.56143	99.52546
11550.00000	99.32181	434.19544	99.32181
11600.00000	99.10423	430.95024	99.10423
11650.00000	98.89809	428.07840	98.89809
11700.00000	98.68046	424.77724	98.68046
11750.00000	98.44727	422.17201	98.44727
11800.00000	98.21416	419.91521	98.21416
11850.00000	98.02697	417.48365	98.02697
11900.00000	97.72919	415.59874	97.72919
11950.00000	97.53888	413.59596	97.53888
12000.00000	97.31404	412.58241	97.31404
12050.00000	97.05350	411.47828	97.05350
12100.00000	96.79854	410.38162	96.79854
12150.00000	96.50530	409.31701	96.50530
12200.00000	96.28779	408.10919	96.28779
12250.00000	96.04878	407.55930	96.04878
12300.00000	95.69012	406.32785	95.69012
12350.00000	95.50809	405.24237	95.50809
12400.00000	95.19633	403.44169	95.19633
12450.00000	95.07503	402.49497	95.07503
12500.00000	94.93364	401.81693	94.93364
12550.00000	94.80191	400.86216	94.80191
12600.00000	94.69704	399.10971	94.69704
12650.00000	94.68510	398.59029	94.68510
12700.00000	94.49554	397.16246	94.49554
12750.00000	94.39449	396.51367	94.39449
12800.00000	94.37462	395.41176	94.37462
12850.00000	94.14902	394.84948	94.14902
12900.00000	94.07357	393.33138	94.07357
12950.00000	94.09815	391.34062	94.09815
13000.00000	93.88628	388.90053	93.88628
13050.00000	93.82229	386.47537	93.82229
13100.00000	93.81117	383.53856	93.81117
13150.00000	94.03158	381.39480	94.03158
13200.00000	94.23525	376.59427	94.23525
13250.00000	94.81708	371.59259	94.81708
13300.00000	95.52674	370.81639	95.52674
13350.00000	96.51715	369.41117	96.51715
13400.00000	97.58301	372.27196	97.58301
13450.00000	98.20953	381.25947	98.20953
13500.00000	97.73189	394.43249	97.73189
13550.00000	96.50178	400.23354	96.50178
13600.00000	94.65135	402.32667	94.65135
13650.00000	92.97721	399.16785	92.97721
13700.00000	91.60497	394.30819	91.60497
13750.00000	90.72517	385.05805	90.72517
13800.00000	90.26920	376.04729	90.26920
13850.00000	90.20968	367.02481	90.20968
13900.00000	90.36604	357.26155	90.36604
13950.00000	91.21493	350.53739	91.21493
14000.00000	92.34268	345.78866	92.34268
14050.00000	93.92133	344.72239	93.92133
14100.00000	95.70227	348.19847	95.70227
14150.00000	96.97699	361.26461	96.97699
14200.00000	96.61711	376.58825	96.61711
14250.00000	95.22034	388.57850	95.22034
14300.00000	93.59026	393.48253	93.59026
14350.00000	92.08192	392.19135	92.08192
14400.00000	91.05106	390.41781	91.05106
14450.00000	90.38649	385.82812	90.38649
14500.00000	90.04070	380.79643	90.04070
14550.00000	89.91898	375.08103	89.91898
14600.00000	90.09882	371.43341	90.09882
14650.00000	90.44939	367.44000	90.44939
14700.00000	91.12937	362.59180	91.12937
14750.00000	91.80188	359.37549	91.80188
14800.00000	92.64013	357.95934	92.64013
14850.00000	93.73549	358.66773	93.73549
14900.00000	94.59433	360.77442	94.59433
14950.00000	95.22443	365.92222	95.22443
15000.00000	95.44775	370.92299	95.44775
15050.00000	95.27426	375.23787	95.27426
15100.00000	94.92320	376.73894	94.92320
15150.00000	94.51346	376.10799	94.51346
15200.00000	94.28636	374.88143	94.28636
15250.00000	94.06398	372.71995	94.06398
15300.00000	94.05706	368.27291	94.05706
15350.00000	94.32931	364.96147	94.32931
15400.00000	94.66226	360.16738	94.66226
15450.00000	95.00845	355.73110	95.00845
15500.00000	95.58383	352.89018	95.58383
15550.00000	96.25361	350.23146	96.25361
15600.00000	96.82619	349.21792	96.82619
15650.00000	97.33643	348.33995	97.33643
15700.00000	97.57161	348.20976	97.57161
15750.00000	97.88380	348.29797	97.88380
15800.00000	97.83136	347.26434	97.83136
15850.00000	97.79489	347.27457	97.79489
15900.00000	97.65606	344.97457	97.65606
15950.00000	97.50297	343.17467	97.50297
16000.00000	97.37817	340.53107	97.37817
16050.00000	97.49459	337.60248	97.49459
16100.00000	97.62173	335.58429	97.62173
16150.00000	97.88560	332.06935	97.88560
16200.00000	98.16275	329.69780	98.16275
16250.00000	98.55693	326.99114	98.55693
16300.00000	98.78587	324.92604	98.78587
16350.00000	99.19293	323.65899	99.19293
16400.00000	99.37100	322.18278	99.37100
16450.00000	99.66325	320.89082	99.66325
16500.00000	99.78610	319.19206	99.78610
16550.00000	99.84529	317.42026	99.84529
16600.00000	99.94346	315.16091	99.94346
16650.00000	99.97161	312.76687	99.97161
16700.00000	100.10633	309.56529	100.10633
16750.00000	100.16251	306.88686	100.16251
16800.00000	100.23669	304.15061	100.23669
16850.00000	100.38550	301.45442	100.38550
16900.00000	100.57145	299.16240	100.57145
16950.00000	100.65167	296.78196	100.65167
17000.00000	100.85377	294.80185	100.85377
17050.00000	100.99014	292.79737	100.99014
17100.00000	101.11170	291.04711	101.11170
17150.00000	101.16719	289.19761	101.16719
17200.00000	101.18990	287.37267	101.18990
17250.00000	101.28442	284.67974	101.28442
17300.00000	101.33692	282.26785	101.33692
17350.00000	101.37092	279.91654	101.37092
17400.00000	101.46984	277.50680	101.46984
17450.00000	101.59891	275.16115	101.59891
17500.00000	101.70097	272.78829	101.70097
17550.00000	101.77606	270.59987	101.77606
17600.00000	101.96012	268.56104	101.96012
17650.00000	102.12700	266.82500	102.12700
17700.00000	102.27769	264.60172	102.27769
17750.00000	102.35360	262.06614	102.35360
17800.00000	102.44614	260.48404	102.44614
17850.00000	102.56221	258.40679	102.56221
17900.00000	102.67609	256.23688	102.67609
17950.00000	102.73446	254.32599	102.73446
18000.00000	102.87538	252.16452	102.87538
18050.00000	102.97822	249.41094	102.97822
18100.00000	103.13068	247.18909	103.13068
18150.00000	103.25462	244.64792	103.25462
18200.00000	103.36833	242.07679	103.36833
18250.00000	103.50418	239.43968	103.50418
18300.00000	103.59875	236.92419	103.59875
18350.00000	103.70802	234.28056	103.70802
18400.00000	103.79808	231.74341	103.79808
18450.00000	103.89636	229.35542	103.89636
18500.00000	104.02791	226.80997	104.02791
18550.00000	104.12544	224.20062	104.12544
18600.00000	104.20025	221.48783	104.20025
18650.00000	104.30681	218.77429	104.30681
18700.00000	104.39099	216.37812	104.39099
18750.00000	104.44225	213.89614	104.44225
18800.00000	104.51908	211.16971	104.51908
18850.00000	104.59300	208.67764	104.59300
18900.00000	104.62751	205.97665	104.62751
18950.00000	104.67773	203.15657	104.67773
19000.00000	104.69465	200.56452	104.69465
19050.00000	104.72996	197.95680	104.72996
19100.00000	104.79874	195.49999	104.79874
19150.00000	104.87015	193.01506	104.87015
19200.00000	104.91832	190.49422	104.91832
19250.00000	104.91116	188.03717	104.91116
19300.00000	104.99827	185.68844	104.99827
19350.00000	105.07103	183.00158	105.07103
19400.00000	105.07334	180.59930	105.07334
19450.00000	105.10933	177.76386	105.10933
19500.00000	105.14646	175.57914	105.14646
19550.00000	105.19590	173.08285	105.19590
19600.00000	105.22796	170.67469	105.22796
19650.00000	105.26122	168.21461	105.26122
19700.00000	105.32146	165.62519	105.32146
19750.00000	105.36839	163.17746	105.36839
19800.00000	105.41534	161.06750	105.41534
19850.00000	105.45808	158.48977	105.45808
19900.00000	105.52673	155.90024	105.52673
19950.00000	105.54250	153.66356	105.54250
20000.00000	105.60617	150.81942	105.60617
20050.00000	105.65556	148.44791	105.65556
20100.00000	105.71161	145.99795	105.71161
20150.00000	105.78290	143.25430	105.78290
20200.00000	105.85819	140.55456	105.85819
20250.00000	105.89507	138.13910	105.89507
20300.00000	105.95567	135.45767	105.95567
20350.00000	105.99498	132.86965	105.99498
20400.00000	106.03268	130.23530	106.03268
20450.00000	106.06872	127.48554	106.06872
20500.00000	106.12531	124.69023	106.12531
20550.00000	106.16151	121.92888	106.16151
20600.00000	106.20437	119.19132	106.20437
20650.00000	106.24719	116.27472	106.24719
20700.00000	106.28270	113.75102	106.28270
20750.00000	106.26901	110.91757	106.26901
20800.00000	106.29403	108.01959	106.29403
20850.00000	106.30601	105.03254	106.30601
20900.00000	106.27597	102.33167	106.27597
20950.00000	106.29575	99.35414	106.29575
21000.00000	106.30688	96.15049	106.30688
21050.00000	106.30512	93.47499	106.30512
21100.00000	106.27549	90.64539	106.27549
21150.00000	106.27600	87.91386	106.27600
21200.00000	106.23306	85.12199	106.23306
21250.00000	106.18043	82.21465	106.18043
21300.00000	106.11376	79.19109	106.11376
21350.00000	106.07443	76.27650	106.07443
21400.00000	105.99836	73.24462	105.99836
21450.00000	105.98636	70.57023	105.98636
21500.00000	105.97461	68.04335	105.97461
21550.00000	105.88929	65.40217	105.88929
21600.00000	105.79642	62.46192	105.79642
21650.00000	105.72084	59.94241	105.72084
21700.00000	105.62314	56.93652	105.62314
21750.00000	105.52945	54.38757	105.52945
21800.00000	105.42457	51.51827	105.42457
21850.00000	105.36339	49.07363	105.36339
21900.00000	105.24288	46.59184	105.24288
21950.00000	105.14927	44.25008	105.14927
22000.00000	105.00101	42.04318	105.00101
22050.00000	104.89036	39.98229	104.89036
22100.00000	104.82394	37.99197	104.82394
22150.00000	104.70174	35.92739	104.70174
22200.00000	104.67169	33.65816	104.67169
22250.00000	104.61715	31.44655	104.61715
22300.00000	104.58262	29.31539	104.58262
22350.00000	104.48884	27.07359	104.48884
22400.00000	104.45429	24.91424	104.45429
22450.00000	104.41100	22.92399	104.41100
22500.00000	104.36268	20.62102	104.36268
22550.00000	104.31927	18.44431	104.31927
22600.00000	104.26163	16.45654	104.26163
22650.00000	104.22363	14.28778	104.22363
22700.00000	104.17480	12.20162	104.17480
22750.00000	104.16155	 9.82845	104.16155
22800.00000	104.11357	 7.40332	104.11357
22850.00000	104.08035	 5.16375	104.08035
22900.00000	104.06591	 3.04271	104.06591
22950.00000	104.08454	 0.77219	104.08454
23000.00000	104.00663	-1.39053	104.00663
23050.00000	103.95239	-3.83644	103.95239
23100.00000	103.89349	-6.12603	103.89349
23150.00000	103.79068	-8.67971	103.79068
23200.00000	103.74819	-11.39454	103.74819
23250.00000	103.80607	-13.73127	103.80607
23300.00000	103.76628	-16.44087	103.76628
23350.00000	103.66833	-18.53612	103.66833
23400.00000	103.64345	-20.46082	103.64345
23450.00000	103.57495	-22.89345	103.57495
23500.00000	103.54303	-25.12028	103.54303
23550.00000	103.45920	-27.57139	103.45920
23600.00000	103.39936	-30.14446	103.39936
23650.00000	103.25114	-32.10750	103.25114
23700.00000	103.23049	-34.38514	103.23049
23750.00000	103.18029	-36.73732	103.18029
23800.00000	103.09693	-39.15662	103.09693
23850.00000	103.08163	-41.67719	103.08163
23900.00000	102.97735	-43.73668	102.97735
23950.00000	102.89316	-45.99081	102.89316
24000.00000	102.89181	-48.49714	102.89181
24050.00000	102.75320	-51.08317	102.75320
24100.00000	102.64477	-53.55909	102.64477
24150.00000	102.57080	-55.53515	102.57080
24200.00000	102.50793	-58.54374	102.50793
24250.00000	102.40611	-60.54833	102.40611
24300.00000	102.33715	-63.01401	102.33715
24350.00000	102.22760	-64.92196	102.22760
24400.00000	102.16553	-67.56629	102.16553
24450.00000	102.00099	-69.26532	102.00099
24500.00000	101.83875	-72.55481	101.83875
24550.00000	101.74551	-74.89016	101.74551
24600.00000	101.64884	-77.05337	101.64884
24650.00000	101.54779	-79.44772	101.54779
24700.00000	101.41607	-81.22566	101.41607
24750.00000	101.31419	-83.73988	101.31419
24800.00000	101.12585	-85.40049	101.12585
24850.00000	101.04990	-87.45734	101.04990
24900.00000	100.81415	-89.22818	100.81415
24950.00000	100.77232	-91.21355	100.77232
25000.00000	100.58572	-93.47300	100.58572
25050.00000	100.47494	-94.92394	100.47494
25100.00000	100.42047	-96.28424	100.42047
25150.00000	100.21494	-97.87452	100.21494
25200.00000	100.14002	-99.78064	100.14002
25250.00000	99.99197	-101.95043	99.99197
25300.00000	99.84977	-103.77941	99.84977
25350.00000	99.79851	-105.87260	99.79851
25400.00000	99.69091	-107.55977	99.69091
25450.00000	99.64764	-109.72431	99.64764
25500.00000	99.49815	-111.12456	99.49815
25550.00000	99.44029	-112.78110	99.44029
25600.00000	99.32156	-114.26145	99.32156
25650.00000	99.25553	-116.45356	99.25553
25700.00000	99.19946	-117.72495	99.19946
25750.00000	99.14567	-119.92415	99.14567
25800.00000	99.05624	-121.31591	99.05624
25850.00000	98.97630	-123.18355	98.97630
25900.00000	98.84913	-125.24787	98.84913
25950.00000	98.82147	-126.67937	98.82147
26000.00000	98.74326	-128.64220	98.74326
26050.00000	98.80436	-130.70393	98.80436
26100.00000	98.66473	-132.50771	98.66473
26150.00000	98.57234	-134.98071	98.57234
26200.00000	98.47024	-136.36857	98.47024
26250.00000	98.45690	-138.68744	98.45690
26300.00000	98.29273	-140.90925	98.29273
26350.00000	98.26183	-143.02830	98.26183
26400.00000	98.22926	-145.24127	98.22926
26450.00000	98.06961	-147.86927	98.06961
26500.00000	97.96732	-149.75813	97.96732
26550.00000	97.89311	-151.34486	97.89311
26600.00000	97.77195	-153.58696	97.77195
26650.00000	97.65739	-156.16396	97.65739
26700.00000	97.53807	-158.36509	97.53807
26750.00000	97.33757	-160.21820	97.33757
26800.00000	97.16064	-162.27787	97.16064
26850.00000	96.98796	-164.07006	96.98796
26900.00000	96.82083	-166.42777	96.82083
26950.00000	96.61222	-168.28245	96.61222
27000.00000	96.40102	-170.30256	96.40102
27050.00000	96.24524	-172.06956	96.24524
27100.00000	96.02410	-174.05023	96.02410
27150.00000	95.78018	-175.77891	95.78018
27200.00000	95.63360	-178.04216	95.63360
27250.00000	95.40372	-179.50876	95.40372
27300.00000	95.17974	-180.98621	95.17974
27350.00000	94.88643	-182.57241	94.88643
27400.00000	94.66541	-183.60045	94.66541
27450.00000	94.51229	-185.24071	94.51229
27500.00000	94.24460	-186.52611	94.24460
27550.00000	93.96654	-187.39177	93.96654
27600.00000	93.77178	-188.50359	93.77178
27650.00000	93.48918	-189.30067	93.48918
27700.00000	93.21991	-190.66240	93.21991
27750.00000	93.02578	-191.24905	93.02578
27800.00000	92.79830	-191.69544	92.79830
27850.00000	92.60678	-192.32378	92.60678
27900.00000	92.36523	-193.36105	92.36523
27950.00000	92.13982	-193.23863	92.13982
28000.00000	91.96991	-193.27498	91.96991
28050.00000	91.74889	-193.57179	91.74889
28100.00000	91.51683	-193.55289	91.51683
28150.00000	91.43773	-194.11874	91.43773
28200.00000	91.24822	-193.90222	91.24822
28250.00000	91.06131	-194.13651	91.06131
28300.00000	90.99566	-194.45425	90.99566
28350.00000	90.89012	-193.74270	90.89012
28400.00000	90.75887	-193.88568	90.75887
28450.00000	90.62708	-193.85347	90.62708
28500.00000	90.58260	-193.95094	90.58260
28550.00000	90.51013	-193.81885	90.51013
28600.00000	90.55184	-193.85050	90.55184
28650.00000	90.37578	-193.06820	90.37578
28700.00000	90.28756	-193.15027	90.28756
28750.00000	90.33847	-192.36274	90.33847
28800.00000	90.28831	-192.72782	90.28831
28850.00000	90.19640	-192.27929	90.19640
28900.00000	90.28350	-191.93539	90.28350
28950.00000	90.40113	-191.64494	90.40113
29000.00000	90.47660	-191.52443	90.47660
29050.00000	90.51797	-191.35270	90.51797
29100.00000	90.54142	-191.24909	90.54142
29150.00000	90.52372	-191.91214	90.52372
29200.00000	90.65955	-191.21495	90.65955
29250.00000	90.71813	-190.68875	90.71813
29300.00000	90.82398	-191.12322	90.82398
29350.00000	90.88868	-190.14512	90.88868
29400.00000	91.04869	-190.23826	91.04869
29450.00000	91.21658	-190.38005	91.21658
29500.00000	91.38144	-191.05718	91.38144
29550.00000	91.49111	-190.49104	91.49111
29600.00000	91.68274	-190.70916	91.68274
29650.00000	91.89980	-190.55001	91.89980
29700.00000	92.06181	-190.74619	92.06181
29750.00000	92.21710	-191.06614	92.21710
29800.00000	92.38459	-191.47372	92.38459
29850.00000	92.57648	-191.98267	92.57648
29900.00000	92.76381	-192.91818	92.76381
29950.00000	92.93098	-192.98390	92.93098
30000.00000	93.15532	-193.34346	93.15532
30050.00000	93.34711	-193.81963	93.34711
30100.00000	93.57857	-194.30873	93.57857
30150.00000	93.78122	-194.78634	93.78122
30200.00000	94.08274	-195.46433	94.08274
30250.00000	94.24906	-195.97762	94.24906
30300.00000	94.46847	-197.08541	94.46847
30350.00000	94.78145	-197.75270	94.78145
30400.00000	95.02318	-198.66200	95.02318
30450.00000	95.24563	-199.38684	95.24563
30500.00000	95.50570	-200.58203	95.50570
30550.00000	95.71135	-201.39493	95.71135
30600.00000	95.98251	-202.62086	95.98251
30650.00000	96.26981	-203.60769	96.26981
30700.00000	96.48799	-204.82877	96.48799
30750.00000	96.68427	-205.95670	96.68427
30800.00000	96.97329	-206.97120	96.97329
30850.00000	97.22940	-208.34111	97.22940
30900.00000	97.51100	-209.60957	97.51100
30950.00000	97.75608	-211.33560	97.75608
31000.00000	97.99199	-212.41545	97.99199
31050.00000	98.27088	-213.76447	98.27088
31100.00000	98.57023	-215.15623	98.57023
31150.00000	98.81375	-216.74130	98.81375
31200.00000	99.09806	-218.57561	99.09806
31250.00000	99.35376	-220.08261	99.35376
31300.00000	99.62065	-221.79982	99.62065
31350.00000	99.90328	-223.41755	99.90328
31400.00000	100.17959	-225.13930	100.17959
31450.00000	100.41301	-226.74097	100.41301
31500.00000	100.66298	-228.95058	100.66298
31550.00000	100.93794	-230.96159	100.93794
31600.00000	101.24704	-233.26934	101.24704
31650.00000	101.46731	-235.32683	101.46731
31700.00000	101.69539	-237.39723	101.69539
31750.00000	101.93561	-239.49337	101.93561
31800.00000	102.17274	-241.86398	102.17274
31850.00000	102.36371	-244.01983	102.36371
31900.00000	102.58902	-246.52238	102.58902
31950.00000	102.80902	-248.97486	102.80902
32000.00000	103.00318	-251.40410	103.00318
32050.00000	103.18780	-253.96286	103.18780
32100.00000	103.39800	-256.20110	103.39800
32150.00000	103.56801	-258.74466	103.56801
32200.00000	103.72561	-261.25560	103.72561
32250.00000	103.89786	-263.77961	103.89786
32300.00000	104.03899	-266.04812	104.03899
32350.00000	104.17770	-268.71901	104.17770
32400.00000	104.28226	-271.17289	104.28226
32450.00000	104.43189	-273.66156	104.43189
32500.00000	104.54198	-276.11024	104.54198
32550.00000	104.64943	-278.45464	104.64943
32600.00000	104.78154	-280.94160	104.78154
32650.00000	104.86669	-283.25457	104.86669
32700.00000	104.95429	-285.41812	104.95429
32750.00000	105.04300	-287.92015	105.04300
32800.00000	105.13127	-290.16078	105.13127
32850.00000	105.22258	-292.51228	105.22258
32900.00000	105.28610	-294.68871	105.28610
32950.00000	105.37789	-296.62650	105.37789
33000.00000	105.44318	-298.98957	105.44318
33050.00000	105.50763	-301.11833	105.50763
33100.00000	105.59870	-303.21456	105.59870
33150.00000	105.62942	-305.08653	105.62942
33200.00000	105.69406	-307.11720	105.69406
33250.00000	105.72402	-308.87478	105.72402
33300.00000	105.82846	-310.68204	105.82846
33350.00000	105.91270	-312.71732	105.91270
33400.00000	105.96632	-314.68834	105.96632
33450.00000	106.03506	-316.41400	106.03506
33500.00000	106.09854	-317.95547	106.09854
33550.00000	106.16782	-319.54973	106.16782
33600.00000	106.25071	-321.20267	106.25071
33650.00000	106.32586	-323.05537	106.32586
33700.00000	106.38509	-324.57247	106.38509
33750.00000	106.48728	-325.94448	106.48728
33800.00000	106.59230	-327.43023	106.59230
33850.00000	106.68870	-328.87661	106.68870
33900.00000	106.80386	-330.25615	106.80386
33950.00000	106.93400	-331.64906	106.93400
34000.00000	107.06182	-332.80286	107.06182
34050.00000	107.19740	-333.93476	107.19740
34100.00000	107.35576	-335.21881	107.35576
34150.00000	107.52946	-336.55520	107.52946
34200.00000	107.70505	-337.79135	107.70505
34250.00000	107.90552	-339.09611	107.90552
34300.00000	108.11670	-340.44121	108.11670
34350.00000	108.32522	-341.95881	108.32522
34400.00000	108.56874	-343.19949	108.56874
34450.00000	108.80016	-344.59195	108.80016
34500.00000	109.04259	-346.14701	109.04259
34550.00000	109.32383	-347.63555	109.32383
34600.00000	109.59408	-349.34752	109.59408
34650.00000	109.86055	-351.05849	109.86055
34700.00000	110.12643	-352.78350	110.12643
34750.00000	110.43907	-354.79000	110.43907
34800.00000	110.74102	-356.85321	110.74102
34850.00000	111.04669	-358.84107	111.04669
34900.00000	111.33730	-361.04051	111.33730
34950.00000	111.61371	-363.63413	111.61371
35000.00000	111.86105	-365.96390	111.86105
35050.00000	112.08709	-368.32287	112.08709
35100.00000	112.28685	-370.50784	112.28685
35150.00000	112.55624	-372.34267	112.55624
35200.00000	112.83479	-374.36743	112.83479
35250.00000	113.12953	-376.55642	113.12953
35300.00000	113.43152	-378.70287	113.43152
35350.00000	113.74830	-381.18562	113.74830
35400.00000	114.07627	-383.75586	114.07627
35450.00000	114.37218	-386.46727	114.37218
35500.00000	114.67165	-389.20862	114.67165
35550.00000	114.95758	-391.81188	114.95758
35600.00000	115.26390	-394.74796	115.26390
35650.00000	115.54991	-397.62845	115.54991
35700.00000	115.83683	-400.67108	115.83683
35750.00000	116.09883	-403.52049	116.09883
35800.00000	116.38153	-406.69585	116.38153
35850.00000	116.64645	-409.74067	116.64645
35900.00000	116.90589	-412.86657	116.90589
35950.00000	117.16377	-415.96500	117.16377
36000.00000	117.41619	-419.09691	117.41619
36050.00000	117.67162	-422.36179	117.67162
36100.00000	117.90766	-425.67714	117.90766
36150.00000	118.14244	-428.99251	118.14244
36200.00000	118.39283	-432.30227	118.39283
36250.00000	118.60708	-435.66965	118.60708
36300.00000	118.82621	-439.02460	118.82621
36350.00000	119.04777	-442.42763	119.04777
36400.00000	119.25505	-445.92963	119.25505
36450.00000	119.46016	-449.31432	119.46016
36500.00000	119.67234	-452.81191	119.67234
36550.00000	119.86813	-456.20517	119.86813
36600.00000	120.06645	-459.63992	120.06645
36650.00000	120.26045	-463.04669	120.26045
36700.00000	120.47154	-466.56721	120.47154
36750.00000	120.66508	-470.09027	120.66508
36800.00000	120.85503	-473.59346	120.85503
36850.00000	121.05312	-477.06810	121.05312
36900.00000	121.23713	-480.68758	121.23713
36950.00000	121.43188	-484.20583	121.43188
37000.00000	121.62691	-487.76752	121.62691
37050.00000	121.83013	-491.32288	121.83013
37100.00000	122.03906	-495.03931	122.03906
37150.00000	122.22799	-498.79223	122.22799
37200.00000	122.44096	-502.49780	122.44096
37250.00000	122.64216	-506.31528	122.64216
37300.00000	122.85153	-510.14650	122.85153
37350.00000	123.08104	-514.07393	123.08104
37400.00000	123.30445	-518.26638	123.30445
37450.00000	123.51959	-522.45685	123.51959
37500.00000	123.73471	-526.76748	123.73471
37550.00000	123.95339	-531.31558	123.95339
37600.00000	124.16632	-535.94434	124.16632
37650.00000	124.38044	-540.75478	124.38044
37700.00000	124.56220	-545.82345	124.56220
37750.00000	124.71847	-551.11384	124.71847
37800.00000	124.84080	-556.49437	124.84080
37850.00000	124.95099	-561.98659	124.95099
37900.00000	124.99156	-567.71347	124.99156
37950.00000	124.99236	-573.43936	124.99236
38000.00000	124.93532	-579.15474	124.93532
38050.00000	124.82676	-584.81190	124.82676
38100.00000	124.68592	-590.24302	124.68592
38150.00000	124.49727	-595.53752	124.49727
38200.00000	124.26564	-600.49900	124.26564
38250.00000	124.03858	-605.13921	124.03858
38300.00000	123.81121	-609.68441	123.81121
38350.00000	123.57075	-614.02671	123.57075
38400.00000	123.32668	-618.09545	123.32668
38450.00000	123.09809	-621.97775	123.09809
38500.00000	122.88745	-625.63429	122.88745
38550.00000	122.69383	-629.39388	122.69383
38600.00000	122.50913	-633.04475	122.50913
38650.00000	122.32830	-636.75053	122.32830
38700.00000	122.14839	-640.35850	122.14839
38750.00000	121.96702	-643.94585	121.96702
38800.00000	121.78246	-647.45339	121.78246
38850.00000	121.62729	-651.10002	121.62729
38900.00000	121.45176	-654.69591	121.45176
38950.00000	121.27753	-658.27228	121.27753
39000.00000	121.09527	-661.93689	121.09527
39050.00000	120.89830	-665.59894	120.89830
39100.00000	120.69210	-669.24069	120.69210
39150.00000	120.47149	-672.85726	120.47149
39200.00000	120.25389	-676.38961	120.25389
39250.00000	119.99437	-679.79404	119.99437
39300.00000	119.74113	-683.06488	119.74113
39350.00000	119.50834	-686.21954	119.50834
39400.00000	119.27541	-689.44558	119.27541
39450.00000	119.03889	-692.52911	119.03889
39500.00000	118.80379	-695.57200	118.80379
39550.00000	118.57565	-698.59816	118.57565
39600.00000	118.32421	-701.70223	118.32421
39650.00000	118.07742	-704.63560	118.07742
39700.00000	117.83222	-707.53699	117.83222
39750.00000	117.56764	-710.32242	117.56764
39800.00000	117.29569	-713.13329	117.29569
39850.00000	117.02252	-715.85083	117.02252
39900.00000	116.75818	-718.25441	116.75818
39950.00000	116.51988	-720.60068	116.51988
40000.00000	116.27087	-723.00974	116.27087
40050.00000	116.03650	-725.35106	116.03650
40100.00000	115.80125	-727.72934	115.80125
40150.00000	115.59218	-729.93970	115.59218
40200.00000	115.36849	-732.30087	115.36849
40250.00000	115.16094	-734.45371	115.16094
40300.00000	114.95663	-736.65517	114.95663
40350.00000	114.75244	-738.81560	114.75244
40400.00000	114.55539	-741.06602	114.55539
40450.00000	114.36115	-743.25333	114.36115
40500.00000	114.16287	-745.32615	114.16287
40550.00000	113.95723	-747.67713	113.95723
40600.00000	113.75829	-749.77918	113.75829
40650.00000	113.55108	-751.93659	113.55108
40700.00000	113.32875	-754.07695	113.32875
40750.00000	113.11500	-756.23161	113.11500
40800.00000	112.90252	-758.24316	112.90252
40850.00000	112.67966	-760.26200	112.67966
40900.00000	112.47446	-762.11669	112.47446
40950.00000	112.25217	-764.11008	112.25217
41000.00000	112.03349	-766.00936	112.03349
41050.00000	111.81171	-767.77985	111.81171
41100.00000	111.57319	-769.44886	111.57319
41150.00000	111.38230	-771.01118	111.38230
41200.00000	111.15282	-772.69876	111.15282
41250.00000	110.93591	-774.08092	110.93591
41300.00000	110.74286	-775.52951	110.74286
41350.00000	110.53152	-776.84043	110.53152
41400.00000	110.33897	-778.23729	110.33897
41450.00000	110.17324	-779.36522	110.17324
41500.00000	109.94155	-780.42457	109.94155
41550.00000	109.74178	-781.26003	109.74178
41600.00000	109.57959	-782.36095	109.57959
41650.00000	109.41735	-783.17700	109.41735
41700.00000	109.27690	-783.85885	109.27690
41750.00000	109.13477	-784.51039	109.13477
41800.00000	109.01748	-785.11144	109.01748
41850.00000	108.89583	-785.86322	108.89583
41900.00000	108.86112	-786.38112	108.86112
41950.00000	108.80938	-786.79525	108.80938
42000.00000	108.79995	-787.39870	108.79995
42050.00000	108.80235	-787.75828	108.80235
42100.00000	108.80784	-788.65242	108.80784
42150.00000	108.85975	-789.24479	108.85975
42200.00000	108.92932	-789.92387	108.92932
42250.00000	109.03204	-790.46288	109.03204
42300.00000	109.10585	-791.50842	109.10585
42350.00000	109.20927	-792.53828	109.20927
42400.00000	109.33295	-793.71976	109.33295
42450.00000	109.45887	-794.95237	109.45887
42500.00000	109.56813	-796.11687	109.56813
42550.00000	109.70180	-797.53555	109.70180
42600.00000	109.81590	-799.15831	109.81590
42650.00000	109.99041	-800.77457	109.99041
42700.00000	110.07810	-802.27956	110.07810
42750.00000	110.20603	-804.14570	110.20603
42800.00000	110.32546	-806.12406	110.32546
42850.00000	110.47502	-808.07317	110.47502
42900.00000	110.58348	-809.97353	110.58348
42950.00000	110.68834	-812.10858	110.68834
43000.00000	110.84885	-813.95319	110.84885
43050.00000	110.92879	-816.06566	110.92879
43100.00000	111.06953	-818.46132	111.06953
43150.00000	111.17115	-820.37919	111.17115
43200.00000	111.30306	-822.66383	111.30306
43250.00000	111.43427	-824.88509	111.43427
43300.00000	111.55514	-827.40483	111.55514
43350.00000	111.63727	-829.48033	111.63727
43400.00000	111.76032	-832.07245	111.76032
43450.00000	111.85541	-834.73463	111.85541
43500.00000	111.92287	-837.16006	111.92287
43550.00000	112.02973	-839.77305	112.02973
43600.00000	112.08304	-842.44758	112.08304
43650.00000	112.15960	-845.13961	112.15960
43700.00000	112.21357	-848.00157	112.21357
43750.00000	112.29288	-851.15189	112.29288
43800.00000	112.31457	-854.13447	112.31457
43850.00000	112.32203	-857.03404	112.32203
43900.00000	112.42326	-860.01851	112.42326
43950.00000	112.38549	-863.03018	112.38549
44000.00000	112.38606	-866.06114	112.38606
44050.00000	112.40094	-869.18067	112.40094
44100.00000	112.35356	-872.14466	112.35356
44150.00000	112.33436	-874.78930	112.33436
44200.00000	112.31738	-878.03416	112.31738
44250.00000	112.24439	-881.08961	112.24439
44300.00000	112.17798	-883.96951	112.17798
44350.00000	112.09928	-886.81265	112.09928
44400.00000	112.03263	-889.27760	112.03263
44450.00000	111.91424	-892.08810	111.91424
44500.00000	111.76506	-894.34944	111.76506
44550.00000	111.60505	-896.84518	111.60505
44600.00000	111.55490	-899.40867	111.55490
44650.00000	111.36487	-901.74514	111.36487
44700.00000	111.27679	-904.07114	111.27679
44750.00000	111.13647	-906.35186	111.13647
44800.00000	111.02861	-908.08336	111.02861
44850.00000	110.87129	-910.47886	110.87129
44900.00000	110.75011	-912.81939	110.75011
44950.00000	110.61286	-914.66447	110.61286
45000.00000	110.54978	-916.30229	110.54978
45050.00000	110.40946	-918.42797	110.40946
45100.00000	110.32574	-919.95951	110.32574
45150.00000	110.21186	-921.71874	110.21186
45200.00000	110.09903	-923.82460	110.09903
45250.00000	110.10815	-924.94175	110.10815
45300.00000	110.00027	-926.97879	110.00027
45350.00000	109.89714	-928.10306	109.89714
45400.00000	109.93257	-929.42900	109.93257
45450.00000	109.86544	-930.99068	109.86544
45500.00000	109.91553	-932.46136	109.91553
45550.00000	109.88328	-933.97136	109.88328
45600.00000	109.94651	-935.65015	109.94651
45650.00000	109.97331	-937.34862	109.97331
45700.00000	109.95601	-939.22611	109.95601
45750.00000	109.98113	-941.59108	109.98113
45800.00000	109.95384	-943.75135	109.95384
45850.00000	109.91111	-945.45992	109.91111
45900.00000	109.88418	-947.34677	109.88418
45950.00000	109.84883	-949.05776	109.84883
46000.00000	109.84613	-950.93429	109.84613
46050.00000	109.91124	-952.84321	109.91124
46100.00000	109.93036	-954.84753	109.93036
46150.00000	110.01458	-956.96596	110.01458
46200.00000	110.00345	-959.99322	110.00345
46250.00000	110.02066	-961.96208	110.02066
46300.00000	109.97801	-965.05866	109.97801
46350.00000	109.88717	-967.18714	109.88717
46400.00000	109.71893	-969.64640	109.71893
46450.00000	109.71160	-971.29644	109.71160
46500.00000	109.50442	-973.53282	109.50442
46550.00000	109.33427	-975.28342	109.33427
46600.00000	109.25380	-976.68624	109.25380
46650.00000	109.10201	-977.58687	109.10201
46700.00000	109.02215	-979.19703	109.02215
46750.00000	108.86658	-980.46936	108.86658
46800.00000	108.81489	-981.20674	108.81489
46850.00000	108.69535	-982.38220	108.69535
46900.00000	108.74060	-983.16841	108.74060
46950.00000	108.70573	-983.82488	108.70573
47000.00000	108.73617	-984.78021	108.73617
47050.00000	108.79762	-985.44453	108.79762
47100.00000	108.88684	-985.62233	108.88684
47150.00000	108.91353	-986.45162	108.91353
47200.00000	109.00288	-987.53191	109.00288
47250.00000	109.07951	-988.20159	109.07951
47300.00000	109.33634	-989.38520	109.33634
47350.00000	109.48218	-990.13481	109.48218
47400.00000	109.60736	-991.02584	109.60736
47450.00000	109.79023	-992.77227	109.79023
47500.00000	110.00211	-993.62828	110.00211
47550.00000	110.25877	-994.87468	110.25877
47600.00000	110.42567	-996.61837	110.42567
47650.00000	110.64394	-997.42544	110.64394
47700.00000	110.93906	-999.66237	110.93906
47750.00000	111.13675	-1001.27665	111.13675
47800.00000	111.43065	-1003.28021	111.43065
47850.00000	111.67460	-1004.77741	111.67460
47900.00000	111.89989	-1006.74668	111.89989
47950.00000	112.23517	-1009.16966	112.23517
48000.00000	112.46290	-1012.03285	112.46290
48050.00000	112.74349	-1013.91962	112.74349
48100.00000	112.96310	-1016.98398	112.96310
48150.00000	113.30860	-1019.49724	113.30860
48200.00000	113.49738	-1022.27889	113.49738
48250.00000	113.71114	-1025.01062	113.71114
48300.00000	114.00597	-1027.93732	114.00597
48350.00000	114.28284	-1030.66532	114.28284
48400.00000	114.39496	-1034.22152	114.39496
48450.00000	114.67831	-1037.41762	114.67831
48500.00000	114.86401	-1040.49746	114.86401
48550.00000	115.06482	-1043.62429	115.06482
48600.00000	115.23992	-1048.15964	115.23992
48650.00000	115.43237	-1051.17554	115.43237
48700.00000	115.54853	-1054.59561	115.54853
48750.00000	115.75769	-1058.54056	115.75769
48800.00000	115.80415	-1061.92454	115.80415
48850.00000	115.85212	-1066.20704	115.85212
48900.00000	116.13816	-709.68385	116.13816
48950.00000	116.06447	-353.31549	116.06447
49000.00000	116.23171	 2.67480	116.23171
49050.00000	116.33016	358.40723	116.33016
49100.00000	116.38447	715.07388	116.38447
49150.00000	116.45650	1070.50134	116.45650
49200.00000	116.36425	1427.67759	116.36425
49250.00000	116.48657	1783.95856	116.48657
49300.00000	116.49832	2140.40254	116.49832
49350.00000	116.42172	2496.88470	116.42172
49400.00000	116.24536	2852.07672	116.24536
49450.00000	116.34753	3208.98967	116.34753
49500.00000	116.25192	3565.97136	116.25192
49550.00000	116.21843	3922.20932	116.21843
49600.00000	116.17256	4278.70573	116.17256
49650.00000	116.15027	4634.12979	116.15027
49700.00000	115.92416	4991.14815	115.92416
49750.00000	115.86111	5348.26849	115.86111
49800.00000	115.77385	5345.60814	115.77385
49850.00000	115.72963	6060.63129	115.72963
49900.00000	115.66749	6058.19994	115.66749
49950.00000	115.45742	6415.31965	115.45742
50000.00000	115.47031	6412.19763	115.47031
50050.00000	115.27997	6409.18021	115.27997
50100.00000	115.12231	6406.08401	115.12231
50150.00000	115.14839	6403.22445	115.14839
50200.00000	114.99349	6400.09279	114.99349
50250.00000	114.82233	6397.60991	114.82233
50300.00000	114.77820	6394.79562	114.77820
50350.00000	114.60692	6392.73301	114.60692
50400.00000	114.61380	6389.78265	114.61380
50450.00000	114.39457	6387.27888	114.39457
50500.00000	114.30150	6385.67594	114.30150
50550.00000	114.14168	6382.60872	114.14168
50600.00000	114.17232	6379.72017	114.17232
50650.00000	114.11778	6377.83971	114.11778
50700.00000	113.92173	6374.84157	113.92173
50750.00000	113.83042	6372.60054	113.83042
50800.00000	113.77555	6369.82644	113.77555
50850.00000	113.73345	6367.82497	113.73345
50900.00000	113.58868	6365.00762	113.58868
50950.00000	113.62651	6362.33811	113.62651
51000.00000	113.69549	6359.36317	113.69549
51050.00000	113.63389	6357.55147	113.63389
51100.00000	113.52772	6354.42730	113.52772
51150.00000	113.50529	6351.49298	113.50529
51200.00000	113.40331	6348.90804	113.40331
51250.00000	113.43339	6346.54943	113.43339
51300.00000	113.40933	6342.92147	113.40933
51350.00000	113.34929	6341.53064	113.34929
51400.00000	113.28279	6337.03187	113.28279
51450.00000	113.07054	6334.96590	113.07054
51500.00000	113.06871	6332.09415	113.06871
51550.00000	113.01141	6328.83056	113.01141
51600.00000	112.85309	6325.52516	112.85309
51650.00000	112.52409	6322.30322	112.52409
51700.00000	112.48116	6319.08000	112.48116
51750.00000	112.24455	6316.69110	112.24455
51800.00000	112.05818	6313.46071	112.05818
51850.00000	111.85063	6310.11646	111.85063
51900.00000	111.58405	6307.66568	111.58405
51950.00000	111.14729	6305.13592	111.14729
52000.00000	110.81030	6303.19533	110.81030
52050.00000	110.64705	6301.06372	110.64705
52100.00000	110.29862	6299.65205	110.29862
52150.00000	109.89691	6298.51117	109.89691
52200.00000	109.61619	6296.96040	109.61619
52250.00000	109.36968	6295.96093	109.36968
52300.00000	108.89168	6296.87664	108.89168
52350.00000	108.85449	6295.49338	108.85449
52400.00000	108.59040	6294.51693	108.59040
52450.00000	108.51859	6294.20678	108.51859
52500.00000	108.34133	6294.16053	108.34133
52550.00000	108.31768	6295.13158	108.31768
52600.00000	108.14023	6294.59184	108.14023
52650.00000	108.25259	6294.65167	108.25259
52700.00000	108.36528	6294.98124	108.36528
52750.00000	108.43411	6295.13125	108.43411
52800.00000	108.56782	6294.39243	108.56782
52850.00000	108.60578	6294.23315	108.60578
52900.00000	108.80900	6293.22873	108.80900
52950.00000	109.07679	6292.51293	109.07679
53000.00000	109.19129	6291.27663	109.19129
53050.00000	109.35579	6290.28934	109.35579
53100.00000	109.66880	6288.59880	109.66880
53150.00000	109.92766	6288.12556	109.92766
53200.00000	109.99284	6285.91522	109.99284
53250.00000	110.28282	6284.68705	110.28282
53300.00000	110.55651	6282.19256	110.55651
53350.00000	110.65760	6280.66547	110.65760
53400.00000	110.98544	6279.03871	110.98544
53450.00000	111.18941	6276.29151	111.18941
53500.00000	111.43195	6274.42290	111.43195
53550.00000	111.77588	6271.52426	111.77588
53600.00000	111.90465	6268.59865	111.90465
53650.00000	112.15470	6265.92208	112.15470
53700.00000	112.38933	6263.16458	112.38933
53750.00000	112.58740	6259.81399	112.58740
53800.00000	112.74617	6257.74257	112.74617
53850.00000	112.96041	6253.96388	112.96041
53900.00000	113.10740	6251.77736	113.10740
53950.00000	113.24375	6247.76218	113.24375
54000.00000	113.39163	6244.39950	113.39163
54050.00000	113.56957	6240.59346	113.56957
54100.00000	113.72755	6237.27121	113.72755
54150.00000	113.82430	6233.37798	113.82430
54200.00000	113.76463	6230.56493	113.76463
54250.00000	113.91016	6225.91878	113.91016
54300.00000	113.96212	6222.19158	113.96212
54350.00000	114.03903	6218.84630	114.03903
54400.00000	114.23739	6215.85964	114.23739
54450.00000	114.16770	6211.53531	114.16770
54500.00000	114.10205	6208.17244	114.10205
54550.00000	114.06112	6204.53947	114.06112
54600.00000	114.07603	6201.46454	114.07603
54650.00000	114.11500	6196.85586	114.11500
54700.00000	114.05997	6193.60703	114.05997
54750.00000	114.10967	6190.25506	114.10967
54800.00000	113.96224	6186.49264	113.96224
54850.00000	113.83030	6183.15585	113.83030
54900.00000	113.86244	6179.44960	113.86244
54950.00000	113.77377	6176.59649	113.77377
55000.00000	113.84365	6173.09603	113.84365
55050.00000	113.64697	6169.47028	113.64697
55100.00000	113.64341	6166.44310	113.64341
55150.00000	113.61072	6162.76462	113.61072
55200.00000	113.46824	6159.50285	113.46824
55250.00000	113.43467	6156.44217	113.43467
55300.00000	113.40136	6152.93588	113.40136
55350.00000	113.30322	6149.93614	113.30322
55400.00000	113.23467	6146.15603	113.23467
55450.00000	113.18129	6143.18610	113.18129
55500.00000	113.11413	6139.56746	113.11413
55550.00000	113.04940	6136.06782	113.04940
55600.00000	112.97085	6132.71586	112.97085
55650.00000	112.88270	6129.22620	112.88270
55700.00000	112.78147	6125.52408	112.78147
55750.00000	112.68539	6122.12436	112.68539
55800.00000	112.61612	6118.37361	112.61612
55850.00000	112.50283	6114.81420	112.50283
55900.00000	112.34426	6111.21923	112.34426
55950.00000	112.22105	6107.47291	112.22105
56000.00000	112.07680	6103.85926	112.07680
56050.00000	111.91269	6100.52250	111.91269
56100.00000	111.72561	6096.47907	111.72561
56150.00000	111.54887	6093.07130	111.54887
56200.00000	111.33363	6089.17592	111.33363
56250.00000	111.11482	6085.77825	111.11482
56300.00000	110.83139	6082.16505	110.83139
56350.00000	110.60709	6078.90943	110.60709
56400.00000	110.37063	6075.61424	110.37063
56450.00000	110.04043	6072.25900	110.04043
56500.00000	109.78702	6069.21876	109.78702
56550.00000	109.46848	6066.17872	109.46848
56600.00000	109.17160	6063.21198	109.17160
56650.00000	108.89164	6060.27440	108.89164
56700.00000	108.57760	6057.56928	108.57760
56750.00000	108.24379	6055.01378	108.24379
56800.00000	107.92364	6052.47557	107.92364
56850.00000	107.65710	6050.00967	107.65710
56900.00000	107.34779	6047.73582	107.34779
56950.00000	107.02735	6045.95988	107.02735
57000.00000	106.78141	6043.42175	106.78141
57050.00000	106.46964	6041.03814	106.46964
57100.00000	106.15481	6039.40696	106.15481
57150.00000	105.90255	6037.46060	105.90255
57200.00000	105.63836	6035.57392	105.63836
57250.00000	105.43778	6033.26774	105.43778
57300.00000	105.14557	6031.90181	105.14557
57350.00000	104.88083	6030.29434	104.88083
57400.00000	104.60072	6028.42882	104.60072
57450.00000	104.35050	6026.65738	104.35050
57500.00000	104.08862	6024.51133	104.08862
57550.00000	103.86632	6022.54236	103.86632
57600.00000	103.52567	6021.49798	103.52567
57650.00000	103.30238	6020.14302	103.30238
57700.00000	103.03163	6018.70588	103.03163
57750.00000	102.82754	6017.17602	102.82754
57800.00000	102.59659	6016.03934	102.59659
57850.00000	102.33384	6014.84255	102.33384
57900.00000	102.15011	6013.86389	102.15011
57950.00000	101.93546	6012.93127	101.93546
58000.00000	101.67525	6011.84292	101.67525
58050.00000	101.52617	6011.42368	101.52617
58100.00000	101.37353	6010.23665	101.37353
58150.00000	101.10298	6009.65616	101.10298
58200.00000	101.04199	6008.82271	101.04199
58250.00000	100.88282	6007.69769	100.88282
58300.00000	100.73892	6006.70274	100.73892
58350.00000	100.59318	6005.82672	100.59318
58400.00000	100.41637	6005.38657	100.41637
58450.00000	100.33507	6004.73974	100.33507
58500.00000	100.20651	6003.88170	100.20651
58550.00000	100.08688	6003.18123	100.08688
58600.00000	99.99433	6002.58841	99.99433
58650.00000	99.81936	6002.48281	99.81936
58700.00000	99.76549	6001.56389	99.76549
58750.00000	99.60656	6001.76739	99.60656
58800.00000	99.53867	6001.39944	99.53867
58850.00000	99.58819	6001.32386	99.58819
58900.00000	99.39888	6001.32314	99.39888
58950.00000	99.42690	6001.59798	99.42690
59000.00000	99.41920	6001.85172	99.41920
59050.00000	99.47913	6002.21812	99.47913
59100.00000	99.57042	6002.18692	99.57042
59150.00000	99.78862	6002.77518	99.78862
59200.00000	99.89759	6002.83997	99.89759
59250.00000	100.08022	6002.84999	100.08022
59300.00000	100.35917	6002.61903	100.35917
59350.00000	100.57131	6002.63627	100.57131
59400.00000	100.93590	6002.43797	100.93590
59450.00000	101.19204	6001.84378	101.19204
59500.00000	101.55154	6001.43520	101.55154
59550.00000	101.96427	6000.55000	101.96427
59600.00000	102.35070	5999.67864	102.35070
59650.00000	102.84753	5998.08527	102.84753
59700.00000	103.29496	5996.40339	103.29496
59750.00000	103.80418	5994.34319	103.80418
59800.00000	104.27809	5991.68808	104.27809
59850.00000	104.79303	5988.90966	104.79303
59900.00000	105.25104	5985.38724	105.25104
59950.00000	105.71005	5981.65864	105.71005
60000.00000	106.11088	5977.35212	106.11088
60050.00000	106.46188	5972.66256	106.46188
60100.00000	106.71715	5967.62410	106.71715
60150.00000	106.91934	5962.72639	106.91934
60200.00000	107.07759	5957.43894	107.07759
60250.00000	107.14897	5952.34206	107.14897
60300.00000	107.14417	5947.29937	107.14417
60350.00000	107.08781	5942.48251	107.08781
60400.00000	107.02391	5937.82874	107.02391
60450.00000	106.91393	5933.52162	106.91393
60500.00000	106.72842	5929.21375	106.72842
60550.00000	106.56398	5925.32149	106.56398
60600.00000	106.37052	5921.85934	106.37052
60650.00000	106.17435	5918.21612	106.17435
60700.00000	105.98689	5914.80590	105.98689
60750.00000	105.78441	5911.64555	105.78441
60800.00000	105.55746	5908.66114	105.55746
60850.00000	105.36106	5905.72962	105.36106
60900.00000	105.16268	5903.04204	105.16268
60950.00000	104.96656	5900.67507	104.96656
61000.00000	104.74006	5898.24722	104.74006
61050.00000	104.57961	5895.97304	104.57961
61100.00000	104.40944	5893.70484	104.40944
61150.00000	104.23079	5891.82248	104.23079
61200.00000	104.10767	5889.74033	104.10767
61250.00000	103.97559	5887.94475	103.97559
61300.00000	103.87104	5886.29988	103.87104
61350.00000	103.72696	5884.22682	103.72696
61400.00000	103.62647	5882.24777	103.62647
61450.00000	103.54791	5880.62018	103.54791
61500.00000	103.44915	5879.22224	103.44915
61550.00000	103.43507	5877.40269	103.43507
61600.00000	103.34893	5875.85970	103.34893
61650.00000	103.33390	5874.25313	103.33390
61700.00000	103.32931	5872.21230	103.32931
61750.00000	103.30830	5871.06129	103.30830
61800.00000	103.29733	5869.61323	103.29733
61850.00000	103.34752	5868.21958	103.34752
61900.00000	103.42295	5866.50636	103.42295
61950.00000	103.50096	5865.03035	103.50096
62000.00000	103.64797	5863.16894	103.64797
62050.00000	103.78518	5860.95091	103.78518
62100.00000	103.95951	5859.01246	103.95951
62150.00000	104.06265	5856.73169	104.06265
62200.00000	104.24219	5854.11908	104.24219
62250.00000	104.36440	5851.49446	104.36440
62300.00000	104.50663	5848.46554	104.50663
62350.00000	104.58845	5845.56751	104.58845
62400.00000	104.65498	5842.47508	104.65498
62450.00000	104.75313	5839.27277	104.75313
62500.00000	104.78225	5835.86503	104.78225
62550.00000	104.82779	5832.60888	104.82779
62600.00000	104.85861	5829.41147	104.85861
62650.00000	104.83608	5826.08365	104.83608
62700.00000	104.83853	5823.06223	104.83853
62750.00000	104.81772	5819.69947	104.81772
62800.00000	104.78045	5816.65401	104.78045
62850.00000	104.75907	5813.39687	104.75907
62900.00000	104.68787	5810.46273	104.68787
62950.00000	104.62826	5807.16947	104.62826
63000.00000	104.56205	5804.50000	104.56205
63050.00000	104.50362	5801.57020	104.50362
63100.00000	104.41848	5798.67358	104.41848
63150.00000	104.36767	5795.98200	104.36767
63200.00000	104.25982	5793.14897	104.25982
63250.00000	104.17175	5790.53435	104.17175
63300.00000	104.14792	5787.90149	104.14792
63350.00000	104.04578	5785.19610	104.04578
63400.00000	103.98256	5782.68264	103.98256
63450.00000	103.95693	5779.89820	103.95693
63500.00000	103.87452	5777.79916	103.87452
63550.00000	103.78577	5774.98599	103.78577
63600.00000	103.78898	5772.47274	103.78898
63650.00000	103.75870	5770.18423	103.75870
63700.00000	103.74005	5767.57705	103.74005
63750.00000	103.74332	5765.01371	103.74332
63800.00000	103.72773	5762.92765	103.72773
63850.00000	103.76594	5760.26675	103.76594
63900.00000	103.83082	5757.71656	103.83082
63950.00000	103.93286	5754.92930	103.93286
64000.00000	103.97075	5751.71131	103.97075
64050.00000	104.03713	5748.03412	104.03713
64100.00000	104.16091	5744.69260	104.16091
64150.00000	104.16989	5740.27245	104.16989
64200.00000	104.14298	5736.26164	104.14298
64250.00000	104.01948	5731.80345	104.01948
64300.00000	103.82930	5727.52655	103.82930
64350.00000	103.52075	5723.22202	103.52075
64400.00000	103.23342	5719.85689	103.23342
64450.00000	102.83214	5716.84344	102.83214
64500.00000	102.46314	5714.74434	102.46314
64550.00000	102.13810	5712.70322	102.13810
64600.00000	101.92752	5711.43043	101.92752
64650.00000	101.66672	5710.37733	101.66672
64700.00000	101.59581	5708.34745	101.59581
64750.00000	101.62161	5707.36805	101.62161
64800.00000	101.54482	5706.11345	101.54482
64850.00000	101.59794	5703.71119	101.59794
64900.00000	101.61784	5702.12635	101.61784
64950.00000	101.62344	5700.15088	101.62344
65000.00000	101.73256	5697.54988	101.73256
65050.00000	101.76688	5695.27378	101.76688
65100.00000	101.85899	5692.21249	101.85899
65150.00000	101.89943	5689.49337	101.89943
65200.00000	101.95201	5686.54040	101.95201
65250.00000	101.91423	5683.46523	101.91423
65300.00000	101.96371	5680.32746	101.96371
65350.00000	101.99754	5677.12062	101.99754
65400.00000	101.94357	5673.54767	101.94357
65450.00000	101.97257	5669.86487	101.97257
65500.00000	101.92324	5666.22779	101.92324
65550.00000	101.86604	5662.34974	101.86604
65600.00000	101.76483	5658.86167	101.76483
65650.00000	101.65399	5654.70287	101.65399
65700.00000	101.49933	5650.98233	101.49933
65750.00000	101.26318	5646.87971	101.26318
65800.00000	101.09411	5643.73283	101.09411
65850.00000	100.81890	5640.20993	100.81890
65900.00000	100.60362	5636.62539	100.60362
65950.00000	100.35762	5633.23737	100.35762
66000.00000	100.13023	5630.05367	100.13023
66050.00000	99.80197	5627.39913	99.80197
66100.00000	99.64458	5623.99459	99.64458
66150.00000	99.24871	5621.09999	99.24871
66200.00000	98.94600	5618.64511	98.94600
66250.00000	98.68521	5615.80209	98.68521
66300.00000	98.40957	5613.54119	98.40957
66350.00000	98.05141	5610.87415	98.05141
66400.00000	97.81582	5608.33980	97.81582
66450.00000	97.46558	5606.62208	97.46558
66500.00000	97.24188	5604.02835	97.24188
66550.00000	97.03054	5602.20265	97.03054
66600.00000	96.71264	5600.60231	96.71264
66650.00000	96.44316	5598.30222	96.44316
66700.00000	96.13620	5597.02162	96.13620
66750.00000	95.86801	5595.85254	95.86801
66800.00000	95.61276	5594.57354	95.61276
66850.00000	95.42801	5592.41711	95.42801
66900.00000	95.16279	5592.21378	95.16279
66950.00000	95.08811	5589.97546	95.08811
67000.00000	94.97715	5588.18650	94.97715
67050.00000	94.81815	5587.79160	94.81815
67100.00000	94.54455	5584.94831	94.54455
67150.00000	94.45599	5583.74269	94.45599
67200.00000	94.20351	5582.74523	94.20351
67250.00000	94.02775	5580.96011	94.02775
67300.00000	93.87519	5579.88674	93.87519
67350.00000	93.86344	5579.87840	93.86344
67400.00000	93.57738	5578.14544	93.57738
67450.00000	93.55615	5577.38629	93.55615
67500.00000	93.44072	5577.07463	93.44072
67550.00000	93.53579	5576.07485	93.53579
67600.00000	93.57623	5575.00189	93.57623
67650.00000	93.52237	5573.06392	93.52237
67700.00000	93.44838	5571.79494	93.44838
67750.00000	93.56502	5569.61684	93.56502
67800.00000	93.60377	5568.52266	93.60377
67850.00000	93.67312	5565.97269	93.67312
67900.00000	93.66666	5564.30333	93.66666
67950.00000	93.65072	5562.83826	93.65072
68000.00000	93.57707	5561.23343	93.57707
68050.00000	93.63797	5559.12353	93.63797
68100.00000	93.59670	5556.83143	93.59670
68150.00000	93.64718	5555.50828	93.64718
68200.00000	93.62079	5553.63718	93.62079
68250.00000	93.63634	5551.52368	93.63634
68300.00000	93.68849	5549.86951	93.68849
68350.00000	93.73226	5547.56504	93.73226
68400.00000	93.65310	5546.42979	93.65310
68450.00000	93.80305	5543.88701	93.80305
68500.00000	93.89008	5542.38631	93.89008
68550.00000	93.88847	5540.64841	93.88847
68600.00000	93.98812	5538.01080	93.98812
68650.00000	94.05670	5535.55225	94.05670
68700.00000	94.07252	5533.31733	94.07252
68750.00000	94.20483	5531.29180	94.20483
68800.00000	94.18980	5528.78945	94.18980
68850.00000	94.27861	5526.33785	94.27861
68900.00000	94.36447	5523.70513	94.36447
68950.00000	94.42117	5521.30132	94.42117
69000.00000	94.53833	5518.83215	94.53833
69050.00000	94.63833	5516.31161	94.63833
69100.00000	94.77871	5513.33617	94.77871
69150.00000	94.81367	5510.58170	94.81367
69200.00000	95.02872	5507.98383	95.02872
69250.00000	95.13599	5504.87310	95.13599
69300.00000	95.26575	5501.44140	95.26575
69350.00000	95.44337	5498.22208	95.44337
69400.00000	95.50438	5494.38030	95.50438
69450.00000	95.68452	5490.57614	95.68452
69500.00000	95.79140	5486.44558	95.79140
69550.00000	95.87477	5482.03538	95.87477
69600.00000	95.90945	5477.35150	95.90945
69650.00000	95.89734	5473.00528	95.89734
69700.00000	95.89882	5467.95087	95.89882
69750.00000	95.87476	5463.16079	95.87476
69800.00000	95.70488	5458.25256	95.70488
69850.00000	95.58336	5453.23802	95.58336
69900.00000	95.42691	5448.64653	95.42691
69950.00000	95.14708	5443.72653	95.14708
70000.00000	94.97917	5439.03990	94.97917
70050.00000	94.68571	5435.60228	94.68571
70100.00000	94.30422	5430.80835	94.30422
70150.00000	94.10276	5425.59358	94.10276
70200.00000	93.76903	5422.04639	93.76903
70250.00000	93.45802	5418.09561	93.45802
70300.00000	93.02404	5414.16213	93.02404
70350.00000	92.65681	5410.78302	92.65681
70400.00000	92.33858	5406.46551	92.33858
70450.00000	91.98310	5402.88179	91.98310
70500.00000	91.40239	5399.39157	91.40239
70550.00000	90.99867	5396.09446	90.99867
70600.00000	90.59167	5393.09896	90.59167
70650.00000	89.87636	5391.32343	89.87636
70700.00000	89.51561	5388.06664	89.51561
70750.00000	89.06777	5387.62707	89.06777
70800.00000	88.64857	5386.11197	88.64857
70850.00000	88.07510	5385.86700	88.07510
70900.00000	88.25819	5385.72985	88.25819
70950.00000	88.36493	5384.67191	88.36493
71000.00000	88.73086	5382.00669	88.73086
71050.00000	88.85323	5378.14276	88.85323
71100.00000	88.81525	5371.86475	88.81525
71150.00000	88.89405	5367.03157	88.89405
71200.00000	88.32878	5360.99064	88.32878
71250.00000	88.06207	5355.12008	88.06207
71300.00000	87.66397	5351.15658	87.66397
71350.00000	87.07664	5346.64354	87.07664
71400.00000	86.68605	5341.04537	86.68605
71450.00000	86.29813	5337.35647	86.29813
71500.00000	85.68519	5330.85595	85.68519
71550.00000	85.65406	5326.22864	85.65406
71600.00000	84.65844	5320.70140	84.65844
71650.00000	83.88387	5314.72032	83.88387
71700.00000	83.57880	5307.11296	83.57880
71750.00000	82.02589	5302.86649	82.02589
71800.00000	80.98119	5293.59159	80.98119
71850.00000	80.21316	5292.73111	80.21316
71900.00000	78.25292	5289.29335	78.25292
71950.00000	77.52477	5280.16557	77.52477
72000.00000	76.03931	5284.51373	76.03931
72050.00000	73.56795	5282.25293	73.56795
72100.00000	73.89962	5278.54118	73.89962
72150.00000	71.13671	5280.04549	71.13671
72200.00000	69.09158	5265.13048	69.09158
72250.00000	69.81810	5257.57775	69.81810
72300.00000	67.16901	5267.73043	67.16901
72350.00000	65.69876	5203.24152	65.69876
72400.00000	63.62314	5219.01667	63.62314
72450.00000	63.29517	5128.91419	63.29517
72500.00000	66.74176	5130.07533	66.74176
72550.00000	66.66117	5098.95718	66.66117
72600.00000	70.86181	5091.69150	70.86181
72650.00000	69.96972	5082.98050	69.96972
72700.00000	72.22049	5061.66871	72.22049
72750.00000	74.00912	5068.91907	74.00912
72800.00000	71.93044	5060.96849	71.93044
72850.00000	75.04372	5046.28969	75.04372
72900.00000	74.31062	5059.85751	74.31062
72950.00000	73.91108	5044.13468	73.91108
73000.00000	75.67794	5037.12200	75.67794
73050.00000	73.21303	5048.79132	73.21303
73100.00000	73.25789	5025.45175	73.25789
73150.00000	75.38408	5040.11926	75.38408
73200.00000	72.74535	5046.42495	72.74535
73250.00000	74.02635	5026.86640	74.02635
73300.00000	75.40535	5045.58918	75.40535
73350.00000	72.10396	5039.94148	72.10396
73400.00000	74.57842	5036.32273	74.57842
73450.00000	75.82760	5057.45430	75.82760
73500.00000	74.10854	5052.15154	74.10854
73550.00000	77.71057	5042.39665	77.71057
73600.00000	77.95965	5056.82021	77.95965
73650.00000	76.85935	5043.17001	76.85935
73700.00000	81.09992	5044.10987	81.09992
73750.00000	79.77037	5049.87594	79.77037
73800.00000	79.80234	5030.28550	79.80234
73850.00000	82.18518	5034.27119	82.18518
73900.00000	80.97186	5030.93621	80.97186
73950.00000	82.43305	5015.02838	82.43305
74000.00000	83.08358	5023.49084	83.08358
74050.00000	81.65107	5012.91463	81.65107
74100.00000	83.86353	5007.01798	83.86353
74150.00000	83.55544	5007.02406	83.55544
74200.00000	83.07532	4993.79686	83.07532
74250.00000	84.74625	4989.67840	84.74625
74300.00000	84.52837	4978.76072	84.52837
74350.00000	84.81377	4958.63823	84.81377
74400.00000	84.23555	4917.95403	84.23555
74450.00000	79.20582	4747.58007	79.20582
74500.00000	85.64833	4675.69609	85.64833
74550.00000	84.77927	4662.62692	84.77927
74600.00000	83.22333	4632.32168	83.22333
74650.00000	85.99077	4626.48758	85.99077
74700.00000	83.53482	4630.61422	83.53482
74750.00000	84.96387	4606.73107	84.96387
74800.00000	86.00895	4616.40297	86.00895
74850.00000	83.09241	4604.36766	83.09241
74900.00000	85.81854	4590.69173	85.81854
74950.00000	84.51084	4602.82559	84.51084
75000.00000	83.40167	4578.55000	83.40167
75050.00000	85.61914	4581.84841	85.61914
75100.00000	82.79292	4589.24248	82.79292
75150.00000	83.29660	4568.13061	83.29660
75200.00000	84.39753	4577.69555	84.39753
75250.00000	80.39051	4574.69510	80.39051
75300.00000	83.26025	4559.55643	83.26025
75350.00000	82.98247	4582.52418	82.98247
75400.00000	79.43459	4558.39618	79.43459
75450.00000	83.17888	4560.53649	83.17888
75500.00000	80.51854	4581.71976	80.51854
75550.00000	80.34998	4548.86658	80.34998
75600.00000	83.33960	4567.81688	83.33960
75650.00000	78.76228	4574.75417	78.76228
75700.00000	81.71542	4542.63871	81.71542
75750.00000	82.88422	4573.18241	82.88422
75800.00000	77.45959	4556.63858	77.45959
75850.00000	82.56781	4550.92831	82.56781
75900.00000	81.35705	4576.30472	81.35705
75950.00000	79.38444	4540.92571	79.38444
76000.00000	83.65237	4554.90170	83.65237
76050.00000	79.44838	4571.64410	79.44838
76100.00000	81.93145	4535.10453	81.93145
76150.00000	83.62773	4557.94311	83.62773
76200.00000	78.27758	4547.30946	78.27758
76250.00000	83.23748	4533.23255	83.23748
76300.00000	82.59615	4561.90125	82.59615
76350.00000	79.27154	4536.20497	79.27154
76400.00000	84.63109	4539.54159	84.63109
76450.00000	80.98596	4554.60019	80.98596
76500.00000	82.47546	4517.67424	82.47546
76550.00000	84.09389	4538.21293	84.09389
76600.00000	79.41634	4536.48751	79.41634
76650.00000	84.44269	4517.94471	84.44269
76700.00000	83.62812	4541.24558	83.62812
76750.00000	81.11019	4508.98653	81.11019
76800.00000	85.12076	4519.80758	85.12076
76850.00000	81.97795	4533.86082	81.97795
76900.00000	83.54720	4500.41355	83.54720
76950.00000	84.80968	4517.70672	84.80968
77000.00000	80.80208	4512.41881	80.80208
77050.00000	84.99659	4496.67929	84.99659
77100.00000	84.02751	4514.80045	84.02751
77150.00000	81.42300	4483.45245	81.42300
77200.00000	85.54056	4494.11160	85.54056
77250.00000	81.97400	4501.60431	81.97400
77300.00000	83.73835	4471.94965	83.73835
77350.00000	84.49546	4492.89868	84.49546
77400.00000	81.02495	4477.22226	81.02495
77450.00000	84.84563	4469.71223	84.84563
77500.00000	82.54679	4489.76344	82.54679
77550.00000	81.80005	4454.68750	81.80005
77600.00000	84.51233	4465.75048	84.51233
77650.00000	79.81857	4467.70897	79.81857
77700.00000	82.93787	4445.66829	82.93787
77750.00000	82.32307	4471.04277	82.32307
77800.00000	78.82216	4444.64037	78.82216
77850.00000	82.72477	4450.38026	82.72477
77900.00000	79.65490	4464.87653	79.65490
77950.00000	80.13573	4436.15849	80.13573
78000.00000	81.35626	4452.18396	81.35626
78050.00000	77.53341	4443.24465	77.53341
78100.00000	80.53759	4431.76062	80.53759
78150.00000	79.50924	4453.07901	79.50924
78200.00000	77.10136	4426.46004	77.10136
78250.00000	80.36067	4434.57792	80.36067
78300.00000	76.31176	4445.36158	76.31176
78350.00000	77.55089	4424.06830	77.55089
78400.00000	78.46679	4444.47016	78.46679
78450.00000	75.19832	4433.82053	75.19832
78500.00000	77.90599	4429.98643	77.90599
78550.00000	76.54143	4450.00180	76.54143
78600.00000	75.91840	4431.33595	75.91840
78650.00000	77.64500	4443.53592	77.64500
78700.00000	75.95416	4446.07035	75.95416
78750.00000	77.03031	4432.45004	77.03031
78800.00000	77.72893	4448.75997	77.72893
78850.00000	76.74434	4434.91353	76.74434
78900.00000	78.07959	4438.15012	78.07959
78950.00000	77.33064	4446.31749	77.33064
79000.00000	78.02332	4433.96849	78.02332
79050.00000	79.24624	4440.48580	79.24624
79100.00000	77.57382	4437.00658	77.57382
79150.00000	79.00608	4432.48554	79.00608
79200.00000	79.11732	4434.43227	79.11732
79250.00000	79.12801	4427.67443	79.12801
79300.00000	80.08806	4427.65093	80.08806
79350.00000	79.79652	4428.17862	79.79652
79400.00000	80.62998	4423.11508	80.62998
79450.00000	80.54707	4423.68086	80.54707
79500.00000	80.60972	4415.45047	80.60972
79550.00000	81.50485	4418.12384	81.50485
79600.00000	81.15394	4411.72263	81.15394
79650.00000	81.70793	4406.39241	81.70793
79700.00000	81.81208	4405.36080	81.81208
79750.00000	82.10291	4402.07463	82.10291
79800.00000	82.30951	4396.38431	82.30951
79850.00000	81.94498	4392.71695	81.94498
79900.00000	82.34074	4388.67357	82.34074
79950.00000	82.41325	4386.12893	82.41325
80000.00000	82.22183	4379.43209	82.22183
80050.00000	82.22189	4376.75527	82.22189
80100.00000	81.90428	4371.32503	81.90428
80150.00000	81.54826	4366.10818	81.54826
80200.00000	81.67111	4366.01343	81.67111
80250.00000	81.39375	4359.61776	81.39375
80300.00000	81.19750	4358.68071	81.19750
80350.00000	80.77191	4353.77387	80.77191
80400.00000	80.94530	4352.16645	80.94530
80450.00000	80.55711	4349.66321	80.55711
80500.00000	80.42872	4346.33136	80.42872
80550.00000	80.07452	4342.94108	80.07452
80600.00000	80.26024	4338.72388	80.26024
80650.00000	79.62036	4339.18845	79.62036
80700.00000	79.08025	4336.03269	79.08025
80750.00000	79.58892	4333.26806	79.58892
80800.00000	78.71024	4331.58852	78.71024
80850.00000	78.51873	4330.16124	78.51873
80900.00000	78.50236	4328.45869	78.50236
80950.00000	77.98046	4328.46362	77.98046
81000.00000	77.83807	4326.67671	77.83807
81050.00000	77.77536	4325.74207	77.77536
81100.00000	77.89984	4323.99850	77.89984
81150.00000	78.05894	4323.28820	78.05894
81200.00000	77.59447	4320.00587	77.59447
81250.00000	77.84281	4318.35590	77.84281
81300.00000	77.69576	4316.41995	77.69576
81350.00000	77.79395	4315.21568	77.79395
81400.00000	78.04164	4312.26223	78.04164
81450.00000	77.78647	4307.51209	77.78647
81500.00000	78.01811	4302.07451	78.01811
81550.00000	77.77841	4297.97511	77.77841
81600.00000	77.53719	4293.57253	77.53719
81650.00000	77.36574	4284.96854	77.36574
81700.00000	76.72915	4277.04970	76.72915
81750.00000	76.06744	4270.87935	76.06744
81800.00000	74.59071	4259.88105	74.59071
81850.00000	73.40497	4250.30433	73.40497
81900.00000	70.77987	4234.74892	70.77987
81950.00000	66.70898	4206.60392	66.70898
82000.00000	63.47331	4151.10670	63.47331
82050.00000	67.42735	4083.49792	67.42735
82100.00000	71.51574	4056.59273	71.51574
82150.00000	74.98891	4036.89723	74.98891
82200.00000	77.11360	4025.22031	77.11360
82250.00000	78.11198	4012.37806	78.11198
82300.00000	79.39111	4000.88640	79.39111
82350.00000	80.36583	3994.02996	80.36583
82400.00000	80.74774	3987.33756	80.74774
82450.00000	81.45381	3978.02320	81.45381
82500.00000	81.79106	3971.40934	81.79106
82550.00000	82.04810	3965.18648	82.04810
82600.00000	82.42267	3958.55388	82.42267
82650.00000	82.76230	3952.15780	82.76230
82700.00000	83.09537	3946.22271	83.09537
82750.00000	83.25597	3938.62024	83.25597
82800.00000	83.34722	3931.98166	83.34722
82850.00000	83.38153	3925.32038	83.38153
82900.00000	83.42118	3917.81283	83.42118
82950.00000	83.21391	3910.20967	83.21391
83000.00000	83.18162	3905.61296	83.18162
83050.00000	82.84725	3899.40427	82.84725
83100.00000	82.87769	3896.22948	82.87769
83150.00000	82.28411	3892.26946	82.28411
83200.00000	82.18072	3889.92659	82.18072
83250.00000	81.87576	3888.12854	81.87576
83300.00000	81.51198	3884.91070	81.51198
83350.00000	81.45857	3885.95728	81.45857
83400.00000	81.28085	3881.76365	81.28085
83450.00000	81.20420	3883.04985	81.20420
83500.00000	80.90405	3880.75964	80.90405
83550.00000	81.21352	3879.94808	81.21352
83600.00000	80.84517	3877.51359	80.84517
83650.00000	80.76823	3877.25451	80.76823
83700.00000	81.16597	3877.57065	81.16597
83750.00000	81.38808	3876.54522	81.38808
83800.00000	81.35870	3876.56998	81.35870
83850.00000	81.44637	3874.09175	81.44637
83900.00000	81.71576	3869.79318	81.71576
83950.00000	81.89377	3869.94162	81.89377
84000.00000	81.95000	3868.44163	81.95000
84050.00000	82.55785	3868.02513	82.55785
84100.00000	82.85957	3864.45755	82.85957
84150.00000	83.22497	3861.12182	83.22497
84200.00000	83.58940	3859.36323	83.58940
84250.00000	83.94912	3855.67690	83.94912
84300.00000	84.39041	3851.54806	84.39041
84350.00000	84.57071	3848.57984	84.57071
84400.00000	85.09396	3844.44043	85.09396
84450.00000	85.42809	3840.72025	85.42809
84500.00000	85.66133	3834.71697	85.66133
84550.00000	85.94343	3829.68383	85.94343
84600.00000	86.34375	3825.32401	86.34375
84650.00000	86.46857	3820.27973	86.46857
84700.00000	86.63843	3815.61542	86.63843
84750.00000	86.86789	3809.86964	86.86789
84800.00000	86.83457	3804.40904	86.83457
84850.00000	87.11802	3799.74621	87.11802
84900.00000	87.40405	3793.55083	87.40405
84950.00000	87.37302	3787.95901	87.37302
85000.00000	87.50753	3781.80003	87.50753
85050.00000	87.65923	3776.04173	87.65923
85100.00000	87.68556	3769.39636	87.68556
85150.00000	87.69359	3763.83892	87.69359
85200.00000	87.62655	3757.20164	87.62655
85250.00000	88.00847	3750.47977	88.00847
85300.00000	87.52106	3744.25551	87.52106
85350.00000	87.41666	3738.15594	87.41666
85400.00000	87.37435	3731.92002	87.37435
85450.00000	87.07759	3724.68943	87.07759
85500.00000	86.94773	3717.64331	86.94773
85550.00000	86.68337	3710.37808	86.68337
85600.00000	86.41649	3704.81067	86.41649
85650.00000	86.19214	3698.24040	86.19214
85700.00000	85.82070	3691.16652	85.82070
85750.00000	85.69546	3686.00935	85.69546
85800.00000	85.14858	3680.21120	85.14858
85850.00000	84.74416	3674.13235	84.74416
85900.00000	84.41056	3667.23394	84.41056
85950.00000	83.90414	3661.92785	83.90414
86000.00000	83.63007	3656.67854	83.63007
86050.00000	83.12307	3649.26307	83.12307
86100.00000	83.13627	3644.16255	83.13627
86150.00000	82.51292	3636.63335	82.51292
86200.00000	82.36121	3631.50228	82.36121
86250.00000	81.76249	3626.97060	81.76249
86300.00000	81.22112	3619.45057	81.22112
86350.00000	81.01054	3613.22065	81.01054
86400.00000	79.65375	3602.48555	79.65375
86450.00000	79.13723	3599.58155	79.13723
86500.00000	78.71479	3594.16059	78.71479
86550.00000	78.67139	3586.21902	78.67139
86600.00000	78.05005	3580.21111	78.05005
86650.00000	77.76090	3574.18424	77.76090
86700.00000	77.14057	3570.92908	77.14057
86750.00000	76.66377	3568.79531	76.66377
86800.00000	76.61761	3558.78431	76.61761
86850.00000	76.17151	3553.73967	76.17151
86900.00000	75.94715	3547.29385	75.94715
86950.00000	75.06829	3542.34189	75.06829
87000.00000	75.73266	3536.06460	75.73266
87050.00000	75.28325	3529.13581	75.28325
87100.00000	74.97045	3521.73117	74.97045
87150.00000	74.64030	3518.01284	74.64030
87200.00000	74.94976	3512.93868	74.94976
87250.00000	74.59782	3507.92585	74.59782
87300.00000	74.11000	3498.97587	74.11000
87350.00000	74.44646	3489.81651	74.44646
87400.00000	74.82618	3482.68164	74.82618
87450.00000	73.70229	3479.07903	73.70229
87500.00000	74.09246	3472.43123	74.09246
87550.00000	74.08024	3469.23389	74.08024
87600.00000	73.81061	3462.44938	73.81061
87650.00000	73.84091	3455.07714	73.84091
87700.00000	73.21081	3450.20382	73.21081
87750.00000	73.76966	3443.30168	73.76966
87800.00000	73.19658	3440.40590	73.19658
87850.00000	73.33912	3437.19219	73.33912
87900.00000	73.11476	3429.94721	73.11476
87950.00000	73.13111	3425.13003	73.13111
88000.00000	71.87925	3423.64047	71.87925
88050.00000	72.09593	3416.06266	72.09593
88100.00000	71.61674	3413.35786	71.61674
88150.00000	72.11444	3410.96664	72.11444
88200.00000	71.06634	3407.49445	71.06634
88250.00000	70.65856	3409.54879	70.65856
88300.00000	70.56738	3405.14195	70.56738
88350.00000	70.96438	3399.01191	70.96438
88400.00000	70.47970	3397.60104	70.47970
88450.00000	70.06309	3398.69550	70.06309
88500.00000	69.75477	3393.96411	69.75477
88550.00000	69.53197	3399.23738	69.53197
88600.00000	69.87318	3388.40032	69.87318
88650.00000	70.13551	3396.43717	70.13551
88700.00000	70.62940	3396.75391	70.62940
88750.00000	70.29611	3394.86729	70.29611
88800.00000	70.75654	3391.01369	70.75654
88850.00000	70.46687	3391.53408	70.46687
88900.00000	70.47004	3388.13192	70.47004
88950.00000	69.91345	3386.79910	69.91345
89000.00000	70.48738	3390.75793	70.48738
89050.00000	70.95142	3383.75566	70.95142
89100.00000	70.89273	3382.06252	70.89273
89150.00000	70.31155	3383.97937	70.31155
89200.00000	70.75345	3382.79292	70.75345
89250.00000	70.80612	3379.34754	70.80612
89300.00000	70.97169	3380.95195	70.97169
89350.00000	70.86631	3380.33314	70.86631
89400.00000	71.09880	3377.21287	71.09880
89450.00000	71.25430	3374.93694	71.25430
89500.00000	71.94103	3374.11503	71.94103
89550.00000	71.69793	3374.19062	71.69793
89600.00000	72.03004	3372.55860	72.03004
89650.00000	72.48566	3368.23345	72.48566
89700.00000	72.61981	3369.92603	72.61981
89750.00000	72.79362	3364.00732	72.79362
89800.00000	72.94939	3366.86849	72.94939
89850.00000	72.96006	3364.67912	72.96006
89900.00000	72.57865	3363.39957	72.57865
89950.00000	73.76907	3364.20285	73.76907
90000.00000	73.82104	3370.80450	73.82104
90050.00000	74.74123	3378.24256	74.74123
90100.00000	76.96402	3373.29017	76.96402
90150.00000	78.52939	3373.58771	78.52939
90200.00000	81.19356	3364.66098	81.19356
90250.00000	82.57450	3342.18296	82.57450
90300.00000	82.78295	3319.79549	82.78295
90350.00000	81.51424	3308.75276	81.51424
90400.00000	80.71356	3304.10687	80.71356
90450.00000	79.99095	3297.86062	79.99095
90500.00000	79.24910	3293.42021	79.24910
90550.00000	78.92277	3288.25623	78.92277
90600.00000	78.71206	3286.70725	78.71206
90650.00000	78.78225	3279.99882	78.78225
90700.00000	78.37074	3277.58726	78.37074
90750.00000	78.26870	3276.95134	78.26870
90800.00000	78.42574	3270.56493	78.42574
90850.00000	78.53603	3269.77207	78.53603
90900.00000	78.27213	3264.01961	78.27213
90950.00000	78.39861	3263.10859	78.39861
91000.00000	78.21408	3256.55588	78.21408
91050.00000	78.15585	3253.12825	78.15585
91100.00000	78.40766	3247.92778	78.40766
91150.00000	77.86396	3245.45540	77.86396
91200.00000	77.75234	3240.22443	77.75234
91250.00000	78.03653	3237.52057	78.03653
91300.00000	77.47025	3232.84313	77.47025
91350.00000	76.96623	3229.29995	76.96623
91400.00000	77.15910	3226.22445	77.15910
91450.00000	76.77110	3222.06240	76.77110
91500.00000	76.69895	3218.15471	76.69895
91550.00000	76.15713	3215.31881	76.15713
91600.00000	76.64715	3212.00658	76.64715
91650.00000	75.99280	3209.45189	75.99280
91700.00000	76.05198	3204.94598	76.05198
91750.00000	75.33601	3205.66172	75.33601
91800.00000	75.16532	3197.93600	75.16532
91850.00000	74.92023	3193.77039	74.92023
91900.00000	74.24171	3191.97356	74.24171
91950.00000	74.57498	3191.10265	74.57498
92000.00000	73.89498	3190.11430	73.89498
92050.00000	73.27981	3187.37246	73.27981
92100.00000	72.87536	3188.10623	72.87536
92150.00000	72.59212	3185.79369	72.59212
92200.00000	72.16992	3187.21422	72.16992
92250.00000	71.67029	3183.67323	71.67029
92300.00000	71.10486	3184.61056	71.10486
92350.00000	71.63469	3185.94122	71.63469
92400.00000	71.06984	3185.14429	71.06984
92450.00000	71.23873	3189.82009	71.23873
92500.00000	71.47999	3186.30684	71.47999
92550.00000	70.74020	3190.32759	70.74020
92600.00000	71.60457	3189.89419	71.60457
92650.00000	71.99950	3188.93446	71.99950
92700.00000	71.67626	3192.21311	71.67626
92750.00000	72.21958	3189.24594	72.21958
92800.00000	71.75248	3190.81535	71.75248
92850.00000	72.29828	3190.62046	72.29828
92900.00000	71.97146	3192.35929	71.97146
92950.00000	71.92896	3193.11768	71.92896
93000.00000	72.63677	3189.35528	72.63677
93050.00000	72.85197	3187.82711	72.85197
93100.00000	72.63867	3191.18967	72.63867
93150.00000	73.41598	3186.02571	73.41598
93200.00000	73.94415	3183.65342	73.94415
93250.00000	74.05280	3181.62198	74.05280
93300.00000	74.41526	3181.81627	74.41526
93350.00000	74.29577	3173.52611	74.29577
93400.00000	74.27111	3175.90864	74.27111
93450.00000	74.53943	3175.03644	74.53943
93500.00000	74.62318	3171.25576	74.62318
93550.00000	74.73109	3172.26095	74.73109
93600.00000	74.19554	3169.88140	74.19554
93650.00000	75.10961	3167.19822	75.10961
93700.00000	75.11638	3164.68897	75.11638
93750.00000	74.24244	3163.41771	74.24244
93800.00000	74.85206	3157.70783	74.85206
93850.00000	75.21569	3162.34681	75.21569
93900.00000	74.93980	3159.18803	74.93980
93950.00000	74.84028	3156.88207	74.84028
94000.00000	75.46419	3154.86765	75.46419
94050.00000	75.63422	3150.26814	75.63422
94100.00000	75.17185	3150.41362	75.17185
94150.00000	76.11005	3148.96612	76.11005
94200.00000	75.90064	3146.57041	75.90064
94250.00000	76.63151	3140.13416	76.63151
94300.00000	75.98515	3140.05353	75.98515
94350.00000	76.52373	3138.60430	76.52373
94400.00000	75.91777	3135.49078	75.91777
94450.00000	76.41244	3131.16292	76.41244
94500.00000	76.06958	3128.72634	76.06958
94550.00000	75.97669	3125.11684	75.97669
94600.00000	76.62646	3123.04237	76.62646
94650.00000	76.90010	3119.20575	76.90010
94700.00000	76.73459	3115.41946	76.73459
94750.00000	76.20696	3113.15721	76.20696
94800.00000	76.08103	3108.89269	76.08103
94850.00000	76.06908	3106.13030	76.06908
94900.00000	76.05513	3104.19776	76.05513
94950.00000	76.54639	3101.62261	76.54639
95000.00000	76.01078	3100.45112	76.01078
95050.00000	76.28878	3094.34210	76.28878
95100.00000	76.59397	3099.30286	76.59397
95150.00000	76.36964	3094.48117	76.36964
95200.00000	76.37407	3088.14543	76.37407
95250.00000	76.64071	3089.79884	76.64071
95300.00000	77.21774	3084.61993	77.21774
95350.00000	77.06664	3080.55423	77.06664
95400.00000	77.26826	3076.99418	77.26826
95450.00000	77.53028	3071.87479	77.53028
95500.00000	77.17855	3065.99241	77.17855
95550.00000	77.30039	3066.80683	77.30039
95600.00000	77.60672	3061.98121	77.60672
95650.00000	77.20620	3055.27756	77.20620
95700.00000	77.65784	3053.74552	77.65784
95750.00000	76.94562	3051.24384	76.94562
95800.00000	77.00463	3045.95737	77.00463
95850.00000	77.38527	3044.55290	77.38527
95900.00000	77.75989	3039.10149	77.75989
95950.00000	77.66230	3041.77681	77.66230
96000.00000	77.72666	3038.98285	77.72666
96050.00000	77.96060	3029.78989	77.96060
96100.00000	78.94760	3031.24887	78.94760
96150.00000	78.48017	3020.78630	78.48017
96200.00000	79.35136	3013.85516	79.35136
96250.00000	78.96271	3010.51696	78.96271
96300.00000	79.36822	3007.16637	79.36822
96350.00000	80.49075	2994.40585	80.49075
96400.00000	78.98166	2995.89677	78.98166
96450.00000	79.04437	2996.78383	79.04437
96500.00000	79.57452	2994.04147	79.57452
96550.00000	78.82247	2995.96138	78.82247
96600.00000	78.65667	2977.78307	78.65667
96650.00000	79.07966	2980.12074	79.07966
96700.00000	78.73147	2981.00147	78.73147
96750.00000	80.02566	2978.69850	80.02566
96800.00000	79.63226	2976.96001	79.63226
96850.00000	80.12791	2957.09761	80.12791
96900.00000	81.55003	2964.23168	81.55003
96950.00000	82.49694	2962.61314	82.49694
97000.00000	82.09306	2951.96555	82.09306
97050.00000	82.21368	2961.03896	82.21368
97100.00000	82.98823	2958.33621	82.98823
97150.00000	85.11488	2936.07550	85.11488
97200.00000	85.00124	2939.36277	85.00124
97250.00000	83.23319	2914.63249	83.23319
97300.00000	85.03094	2904.11320	85.03094
97350.00000	82.62239	2876.09687	82.62239
97400.00000	81.39354	2868.44869	81.39354
97450.00000	77.01357	2872.00051	77.01357
97500.00000	76.26925	2881.30718	76.26925
97550.00000	75.27097	2887.99720	75.27097
97600.00000	76.44033	2877.75525	76.44033
97650.00000	74.18970	2883.84839	74.18970
97700.00000	75.46713	2880.33589	75.46713
97750.00000	73.68013	2880.40420	73.68013
97800.00000	74.67545	2880.62415	74.67545
97850.00000	73.99297	2879.11205	73.99297
97900.00000	74.69051	2876.60983	74.69051
97950.00000	72.99370	2880.45885	72.99370
98000.00000	73.41368	2870.87662	73.41368
98050.00000	73.76790	2869.24156	73.76790
98100.00000	72.34627	2865.24087	72.34627
98150.00000	72.21194	2868.20288	72.21194
98200.00000	71.17851	2863.15912	71.17851
98250.00000	73.09968	2863.88904	73.09968
98300.00000	70.92559	2862.83755	70.92559
98350.00000	71.68665	2856.64191	71.68665
98400.00000	71.43291	2859.07874	71.43291
98450.00000	71.39471	2862.96848	71.39471
98500.00000	70.41978	2852.64755	70.41978
98550.00000	68.51178	2850.38337	68.51178
98600.00000	68.63394	2838.88613	68.63394
98650.00000	67.71614	2847.70613	67.71614
98700.00000	68.63778	2841.76121	68.63778
98750.00000	67.32031	2845.68572	67.32031
98800.00000	65.69864	2833.93668	65.69864
98850.00000	64.84772	2827.73358	64.84772
98900.00000	66.34221	2817.40753	66.34221
98950.00000	66.39459	2840.82825	66.39459
99000.00000	64.84273	2807.47279	64.84273
99050.00000	63.68777	2827.43112	63.68777
99100.00000	61.55323	2807.00782	61.55323
99150.00000	62.99609	2814.47496	62.99609
99200.00000	62.48172	2817.54912	62.48172
99250.00000	63.15296	2803.23277	63.15296
99300.00000	60.23534	2787.51595	60.23534
99350.00000	59.15449	2786.35660	59.15449
99400.00000	60.55603	2798.09078	60.55603
99450.00000	59.89231	2776.80538	59.89231
99500.00000	57.22905	2784.56082	57.22905
99550.00000	57.90794	2773.91360	57.90794
99600.00000	56.38856	2757.57973	56.38856
99650.00000	61.62739	2785.29152	61.62739
99700.00000	53.66829	2733.79128	53.66829
99750.00000	55.21107	2761.46317	55.21107
99800.00000	55.81969	2739.23755	55.81969
99850.00000	56.15871	2754.31459	56.15871
99900.00000	46.50280	2733.12312	46.50280
99950.00000	54.99369	2704.16264	54.99369
