---ACOUSTIC CALIBRATION---
Filename: C:\Data\CL0809 DATA\CL08095\RightPrimary.calib
Date: 8/9/2019 4:10:50 PM
Format: 4
Probe Tube Correction File: C:\Data\Probe Tube Calibrations\74_ProbeTube.calib
Experiment VIs: 2128
EPL_CFTS.exe V15.0.1f5 (2015)
DAQmx V15.1

Attenuation (dB): 40.000000
Min Freq (Hz): 50.000000
Max Freq (Hz): 99950.000000
Freq Step (Hz): 50.000000
Sample Rate (Hz): 200000.000000
[Smoothing]
Method=None
MA.Iterations=0
MA.Length=0
Loess.Length=0
Loess.Type=Linear
Loess.Robust=FALSE


Freq(Hz)	Mag(dB)	Phase(deg)	Unsmoothed(dB)

50.00000	88.14673	129.44737	88.14673
100.00000	68.78973	228.76554	68.78973
150.00000	67.41420	344.47289	67.41420
200.00000	64.10929	492.72357	64.10929
250.00000	58.32906	743.87397	58.32906
300.00000	67.28630	855.82017	67.28630
350.00000	55.34903	996.92279	55.34903
400.00000	60.00994	1075.40509	60.00994
450.00000	61.07764	1106.77765	61.07764
500.00000	64.12680	1221.97675	64.12680
550.00000	66.76101	1180.95232	66.76101
600.00000	65.66064	1097.96610	65.66064
650.00000	73.44531	1084.21131	73.44531
700.00000	76.49441	1142.04224	76.49441
750.00000	79.22863	1099.94956	79.22863
800.00000	79.06798	1076.04228	79.06798
850.00000	78.16345	1077.51794	78.16345
900.00000	78.65088	1084.32459	78.65088
950.00000	82.26561	1082.08106	82.26561
1000.00000	84.27228	1084.60928	84.27228
1050.00000	87.42439	1074.32750	87.42439
1100.00000	89.74148	1059.12547	89.74148
1150.00000	90.89154	1043.53897	90.89154
1200.00000	91.47694	1034.09854	91.47694
1250.00000	92.35009	1026.89600	92.35009
1300.00000	93.75954	1018.51210	93.75954
1350.00000	94.97179	1005.70123	94.97179
1400.00000	95.24866	992.20271	95.24866
1450.00000	95.10581	982.08015	95.10581
1500.00000	95.06124	975.84245	95.06124
1550.00000	95.34220	970.05618	95.34220
1600.00000	96.01318	966.13850	96.01318
1650.00000	96.65532	962.40951	96.65532
1700.00000	100.44607	947.03172	100.44607
1750.00000	97.40814	926.39016	97.40814
1800.00000	96.93913	921.44013	96.93913
1850.00000	96.48611	915.19063	96.48611
1900.00000	96.43440	910.36174	96.43440
1950.00000	95.92694	905.67899	95.92694
2000.00000	95.68928	902.99743	95.68928
2050.00000	95.99720	900.33039	95.99720
2100.00000	96.45877	894.66998	96.45877
2150.00000	96.70133	886.92493	96.70133
2200.00000	96.38017	876.69966	96.38017
2250.00000	95.39817	871.90218	95.39817
2300.00000	95.17796	871.26762	95.17796
2350.00000	95.36149	865.43147	95.36149
2400.00000	95.34556	859.08810	95.34556
2450.00000	94.77600	851.16612	94.77600
2500.00000	93.88762	848.29860	93.88762
2550.00000	93.55927	845.37669	93.55927
2600.00000	93.18086	841.80596	93.18086
2650.00000	92.65630	839.40756	92.65630
2700.00000	92.22198	836.47052	92.22198
2750.00000	91.82219	834.36187	91.82219
2800.00000	91.37331	831.44233	91.37331
2850.00000	90.94823	830.30007	90.94823
2900.00000	90.70963	828.41368	90.70963
2950.00000	90.45219	826.94027	90.45219
3000.00000	90.11490	824.17265	90.11490
3050.00000	89.77968	822.28250	89.77968
3100.00000	89.35318	819.24933	89.35318
3150.00000	88.69729	817.62100	88.69729
3200.00000	88.21419	816.55609	88.21419
3250.00000	87.89687	816.18767	87.89687
3300.00000	87.48563	814.60505	87.48563
3350.00000	87.00481	813.84500	87.00481
3400.00000	86.40793	812.37221	86.40793
3450.00000	85.69354	812.25687	85.69354
3500.00000	84.73423	811.98433	84.73423
3550.00000	84.20465	812.02788	84.20465
3600.00000	82.76057	813.06419	82.76057
3650.00000	81.29592	819.09072	81.29592
3700.00000	79.96395	827.29250	79.96395
3750.00000	79.03395	839.37159	79.03395
3800.00000	79.36593	856.41675	79.36593
3850.00000	80.23101	865.21199	80.23101
3900.00000	81.83575	872.77169	81.83575
3950.00000	82.07311	881.68925	82.07311
4000.00000	83.05469	889.88744	83.05469
4050.00000	84.60603	899.06442	84.60603
4100.00000	86.46128	903.87275	86.46128
4150.00000	88.98964	905.22638	88.98964
4200.00000	90.82055	904.64374	90.82055
4250.00000	91.77563	895.35789	91.77563
4300.00000	92.67526	895.73107	92.67526
4350.00000	93.87108	894.89409	93.87108
4400.00000	95.35131	891.64422	95.35131
4450.00000	96.33975	884.67356	96.33975
4500.00000	96.99686	879.11916	96.99686
4550.00000	97.25292	875.67524	97.25292
4600.00000	97.77766	874.93775	97.77766
4650.00000	98.68316	874.64932	98.68316
4700.00000	99.75097	872.91046	99.75097
4750.00000	100.84013	870.21362	100.84013
4800.00000	101.96057	866.95659	101.96057
4850.00000	103.07839	863.00301	103.07839
4900.00000	104.23104	858.02573	104.23104
4950.00000	105.41517	852.94007	105.41517
5000.00000	106.68279	846.91306	106.68279
5050.00000	108.07967	839.97779	108.07967
5100.00000	109.68973	831.44182	109.68973
5150.00000	111.63478	819.80308	111.63478
5200.00000	114.01214	800.24735	114.01214
5250.00000	115.50650	762.60208	115.50650
5300.00000	112.10008	719.96776	112.10008
5350.00000	106.28668	705.05480	106.28668
5400.00000	101.73130	710.25869	101.73130
5450.00000	98.83471	720.52782	98.83471
5500.00000	96.40161	734.05529	96.40161
5550.00000	95.22081	756.98020	95.22081
5600.00000	96.67626	776.98545	96.67626
5650.00000	98.93161	784.17135	98.93161
5700.00000	100.68056	782.35683	100.68056
5750.00000	101.61376	778.31547	101.61376
5800.00000	102.05167	775.84940	102.05167
5850.00000	102.42297	774.90199	102.42297
5900.00000	102.92358	774.61041	102.92358
5950.00000	103.56959	774.46457	103.56959
6000.00000	104.30941	773.79198	104.30941
6050.00000	105.11638	772.43275	105.11638
6100.00000	105.96245	770.47701	105.96245
6150.00000	106.81468	767.90351	106.81468
6200.00000	107.70198	765.06019	107.70198
6250.00000	108.63202	761.48871	108.63202
6300.00000	109.60797	757.12330	109.60797
6350.00000	110.58873	751.80289	110.58873
6400.00000	111.52606	745.54014	111.52606
6450.00000	112.41062	738.21106	112.41062
6500.00000	113.18668	730.19650	113.18668
6550.00000	113.88649	721.36826	113.88649
6600.00000	114.46867	711.98930	114.46867
6650.00000	114.92767	701.80213	114.92767
6700.00000	115.20353	690.77289	115.20353
6750.00000	115.19287	679.38384	115.19287
6800.00000	114.89231	668.59944	114.89231
6850.00000	114.38346	658.93910	114.38346
6900.00000	113.76040	650.72392	113.76040
6950.00000	113.10793	643.73624	113.10793
7000.00000	112.46819	637.78089	112.46819
7050.00000	111.88402	632.64648	111.88402
7100.00000	111.33806	628.12637	111.33806
7150.00000	110.85085	623.90899	110.85085
7200.00000	110.41675	620.01525	110.41675
7250.00000	110.02260	616.19308	110.02260
7300.00000	109.64197	612.45679	109.64197
7350.00000	109.28925	608.81993	109.28925
7400.00000	108.95138	605.16549	108.95138
7450.00000	108.61435	601.59465	108.61435
7500.00000	108.27592	597.98971	108.27592
7550.00000	107.92233	594.37832	107.92233
7600.00000	107.56021	590.97490	107.56021
7650.00000	107.18100	587.70676	107.18100
7700.00000	106.80009	584.70896	106.80009
7750.00000	106.42921	581.74328	106.42921
7800.00000	106.03556	579.24289	106.03556
7850.00000	105.67946	576.90162	105.67946
7900.00000	105.33286	574.53091	105.33286
7950.00000	105.00440	572.68902	105.00440
8000.00000	104.70557	570.87484	104.70557
8050.00000	104.42398	569.25947	104.42398
8100.00000	104.18670	567.65994	104.18670
8150.00000	103.96608	566.06922	103.96608
8200.00000	103.76901	564.56788	103.76901
8250.00000	103.60584	563.14686	103.60584
8300.00000	103.48219	561.54279	103.48219
8350.00000	103.39022	559.92038	103.39022
8400.00000	103.30356	558.21914	103.30356
8450.00000	103.18840	556.44056	103.18840
8500.00000	103.11948	554.76900	103.11948
8550.00000	103.09174	553.09907	103.09174
8600.00000	103.07720	551.25698	103.07720
8650.00000	103.06885	549.36006	103.06885
8700.00000	103.04411	547.20095	103.04411
8750.00000	103.04921	545.12758	103.04921
8800.00000	103.06354	542.85136	103.06354
8850.00000	103.10044	540.42710	103.10044
8900.00000	103.10731	537.88081	103.10731
8950.00000	103.15785	535.31709	103.15785
9000.00000	103.15945	532.43655	103.15945
9050.00000	103.20386	529.51199	103.20386
9100.00000	103.18988	526.58726	103.18988
9150.00000	103.21998	523.53663	103.21998
9200.00000	103.22435	520.43456	103.22435
9250.00000	103.17814	516.94116	103.17814
9300.00000	103.17326	513.28014	103.17326
9350.00000	103.06659	509.61554	103.06659
9400.00000	102.97213	505.92268	102.97213
9450.00000	102.84395	502.24458	102.84395
9500.00000	102.69553	498.38425	102.69553
9550.00000	102.49124	494.82972	102.49124
9600.00000	102.26692	491.28041	102.26692
9650.00000	102.02935	487.95459	102.02935
9700.00000	101.70832	484.55357	101.70832
9750.00000	101.39759	481.37584	101.39759
9800.00000	100.96107	478.35284	100.96107
9850.00000	100.47267	476.10398	100.47267
9900.00000	99.93067	475.37494	99.93067
9950.00000	99.40684	476.07703	99.40684
10000.00000	99.42007	479.45629	99.42007
10050.00000	100.00872	479.45431	100.00872
10100.00000	100.38657	475.72906	100.38657
10150.00000	100.39594	471.63319	100.39594
10200.00000	100.29562	468.33800	100.29562
10250.00000	100.17113	465.98090	100.17113
10300.00000	100.08008	463.62105	100.08008
10350.00000	100.02213	461.45019	100.02213
10400.00000	99.90622	459.12662	99.90622
10450.00000	99.87599	456.92779	99.87599
10500.00000	99.87846	454.50661	99.87846
10550.00000	99.88003	452.46347	99.88003
10600.00000	99.96093	449.58248	99.96093
10650.00000	99.99867	447.02221	99.99867
10700.00000	100.06274	443.90060	100.06274
10750.00000	100.12371	441.00290	100.12371
10800.00000	100.17870	437.35370	100.17870
10850.00000	100.23207	433.91161	100.23207
10900.00000	100.28724	430.29616	100.28724
10950.00000	100.28160	426.43490	100.28160
11000.00000	100.32182	422.45326	100.32182
11050.00000	100.25497	418.50027	100.25497
11100.00000	100.22658	414.31933	100.22658
11150.00000	100.15280	409.93756	100.15280
11200.00000	100.08455	405.74002	100.08455
11250.00000	99.89915	401.19237	99.89915
11300.00000	99.75544	396.70263	99.75544
11350.00000	99.59134	392.13248	99.59134
11400.00000	99.33513	387.43282	99.33513
11450.00000	99.10135	382.79956	99.10135
11500.00000	98.85031	378.00827	98.85031
11550.00000	98.57499	373.43990	98.57499
11600.00000	98.26035	368.77261	98.26035
11650.00000	97.92211	364.27270	97.92211
11700.00000	97.60994	359.55202	97.60994
11750.00000	97.23631	355.21747	97.23631
11800.00000	96.90788	351.06471	96.90788
11850.00000	96.56475	346.59714	96.56475
11900.00000	96.17011	342.68408	96.17011
11950.00000	95.80953	338.41493	95.80953
12000.00000	95.43791	334.77393	95.43791
12050.00000	95.01186	331.33924	95.01186
12100.00000	94.58513	327.47649	94.58513
12150.00000	94.16697	323.83452	94.16697
12200.00000	93.75278	319.76423	93.75278
12250.00000	93.34267	316.13590	93.34267
12300.00000	92.83118	312.26917	92.83118
12350.00000	92.44284	308.33420	92.44284
12400.00000	91.94543	303.46691	91.94543
12450.00000	91.58148	299.18990	91.58148
12500.00000	91.25225	295.37073	91.25225
12550.00000	90.79079	290.89653	90.79079
12600.00000	90.53615	285.24603	90.53615
12650.00000	90.21660	280.76372	90.21660
12700.00000	89.79014	275.58813	89.79014
12750.00000	89.50022	270.69916	89.50022
12800.00000	89.28853	264.93888	89.28853
12850.00000	88.91841	260.10602	88.91841
12900.00000	88.67283	254.12004	88.67283
12950.00000	88.59642	247.07294	88.59642
13000.00000	88.39501	240.24142	88.39501
13050.00000	88.34593	233.24222	88.34593
13100.00000	88.34363	226.18605	88.34363
13150.00000	88.56609	219.35171	88.56609
13200.00000	88.82131	209.51871	88.82131
13250.00000	89.70632	200.17818	89.70632
13300.00000	90.56335	194.57726	90.56335
13350.00000	91.88275	188.36735	91.88275
13400.00000	93.28962	186.88499	93.28962
13450.00000	94.33093	191.84607	94.33093
13500.00000	94.34220	200.04316	94.34220
13550.00000	93.61385	202.04472	93.61385
13600.00000	92.24494	199.75270	92.24494
13650.00000	91.18014	193.13743	91.18014
13700.00000	90.36456	183.88894	90.36456
13750.00000	89.95565	171.15668	89.95565
13800.00000	90.09795	158.00261	90.09795
13850.00000	90.61423	144.43798	90.61423
13900.00000	91.27852	130.97044	91.27852
13950.00000	92.50273	119.24380	92.50273
14000.00000	94.18621	109.27063	94.18621
14050.00000	96.22976	103.70754	96.22976
14100.00000	98.45234	102.48631	98.45234
14150.00000	99.99558	110.95546	99.99558
14200.00000	100.08410	120.86442	100.08410
14250.00000	99.01310	128.29183	99.01310
14300.00000	97.58267	128.78438	97.58267
14350.00000	96.35938	122.76312	96.35938
14400.00000	95.56807	116.83560	95.56807
14450.00000	95.03155	108.95864	95.03155
14500.00000	94.64694	99.85158	94.64694
14550.00000	94.69682	90.19156	94.69682
14600.00000	94.84215	82.39807	94.84215
14650.00000	95.27091	74.38785	95.27091
14700.00000	95.87635	65.98009	95.87635
14750.00000	96.65139	59.90007	96.65139
14800.00000	97.46010	55.51422	97.46010
14850.00000	98.47537	52.73331	98.47537
14900.00000	99.36355	52.53207	99.36355
14950.00000	99.85365	54.32374	99.85365
15000.00000	99.97842	56.16260	99.97842
15050.00000	99.73475	58.52511	99.73475
15100.00000	99.40496	57.86711	99.40496
15150.00000	98.90359	55.51973	98.90359
15200.00000	98.59575	52.24082	98.59575
15250.00000	98.22486	48.06126	98.22486
15300.00000	98.14714	42.64572	98.14714
15350.00000	98.29501	37.25255	98.29501
15400.00000	98.49933	31.68640	98.49933
15450.00000	98.78406	25.94665	98.78406
15500.00000	99.21092	21.23504	99.21092
15550.00000	99.64190	17.64416	99.64190
15600.00000	100.21189	14.76128	100.21189
15650.00000	100.68318	12.24356	100.68318
15700.00000	100.88198	11.45265	100.88198
15750.00000	101.09611	10.70046	101.09611
15800.00000	101.05688	 9.40641	101.05688
15850.00000	101.06306	 8.13327	101.06306
15900.00000	100.83857	 5.51300	100.83857
15950.00000	100.69119	 2.24009	100.69119
16000.00000	100.58910	-1.21350	100.58910
16050.00000	100.62711	-4.92593	100.62711
16100.00000	100.57973	-8.73857	100.57973
16150.00000	100.78174	-12.60011	100.78174
16200.00000	101.01498	-15.75210	101.01498
16250.00000	101.27019	-19.48503	101.27019
16300.00000	101.53838	-22.25917	101.53838
16350.00000	101.81794	-24.57130	101.81794
16400.00000	102.00462	-26.61344	102.00462
16450.00000	102.20098	-28.66778	102.20098
16500.00000	102.32498	-30.87761	102.32498
16550.00000	102.33370	-33.42501	102.33370
16600.00000	102.40133	-36.33667	102.40133
16650.00000	102.36830	-39.65101	102.36830
16700.00000	102.40457	-43.15304	102.40457
16750.00000	102.42439	-46.93492	102.42439
16800.00000	102.42345	-50.50252	102.42345
16850.00000	102.49564	-53.91542	102.49564
16900.00000	102.60558	-56.78149	102.60558
16950.00000	102.62783	-59.66459	102.62783
17000.00000	102.77505	-62.36311	102.77505
17050.00000	102.86696	-64.74471	102.86696
17100.00000	102.88235	-67.36734	102.88235
17150.00000	102.87083	-69.37441	102.87083
17200.00000	102.84483	-71.64218	102.84483
17250.00000	102.82986	-74.55234	102.82986
17300.00000	102.84827	-77.30217	102.84827
17350.00000	102.81832	-80.01927	102.81832
17400.00000	102.79141	-82.62330	102.79141
17450.00000	102.87406	-85.16370	102.87406
17500.00000	102.93421	-88.08820	102.93421
17550.00000	102.97084	-90.68831	102.97084
17600.00000	103.03824	-92.96549	103.03824
17650.00000	103.14142	-94.89468	103.14142
17700.00000	103.25967	-97.47504	103.25967
17750.00000	103.30016	-99.94218	103.30016
17800.00000	103.31744	-102.25018	103.31744
17850.00000	103.38151	-104.49081	103.38151
17900.00000	103.47183	-106.83690	103.47183
17950.00000	103.46162	-109.12951	103.46162
18000.00000	103.58080	-111.48113	103.58080
18050.00000	103.66460	-114.21890	103.66460
18100.00000	103.75932	-116.94589	103.75932
18150.00000	103.84353	-119.70198	103.84353
18200.00000	103.91368	-122.48295	103.91368
18250.00000	103.99187	-125.45412	103.99187
18300.00000	104.06272	-128.10463	104.06272
18350.00000	104.09524	-131.20000	104.09524
18400.00000	104.15535	-133.99954	104.15535
18450.00000	104.17977	-136.60936	104.17977
18500.00000	104.23761	-139.07155	104.23761
18550.00000	104.29432	-142.15332	104.29432
18600.00000	104.32955	-145.02710	104.32955
18650.00000	104.37594	-147.81565	104.37594
18700.00000	104.39935	-150.62848	104.39935
18750.00000	104.40344	-153.05487	104.40344
18800.00000	104.41262	-155.97754	104.41262
18850.00000	104.43219	-158.46067	104.43219
18900.00000	104.42675	-161.19709	104.42675
18950.00000	104.43454	-164.15239	104.43454
19000.00000	104.39443	-166.84610	104.39443
19050.00000	104.40586	-169.52382	104.40586
19100.00000	104.39957	-172.11457	104.39957
19150.00000	104.42451	-174.55247	104.42451
19200.00000	104.43226	-177.46274	104.43226
19250.00000	104.41512	-179.72203	104.41512
19300.00000	104.46109	-182.20055	104.46109
19350.00000	104.47458	-184.89942	104.47458
19400.00000	104.44709	-187.33332	104.44709
19450.00000	104.44235	-190.09401	104.44235
19500.00000	104.46485	-192.50083	104.46485
19550.00000	104.45935	-195.01411	104.45935
19600.00000	104.44435	-197.61179	104.44435
19650.00000	104.45336	-200.00189	104.45336
19700.00000	104.48230	-202.60999	104.48230
19750.00000	104.47862	-205.03921	104.47862
19800.00000	104.51175	-207.28769	104.51175
19850.00000	104.51296	-210.08114	104.51296
19900.00000	104.53114	-212.64496	104.53114
19950.00000	104.50399	-214.93775	104.50399
20000.00000	104.50131	-217.80697	104.50131
20050.00000	104.50969	-220.26213	104.50969
20100.00000	104.53017	-222.61502	104.53017
20150.00000	104.52566	-225.39695	104.52566
20200.00000	104.57392	-228.04381	104.57392
20250.00000	104.56996	-230.35204	104.56996
20300.00000	104.57431	-232.93938	104.57431
20350.00000	104.56088	-235.52024	104.56088
20400.00000	104.55944	-238.04584	104.55944
20450.00000	104.56276	-240.53404	104.56276
20500.00000	104.55488	-243.17539	104.55488
20550.00000	104.55186	-245.72607	104.55186
20600.00000	104.58207	-248.29860	104.58207
20650.00000	104.60374	-250.88931	104.60374
20700.00000	104.60868	-253.23704	104.60868
20750.00000	104.58669	-255.82930	104.58669
20800.00000	104.58188	-258.41521	104.58188
20850.00000	104.56683	-261.20742	104.56683
20900.00000	104.55612	-263.52888	104.55612
20950.00000	104.57250	-266.26471	104.57250
21000.00000	104.58712	-269.05279	104.58712
21050.00000	104.59213	-271.60021	104.59213
21100.00000	104.59615	-274.26721	104.59615
21150.00000	104.61019	-276.58132	104.61019
21200.00000	104.58274	-279.18712	104.58274
21250.00000	104.55295	-281.96411	104.55295
21300.00000	104.55479	-284.80469	104.55479
21350.00000	104.52399	-287.25780	104.52399
21400.00000	104.52812	-290.18508	104.52812
21450.00000	104.53460	-292.74181	104.53460
21500.00000	104.58022	-295.22954	104.58022
21550.00000	104.59415	-297.91236	104.59415
21600.00000	104.55316	-300.84338	104.55316
21650.00000	104.56813	-303.37304	104.56813
21700.00000	104.52246	-306.61716	104.52246
21750.00000	104.53239	-309.63215	104.53239
21800.00000	104.48308	-312.61573	104.48308
21850.00000	104.48566	-315.54334	104.48566
21900.00000	104.40429	-318.52863	104.40429
21950.00000	104.38809	-321.52359	104.38809
22000.00000	104.25193	-324.47367	104.25193
22050.00000	104.20616	-326.83311	104.20616
22100.00000	104.13510	-329.70076	104.13510
22150.00000	104.09078	-332.49303	104.09078
22200.00000	104.01026	-335.55866	104.01026
22250.00000	103.94163	-338.45871	103.94163
22300.00000	103.85782	-341.20648	103.85782
22350.00000	103.78126	-344.29824	103.78126
22400.00000	103.66899	-347.22369	103.66899
22450.00000	103.56234	-349.69957	103.56234
22500.00000	103.43312	-352.95185	103.43312
22550.00000	103.37807	-355.32896	103.37807
22600.00000	103.19784	-358.07181	103.19784
22650.00000	103.12165	-360.51470	103.12165
22700.00000	102.94093	-363.37259	102.94093
22750.00000	102.82129	-365.97782	102.82129
22800.00000	102.69196	-368.67491	102.69196
22850.00000	102.55233	-371.25882	102.55233
22900.00000	102.45847	-373.59568	102.45847
22950.00000	102.36451	-376.29090	102.36451
23000.00000	102.20802	-378.66359	102.20802
23050.00000	102.05154	-381.06479	102.05154
23100.00000	101.90145	-383.56148	101.90145
23150.00000	101.74817	-385.85990	101.74817
23200.00000	101.60709	-388.55762	101.60709
23250.00000	101.53132	-391.05820	101.53132
23300.00000	101.41691	-393.70843	101.41691
23350.00000	101.21259	-395.70339	101.21259
23400.00000	101.10416	-397.74853	101.10416
23450.00000	100.95052	-400.13911	100.95052
23500.00000	100.82858	-402.13380	100.82858
23550.00000	100.61220	-404.29449	100.61220
23600.00000	100.54322	-406.80898	100.54322
23650.00000	100.29159	-408.54742	100.29159
23700.00000	100.21135	-410.41372	100.21135
23750.00000	100.08640	-412.59552	100.08640
23800.00000	99.95391	-415.07004	99.95391
23850.00000	99.82008	-416.87019	99.82008
23900.00000	99.66635	-419.26294	99.66635
23950.00000	99.55439	-420.98846	99.55439
24000.00000	99.43353	-423.37014	99.43353
24050.00000	99.26986	-425.20638	99.26986
24100.00000	99.14183	-427.35409	99.14183
24150.00000	99.00833	-429.10831	99.00833
24200.00000	98.89156	-431.93926	98.89156
24250.00000	98.77860	-433.67082	98.77860
24300.00000	98.63563	-435.75152	98.63563
24350.00000	98.49726	-437.32356	98.49726
24400.00000	98.37229	-439.53742	98.37229
24450.00000	98.19521	-440.73861	98.19521
24500.00000	98.01979	-443.39099	98.01979
24550.00000	97.90962	-445.67575	97.90962
24600.00000	97.76870	-447.90314	97.76870
24650.00000	97.59717	-449.53176	97.59717
24700.00000	97.42357	-451.78366	97.42357
24750.00000	97.29376	-453.81319	97.29376
24800.00000	97.05421	-454.86427	97.05421
24850.00000	96.93490	-456.58820	96.93490
24900.00000	96.72731	-458.18649	96.72731
24950.00000	96.63282	-460.08139	96.63282
25000.00000	96.46422	-461.70985	96.46422
25050.00000	96.31413	-462.76736	96.31413
25100.00000	96.18828	-463.72156	96.18828
25150.00000	96.01230	-465.18652	96.01230
25200.00000	95.86072	-466.27770	95.86072
25250.00000	95.68238	-468.14332	95.68238
25300.00000	95.52815	-469.43611	95.52815
25350.00000	95.46782	-470.91954	95.46782
25400.00000	95.40985	-472.59859	95.40985
25450.00000	95.25491	-474.07598	95.25491
25500.00000	95.17347	-474.75561	95.17347
25550.00000	95.03069	-476.15858	95.03069
25600.00000	94.99305	-476.93349	94.99305
25650.00000	94.86567	-478.40823	94.86567
25700.00000	94.86080	-479.75949	94.86080
25750.00000	94.81324	-481.34078	94.81324
25800.00000	94.73323	-482.03062	94.73323
25850.00000	94.73364	-483.90685	94.73364
25900.00000	94.57984	-485.28987	94.57984
25950.00000	94.60737	-486.50652	94.60737
26000.00000	94.56319	-487.65982	94.56319
26050.00000	94.61022	-489.37776	94.61022
26100.00000	94.58975	-491.02480	94.58975
26150.00000	94.49613	-493.24031	94.49613
26200.00000	94.46107	-494.51460	94.46107
26250.00000	94.47639	-496.29242	94.47639
26300.00000	94.34348	-498.15899	94.34348
26350.00000	94.41875	-499.81149	94.41875
26400.00000	94.39206	-502.04437	94.39206
26450.00000	94.28984	-504.43234	94.28984
26500.00000	94.22670	-505.96410	94.22670
26550.00000	94.20064	-507.14199	94.20064
26600.00000	94.13074	-509.49179	94.13074
26650.00000	94.08052	-511.89215	94.08052
26700.00000	93.93992	-513.72500	93.93992
26750.00000	93.82726	-515.71077	93.82726
26800.00000	93.73154	-517.65055	93.73154
26850.00000	93.64392	-519.22563	93.64392
26900.00000	93.50514	-521.98174	93.50514
26950.00000	93.34894	-523.64408	93.34894
27000.00000	93.22106	-525.57690	93.22106
27050.00000	93.12189	-527.22697	93.12189
27100.00000	93.00183	-529.54202	93.00183
27150.00000	92.77057	-531.19156	92.77057
27200.00000	92.66067	-533.46718	92.66067
27250.00000	92.39877	-534.78911	92.39877
27300.00000	92.25477	-536.62723	92.25477
27350.00000	92.05278	-538.26176	92.05278
27400.00000	91.84581	-539.56531	91.84581
27450.00000	91.83667	-541.30744	91.83667
27500.00000	91.45277	-542.92030	91.45277
27550.00000	91.31520	-544.03499	91.31520
27600.00000	91.08439	-545.35955	91.08439
27650.00000	90.84501	-546.70908	90.84501
27700.00000	90.64062	-548.48471	90.64062
27750.00000	90.45330	-548.86706	90.45330
27800.00000	90.14783	-549.90238	90.14783
27850.00000	89.91118	-551.48309	89.91118
27900.00000	89.73801	-552.13836	89.73801
27950.00000	89.50601	-552.54337	89.50601
28000.00000	89.29715	-552.70638	89.29715
28050.00000	89.11075	-553.00856	89.11075
28100.00000	88.80902	-553.47879	88.80902
28150.00000	88.65868	-553.96307	88.65868
28200.00000	88.50485	-553.65831	88.50485
28250.00000	88.21530	-554.01934	88.21530
28300.00000	88.06529	-554.40467	88.06529
28350.00000	88.01650	-553.38301	88.01650
28400.00000	87.77365	-553.46200	87.77365
28450.00000	87.64524	-553.61054	87.64524
28500.00000	87.56888	-553.28192	87.56888
28550.00000	87.48308	-553.33484	87.48308
28600.00000	87.50737	-552.51284	87.50737
28650.00000	87.36952	-552.12211	87.36952
28700.00000	87.18613	-551.83563	87.18613
28750.00000	87.31205	-551.06434	87.31205
28800.00000	87.15975	-551.18495	87.15975
28850.00000	87.19681	-550.88755	87.19681
28900.00000	87.24858	-550.35806	87.24858
28950.00000	87.28917	-549.22350	87.28917
29000.00000	87.39194	-549.26576	87.39194
29050.00000	87.38596	-548.56806	87.38596
29100.00000	87.45289	-548.21365	87.45289
29150.00000	87.43586	-548.81362	87.43586
29200.00000	87.73515	-547.72329	87.73515
29250.00000	87.68498	-547.53534	87.68498
29300.00000	87.83687	-546.97660	87.83687
29350.00000	87.92076	-546.63531	87.92076
29400.00000	88.11680	-546.44265	88.11680
29450.00000	88.35996	-546.24956	88.35996
29500.00000	88.50320	-546.75325	88.50320
29550.00000	88.75622	-546.22434	88.75622
29600.00000	88.95938	-546.14722	88.95938
29650.00000	89.16384	-546.64136	89.16384
29700.00000	89.35036	-546.62949	89.35036
29750.00000	89.56117	-546.79729	89.56117
29800.00000	89.71914	-547.48036	89.71914
29850.00000	90.01793	-547.92386	90.01793
29900.00000	90.18558	-548.79703	90.18558
29950.00000	90.36619	-548.72523	90.36619
30000.00000	90.57107	-549.31826	90.57107
30050.00000	90.80936	-549.01889	90.80936
30100.00000	91.09137	-550.65168	91.09137
30150.00000	91.27723	-551.09697	91.27723
30200.00000	91.50350	-551.61295	91.50350
30250.00000	91.80103	-552.34108	91.80103
30300.00000	92.08311	-553.16839	92.08311
30350.00000	92.33984	-553.75847	92.33984
30400.00000	92.61747	-554.76393	92.61747
30450.00000	92.84224	-555.94550	92.84224
30500.00000	93.08590	-557.32090	93.08590
30550.00000	93.31894	-557.97165	93.31894
30600.00000	93.61080	-559.43805	93.61080
30650.00000	93.86828	-560.14065	93.86828
30700.00000	94.11245	-561.70617	94.11245
30750.00000	94.36392	-562.90772	94.36392
30800.00000	94.55430	-564.08057	94.55430
30850.00000	94.80814	-565.16959	94.80814
30900.00000	95.08043	-566.73611	95.08043
30950.00000	95.39687	-568.03028	95.39687
31000.00000	95.65340	-569.50265	95.65340
31050.00000	95.92262	-570.91604	95.92262
31100.00000	96.15724	-572.22049	96.15724
31150.00000	96.41362	-573.88567	96.41362
31200.00000	96.69989	-575.61179	96.69989
31250.00000	96.99856	-577.12444	96.99856
31300.00000	97.25085	-578.92230	97.25085
31350.00000	97.49798	-580.38777	97.49798
31400.00000	97.80998	-582.16987	97.80998
31450.00000	98.04397	-583.86920	98.04397
31500.00000	98.27145	-585.66280	98.27145
31550.00000	98.57058	-587.75431	98.57058
31600.00000	98.81325	-589.96706	98.81325
31650.00000	99.08602	-592.15588	99.08602
31700.00000	99.32710	-594.11635	99.32710
31750.00000	99.55282	-596.42495	99.55282
31800.00000	99.79295	-598.52977	99.79295
31850.00000	99.98880	-600.60284	99.98880
31900.00000	100.20161	-602.74599	100.20161
31950.00000	100.46460	-605.21409	100.46460
32000.00000	100.64533	-607.49042	100.64533
32050.00000	100.86846	-609.77785	100.86846
32100.00000	101.04831	-612.13168	101.04831
32150.00000	101.25281	-614.52040	101.25281
32200.00000	101.42497	-616.81335	101.42497
32250.00000	101.61019	-619.35370	101.61019
32300.00000	101.74671	-621.38531	101.74671
32350.00000	101.91635	-623.85734	101.91635
32400.00000	102.04163	-626.29439	102.04163
32450.00000	102.25022	-628.51702	102.25022
32500.00000	102.36181	-630.95990	102.36181
32550.00000	102.50275	-633.04788	102.50275
32600.00000	102.63054	-635.44151	102.63054
32650.00000	102.78516	-637.75257	102.78516
32700.00000	102.88247	-640.00343	102.88247
32750.00000	103.01282	-641.98407	103.01282
32800.00000	103.15833	-644.07528	103.15833
32850.00000	103.29281	-646.43436	103.29281
32900.00000	103.36849	-648.46081	103.36849
32950.00000	103.53288	-650.26701	103.53288
33000.00000	103.66522	-652.52962	103.66522
33050.00000	103.77246	-654.58535	103.77246
33100.00000	103.91302	-656.55302	103.91302
33150.00000	104.05496	-658.25873	104.05496
33200.00000	104.16058	-660.17979	104.16058
33250.00000	104.28536	-662.02271	104.28536
33300.00000	104.47128	-663.82552	104.47128
33350.00000	104.65080	-665.78558	104.65080
33400.00000	104.80509	-668.07887	104.80509
33450.00000	104.96010	-669.96323	104.96010
33500.00000	105.15571	-671.60392	105.15571
33550.00000	105.30612	-673.73313	105.30612
33600.00000	105.48945	-675.46206	105.48945
33650.00000	105.67368	-677.62151	105.67368
33700.00000	105.83173	-679.57674	105.83173
33750.00000	106.03008	-681.72102	106.03008
33800.00000	106.21488	-683.75727	106.21488
33850.00000	106.40226	-685.90012	106.40226
33900.00000	106.59217	-688.07211	106.59217
33950.00000	106.80742	-690.13494	106.80742
34000.00000	107.02398	-692.34398	107.02398
34050.00000	107.20073	-694.41108	107.20073
34100.00000	107.41851	-696.69588	107.41851
34150.00000	107.61887	-699.00528	107.61887
34200.00000	107.80990	-701.21445	107.80990
34250.00000	108.02583	-703.56999	108.02583
34300.00000	108.23294	-706.03423	108.23294
34350.00000	108.44367	-708.38377	108.44367
34400.00000	108.65546	-710.71621	108.65546
34450.00000	108.83561	-713.31393	108.83561
34500.00000	109.03708	-715.57762	109.03708
34550.00000	109.26838	-718.10806	109.26838
34600.00000	109.48796	-720.67455	109.48796
34650.00000	109.70741	-723.31832	109.70741
34700.00000	109.90627	-725.83299	109.90627
34750.00000	110.13930	-728.73146	110.13930
34800.00000	110.36369	-731.36339	110.36369
34850.00000	110.60074	-734.30466	110.60074
34900.00000	110.80991	-737.36587	110.80991
34950.00000	111.04383	-740.59630	111.04383
35000.00000	111.19794	-743.90963	111.19794
35050.00000	111.33814	-747.36000	111.33814
35100.00000	111.39753	-750.67992	111.39753
35150.00000	111.45179	-753.33816	111.45179
35200.00000	111.55574	-755.69116	111.55574
35250.00000	111.72160	-757.95757	111.72160
35300.00000	111.91150	-760.49650	111.91150
35350.00000	112.13326	-763.34138	112.13326
35400.00000	112.35859	-766.39802	112.35859
35450.00000	112.55142	-769.62949	112.55142
35500.00000	112.72837	-772.89666	112.72837
35550.00000	112.86950	-776.26630	112.86950
35600.00000	113.02644	-779.56626	113.02644
35650.00000	113.16515	-782.99799	113.16515
35700.00000	113.27694	-786.47685	113.27694
35750.00000	113.38106	-789.87860	113.38106
35800.00000	113.48147	-793.32466	113.48147
35850.00000	113.56959	-796.77865	113.56959
35900.00000	113.62832	-800.12651	113.62832
35950.00000	113.68823	-803.52768	113.68823
36000.00000	113.74436	-806.69066	113.74436
36050.00000	113.77293	-810.19803	113.77293
36100.00000	113.80318	-813.39737	113.80318
36150.00000	113.81949	-816.79216	113.81949
36200.00000	113.84839	-819.91397	113.84839
36250.00000	113.83945	-823.03928	113.83945
36300.00000	113.84919	-826.15996	113.84919
36350.00000	113.85219	-829.26024	113.85219
36400.00000	113.84519	-832.30416	113.84519
36450.00000	113.82090	-835.23032	113.82090
36500.00000	113.81159	-838.06619	113.81159
36550.00000	113.79227	-840.96518	113.79227
36600.00000	113.76100	-843.78793	113.76100
36650.00000	113.73522	-846.47938	113.73522
36700.00000	113.73022	-849.06173	113.73022
36750.00000	113.69189	-851.71578	113.69189
36800.00000	113.68132	-854.35698	113.68132
36850.00000	113.64434	-856.87885	113.64434
36900.00000	113.63025	-859.27460	113.63025
36950.00000	113.57941	-861.77064	113.57941
37000.00000	113.56709	-864.05911	113.56709
37050.00000	113.53407	-866.21643	113.53407
37100.00000	113.50375	-868.50691	113.50375
37150.00000	113.48932	-870.58085	113.48932
37200.00000	113.45943	-872.51915	113.45943
37250.00000	113.44685	-874.51690	113.44685
37300.00000	113.42013	-876.27667	113.42013
37350.00000	113.41677	-877.92595	113.41677
37400.00000	113.43594	-879.52395	113.43594
37450.00000	113.46368	-880.84860	113.46368
37500.00000	113.50480	-881.99060	113.50480
37550.00000	113.58257	-883.18447	113.58257
37600.00000	113.70844	-884.16247	113.70844
37650.00000	113.88602	-885.04584	113.88602
37700.00000	114.10419	-885.79977	114.10419
37750.00000	114.41051	-886.87340	114.41051
37800.00000	114.73709	-888.17312	114.73709
37850.00000	115.13284	-889.51704	115.13284
37900.00000	115.58014	-891.40971	115.58014
37950.00000	116.00870	-893.72654	116.00870
38000.00000	116.48268	-896.38232	116.48268
38050.00000	116.93046	-899.68174	116.93046
38100.00000	117.34683	-903.17770	117.34683
38150.00000	117.76494	-907.00878	117.76494
38200.00000	118.12214	-911.20812	118.12214
38250.00000	118.43437	-915.41003	118.43437
38300.00000	118.74295	-919.73797	118.74295
38350.00000	119.01944	-924.35468	119.01944
38400.00000	119.25054	-928.94249	119.25054
38450.00000	119.44990	-933.61715	119.44990
38500.00000	119.62537	-938.15187	119.62537
38550.00000	119.78590	-942.85078	119.78590
38600.00000	119.92683	-947.50299	119.92683
38650.00000	120.04140	-952.23065	120.04140
38700.00000	120.12646	-956.97388	120.12646
38750.00000	120.19824	-961.62515	120.19824
38800.00000	120.23680	-966.25836	120.23680
38850.00000	120.27804	-970.81622	120.27804
38900.00000	120.30768	-975.37700	120.30768
38950.00000	120.31498	-979.90500	120.31498
39000.00000	120.31662	-984.47317	120.31662
39050.00000	120.30152	-989.06495	120.30152
39100.00000	120.26673	-993.69690	120.26673
39150.00000	120.21562	-998.16873	120.21562
39200.00000	120.14421	-1002.64001	120.14421
39250.00000	120.07754	-1007.01158	120.07754
39300.00000	119.96294	-1011.35447	119.96294
39350.00000	119.86922	-1015.53266	119.86922
39400.00000	119.78751	-1019.78267	119.78751
39450.00000	119.70139	-1024.01918	119.70139
39500.00000	119.59264	-1028.28892	119.59264
39550.00000	119.48192	-1032.51202	119.48192
39600.00000	119.35693	-1036.92701	119.35693
39650.00000	119.20614	-1041.30247	119.20614
39700.00000	119.03560	-1045.58353	119.03560
39750.00000	118.84189	-1049.85169	118.84189
39800.00000	118.62100	-1054.04219	118.62100
39850.00000	118.39714	-1058.15144	118.39714
39900.00000	118.13013	-1062.15523	118.13013
39950.00000	117.86912	-1065.95144	117.86912
40000.00000	117.61478	-1069.66958	117.61478
40050.00000	117.33861	-1073.35804	117.33861
40100.00000	117.06970	-1076.92293	117.06970
40150.00000	116.78037	-1080.34666	116.78037
40200.00000	116.48206	-1083.69750	116.48206
40250.00000	116.18060	-1087.00221	116.18060
40300.00000	115.86825	-1090.05513	115.86825
40350.00000	115.56740	-1093.02666	115.56740
40400.00000	115.25335	-1095.96589	115.25335
40450.00000	114.93576	-1098.77723	114.93576
40500.00000	114.62449	-1101.42875	114.62449
40550.00000	114.29710	-1104.03394	114.29710
40600.00000	113.98579	-1106.41975	113.98579
40650.00000	113.67134	-1108.81819	113.67134
40700.00000	113.34953	-1111.05263	113.34953
40750.00000	113.04520	-1113.19778	113.04520
40800.00000	112.73882	-1115.21817	112.73882
40850.00000	112.41884	-1117.00609	112.41884
40900.00000	112.12293	-1118.79882	112.12293
40950.00000	111.83830	-1120.48421	111.83830
41000.00000	111.56505	-1121.93014	111.56505
41050.00000	111.29266	-1123.36492	111.29266
41100.00000	111.03671	-1124.55465	111.03671
41150.00000	110.83044	-1125.79088	110.83044
41200.00000	110.59328	-1127.07685	110.59328
41250.00000	110.41053	-1127.86051	110.41053
41300.00000	110.21421	-1128.94845	110.21421
41350.00000	110.05884	-1129.67276	110.05884
41400.00000	109.92404	-1130.71087	109.92404
41450.00000	109.80595	-1131.57761	109.80595
41500.00000	109.69977	-1132.24759	109.69977
41550.00000	109.60307	-1133.09897	109.60307
41600.00000	109.52321	-1134.07042	109.52321
41650.00000	109.50303	-1134.97187	109.50303
41700.00000	109.48605	-1135.71557	109.48605
41750.00000	109.48388	-1136.54491	109.48388
41800.00000	109.53179	-1137.49357	109.53179
41850.00000	109.59150	-1138.71568	109.59150
41900.00000	109.67685	-1140.12500	109.67685
41950.00000	109.74607	-1141.58283	109.74607
42000.00000	109.82768	-1143.27890	109.82768
42050.00000	109.92921	-1145.03034	109.92921
42100.00000	110.01204	-1146.87040	110.01204
42150.00000	110.09131	-1149.02892	110.09131
42200.00000	110.13374	-1151.23794	110.13374
42250.00000	110.20954	-1153.30195	110.20954
42300.00000	110.25056	-1155.61079	110.25056
42350.00000	110.28419	-1158.04892	110.28419
42400.00000	110.28145	-1160.47271	110.28145
42450.00000	110.27295	-1162.75571	110.27295
42500.00000	110.23975	-1165.43614	110.23975
42550.00000	110.22052	-1167.65269	110.22052
42600.00000	110.14087	-1170.09737	110.14087
42650.00000	110.13374	-1172.31448	110.13374
42700.00000	110.05672	-1174.45556	110.05672
42750.00000	110.01014	-1176.85776	110.01014
42800.00000	109.91799	-1179.06579	109.91799
42850.00000	109.86047	-1181.02364	109.86047
42900.00000	109.81134	-1183.23284	109.81134
42950.00000	109.73349	-1185.05524	109.73349
43000.00000	109.68067	-1186.98725	109.68067
43050.00000	109.62658	-1188.81984	109.62658
43100.00000	109.57906	-1190.93439	109.57906
43150.00000	109.52939	-1192.45675	109.52939
43200.00000	109.47011	-1194.29291	109.47011
43250.00000	109.46770	-1195.84406	109.46770
43300.00000	109.44809	-1197.30879	109.44809
43350.00000	109.38310	-1199.25783	109.38310
43400.00000	109.37488	-1200.64789	109.37488
43450.00000	109.35597	-1202.35653	109.35597
43500.00000	109.29894	-1204.25934	109.29894
43550.00000	109.31419	-1205.90264	109.31419
43600.00000	109.26387	-1207.59120	109.26387
43650.00000	109.30725	-1209.60505	109.30725
43700.00000	109.27628	-1211.16207	109.27628
43750.00000	109.28325	-1212.97695	109.28325
43800.00000	109.26579	-1215.24615	109.26579
43850.00000	109.28574	-1217.09272	109.28574
43900.00000	109.26069	-1218.82773	109.26069
43950.00000	109.31389	-1220.60912	109.31389
44000.00000	109.27506	-1222.43157	109.27506
44050.00000	109.36021	-1224.09442	109.36021
44100.00000	109.32853	-1225.57531	109.32853
44150.00000	109.35146	-1227.00043	109.35146
44200.00000	109.37727	-1228.88065	109.37727
44250.00000	109.38795	-1230.42696	109.38795
44300.00000	109.38277	-1232.45276	109.38277
44350.00000	109.42358	-1233.68831	109.42358
44400.00000	109.49171	-1235.04383	109.49171
44450.00000	109.51074	-1236.42413	109.51074
44500.00000	109.58015	-1238.13979	109.58015
44550.00000	109.56311	-1239.17033	109.56311
44600.00000	109.65207	-1240.87469	109.65207
44650.00000	109.72225	-1242.53276	109.72225
44700.00000	109.81100	-1243.91509	109.81100
44750.00000	109.91628	-1245.49994	109.91628
44800.00000	109.96652	-1246.93175	109.96652
44850.00000	110.10802	-1248.66594	110.10802
44900.00000	110.20998	-1250.74526	110.20998
44950.00000	110.34603	-1252.35065	110.34603
45000.00000	110.49806	-1253.90998	110.49806
45050.00000	110.65878	-1255.94980	110.65878
45100.00000	110.81207	-1257.48086	110.81207
45150.00000	110.99529	-1259.52790	110.99529
45200.00000	111.17368	-1261.45782	111.17368
45250.00000	111.39475	-1263.22603	111.39475
45300.00000	111.56664	-1265.46332	111.56664
45350.00000	111.73982	-1267.24505	111.73982
45400.00000	111.96088	-1269.56009	111.96088
45450.00000	112.19073	-1271.89727	112.19073
45500.00000	112.38243	-1273.87803	112.38243
45550.00000	112.66313	-1276.15007	112.66313
45600.00000	112.88058	-1278.62563	112.88058
45650.00000	113.15959	-1281.36748	113.15959
45700.00000	113.38477	-1284.27895	113.38477
45750.00000	113.66818	-1287.21250	113.66818
45800.00000	113.92743	-1290.52802	113.92743
45850.00000	114.17583	-1294.18152	114.17583
45900.00000	114.35279	-1297.99415	114.35279
45950.00000	114.53968	-1302.17920	114.53968
46000.00000	114.71785	-1305.96539	114.71785
46050.00000	114.90731	-1309.81069	114.90731
46100.00000	115.02052	-1314.07614	115.02052
46150.00000	115.11057	-1318.05523	115.11057
46200.00000	115.18089	-1322.46851	115.18089
46250.00000	115.22270	-1326.31668	115.22270
46300.00000	115.25667	-1330.43578	115.25667
46350.00000	115.28077	-1334.66067	115.28077
46400.00000	115.21278	-1338.65106	115.21278
46450.00000	115.19336	-1342.67633	115.19336
46500.00000	115.13527	-1346.57404	115.13527
46550.00000	115.05496	-1350.29421	115.05496
46600.00000	114.97922	-1354.05937	114.97922
46650.00000	114.86212	-1357.58108	114.86212
46700.00000	114.77768	-1361.22325	114.77768
46750.00000	114.67503	-1364.51197	114.67503
46800.00000	114.60338	-1367.99402	114.60338
46850.00000	114.49419	-1371.56488	114.49419
46900.00000	114.42618	-1374.80578	114.42618
46950.00000	114.29909	-1378.11841	114.29909
47000.00000	114.16747	-1381.65506	114.16747
47050.00000	114.04459	-1385.01692	114.04459
47100.00000	113.98759	-1387.75299	113.98759
47150.00000	113.82360	-1390.96343	113.82360
47200.00000	113.67423	-1394.06626	113.67423
47250.00000	113.54128	-1396.95814	113.54128
47300.00000	113.48936	-1400.10152	113.48936
47350.00000	113.39586	-1402.74151	113.39586
47400.00000	113.25943	-1405.52311	113.25943
47450.00000	113.16100	-1408.34768	113.16100
47500.00000	113.05911	-1410.84397	113.05911
47550.00000	112.92149	-1413.76630	112.92149
47600.00000	112.84592	-1416.57362	112.84592
47650.00000	112.76058	-1419.40772	112.76058
47700.00000	112.62955	-1422.30260	112.62955
47750.00000	112.52247	-1425.08829	112.52247
47800.00000	112.42647	-1427.73612	112.42647
47850.00000	112.37401	-1430.38789	112.37401
47900.00000	112.26949	-1432.96414	112.26949
47950.00000	112.24302	-1435.80488	112.24302
48000.00000	112.15289	-1438.80925	112.15289
48050.00000	112.13923	-1441.26242	112.13923
48100.00000	112.04814	-1444.66130	112.04814
48150.00000	112.05821	-1447.22014	112.05821
48200.00000	111.95110	-1450.49013	111.95110
48250.00000	111.91068	-1453.33108	111.91068
48300.00000	111.87964	-1456.37896	111.87964
48350.00000	111.84425	-1459.32640	111.84425
48400.00000	111.69511	-1463.06350	111.69511
48450.00000	111.64323	-1466.35741	111.64323
48500.00000	111.51917	-1469.49629	111.51917
48550.00000	111.41894	-1472.74882	111.41894
48600.00000	111.27162	-1477.00792	111.27162
48650.00000	111.21058	-1480.05923	111.21058
48700.00000	110.99064	-1483.28399	110.99064
48750.00000	110.91722	-1487.40818	110.91722
48800.00000	110.60289	-1490.72015	110.60289
48850.00000	110.36237	-1495.06267	110.36237
48900.00000	110.28165	-1138.38086	110.28165
48950.00000	109.83801	-1141.72379	109.83801
49000.00000	109.63793	-785.43835	109.63793
49050.00000	109.32801	-788.84137	109.32801
49100.00000	108.98155	-431.61147	108.98155
49150.00000	108.63384	-75.11978	108.63384
49200.00000	108.13859	282.74267	108.13859
49250.00000	107.79279	280.51389	107.79279
49300.00000	107.45330	279.05713	107.45330
49350.00000	107.00258	636.88876	107.00258
49400.00000	106.54527	994.10002	106.54527
49450.00000	106.28579	993.29635	106.28579
49500.00000	105.90241	1352.41629	105.90241
49550.00000	105.53808	1710.80389	105.53808
49600.00000	105.33535	2069.63731	105.33535
49650.00000	105.08463	2427.44327	105.08463
49700.00000	104.64056	2787.46945	104.64056
49750.00000	104.40442	3146.80770	104.40442
49800.00000	104.14023	3146.50115	104.14023
49850.00000	103.99801	3864.33700	103.99801
49900.00000	103.89522	3863.92915	103.89522
49950.00000	103.65029	4224.08435	103.65029
50000.00000	103.57622	4222.77313	103.57622
50050.00000	103.45441	4222.80250	103.45441
50100.00000	103.20704	4221.85032	103.20704
50150.00000	103.27905	4221.21498	103.27905
50200.00000	103.17329	4219.60562	103.17329
50250.00000	103.08683	4219.64944	103.08683
50300.00000	103.07759	4218.86377	103.07759
50350.00000	103.00489	4218.39220	103.00489
50400.00000	103.18591	4216.80793	103.18591
50450.00000	102.99890	4216.28095	102.99890
50500.00000	103.00982	4215.74390	103.00982
50550.00000	102.96493	4214.42659	102.96493
50600.00000	103.06019	4212.25619	103.06019
50650.00000	103.09023	4211.63217	103.09023
50700.00000	102.93594	4208.86007	102.93594
50750.00000	102.98521	4207.74473	102.98521
50800.00000	103.01074	4205.92914	103.01074
50850.00000	103.02255	4204.81642	103.02255
50900.00000	102.90065	4202.75834	102.90065
50950.00000	102.93527	4201.01577	102.93527
51000.00000	103.15256	4198.97383	103.15256
51050.00000	103.05823	4197.85168	103.05823
51100.00000	103.05012	4195.58527	103.05012
51150.00000	103.04945	4193.02835	103.04945
51200.00000	102.96933	4191.71872	102.96933
51250.00000	102.94093	4190.04622	102.94093
51300.00000	102.89456	4186.85729	102.89456
51350.00000	102.96739	4186.46039	102.96739
51400.00000	102.91178	4182.69541	102.91178
51450.00000	102.71327	4181.91407	102.71327
51500.00000	102.79574	4179.73102	102.79574
51550.00000	102.59191	4177.33021	102.59191
51600.00000	102.57890	4175.68607	102.57890
51650.00000	102.28678	4173.57693	102.28678
51700.00000	102.30695	4171.28279	102.30695
51750.00000	102.06720	4170.16781	102.06720
51800.00000	102.07528	4168.38252	102.07528
51850.00000	101.98710	4165.37648	101.98710
51900.00000	101.78721	4164.11292	101.78721
51950.00000	101.53572	4163.44881	101.53572
52000.00000	101.30346	4161.34596	101.30346
52050.00000	101.34350	4160.21993	101.34350
52100.00000	101.05025	4160.43150	101.05025
52150.00000	100.84719	4158.80902	100.84719
52200.00000	100.75307	4158.67081	100.75307
52250.00000	100.85308	4157.97439	100.85308
52300.00000	100.33737	4159.12796	100.33737
52350.00000	100.60443	4157.66561	100.60443
52400.00000	100.55708	4156.45612	100.55708
52450.00000	100.45535	4155.76364	100.45535
52500.00000	100.49744	4155.57742	100.49744
52550.00000	100.60098	4155.70693	100.60098
52600.00000	100.45452	4154.23926	100.45452
52650.00000	100.75974	4154.17681	100.75974
52700.00000	100.82933	4153.82669	100.82933
52750.00000	100.77446	4153.09581	100.77446
52800.00000	101.16116	4152.13444	101.16116
52850.00000	100.97163	4152.07844	100.97163
52900.00000	101.27820	4150.26100	101.27820
52950.00000	101.44346	4148.50328	101.44346
53000.00000	101.57771	4148.28091	101.57771
53050.00000	101.69689	4146.80563	101.69689
53100.00000	101.94333	4145.51728	101.94333
53150.00000	102.18034	4143.90362	102.18034
53200.00000	102.08237	4141.59248	102.08237
53250.00000	102.26318	4140.55848	102.26318
53300.00000	102.47576	4138.39722	102.47576
53350.00000	102.52954	4137.09957	102.52954
53400.00000	102.76892	4135.21334	102.76892
53450.00000	102.82677	4132.79769	102.82677
53500.00000	103.03422	4130.81876	103.03422
53550.00000	103.27198	4128.15829	103.27198
53600.00000	103.21732	4126.31057	103.21732
53650.00000	103.43705	4123.74757	103.43705
53700.00000	103.51312	4121.21417	103.51312
53750.00000	103.71376	4119.11505	103.71376
53800.00000	103.74723	4117.68206	103.74723
53850.00000	103.86697	4114.80769	103.86697
53900.00000	103.85213	4112.69275	103.85213
53950.00000	103.92609	4110.19154	103.92609
54000.00000	103.97643	4107.27736	103.97643
54050.00000	104.01958	4105.37323	104.01958
54100.00000	104.09199	4102.42250	104.09199
54150.00000	104.10464	4100.38018	104.10464
54200.00000	104.02735	4098.02378	104.02735
54250.00000	103.99999	4094.81459	103.99999
54300.00000	104.05666	4092.66025	104.05666
54350.00000	104.03187	4090.17833	104.03187
54400.00000	104.08553	4087.90159	104.08553
54450.00000	104.01308	4085.88581	104.01308
54500.00000	103.94186	4084.33732	103.94186
54550.00000	103.84684	4082.66888	103.84684
54600.00000	103.84824	4080.85868	103.84824
54650.00000	103.81449	4078.51020	103.81449
54700.00000	103.73631	4076.99161	103.73631
54750.00000	103.84621	4075.50916	103.84621
54800.00000	103.72797	4073.67475	103.72797
54850.00000	103.56910	4072.05729	103.56910
54900.00000	103.73133	4070.84876	103.73133
54950.00000	103.71068	4070.01134	103.71068
55000.00000	103.91799	4069.08734	103.91799
55050.00000	103.92707	4067.18549	103.92707
55100.00000	104.02403	4066.59415	104.02403
55150.00000	104.12233	4064.75008	104.12233
55200.00000	104.06891	4063.31772	104.06891
55250.00000	104.35936	4062.80625	104.35936
55300.00000	104.44614	4061.12738	104.44614
55350.00000	104.58785	4060.35492	104.58785
55400.00000	104.80196	4058.66917	104.80196
55450.00000	104.96351	4057.21475	104.96351
55500.00000	105.12003	4055.19384	105.12003
55550.00000	105.36374	4054.14047	105.36374
55600.00000	105.60254	4052.04311	105.60254
55650.00000	105.89673	4050.61229	105.89673
55700.00000	106.13595	4048.58074	106.13595
55750.00000	106.40986	4046.44921	106.40986
55800.00000	106.67441	4043.70998	106.67441
55850.00000	106.97371	4041.57847	106.97371
55900.00000	107.25040	4038.89888	107.25040
55950.00000	107.51268	4036.23928	107.51268
56000.00000	107.82088	4032.98787	107.82088
56050.00000	108.06334	4030.61246	108.06334
56100.00000	108.33070	4027.26190	108.33070
56150.00000	108.55669	4024.07435	108.55669
56200.00000	108.81126	4020.67503	108.81126
56250.00000	109.01339	4017.20670	109.01339
56300.00000	109.24770	4013.33159	109.24770
56350.00000	109.40124	4009.53928	109.40124
56400.00000	109.59274	4006.14473	109.59274
56450.00000	109.74233	4002.26486	109.74233
56500.00000	109.92076	3998.50298	109.92076
56550.00000	110.03748	3994.30638	110.03748
56600.00000	110.11883	3990.32843	110.11883
56650.00000	110.26034	3986.23845	110.26034
56700.00000	110.31387	3982.40026	110.31387
56750.00000	110.37606	3978.30242	110.37606
56800.00000	110.37611	3974.21385	110.37611
56850.00000	110.43845	3970.16791	110.43845
56900.00000	110.44911	3966.04594	110.44911
56950.00000	110.48643	3962.01010	110.48643
57000.00000	110.44892	3957.92055	110.44892
57050.00000	110.38136	3954.09568	110.38136
57100.00000	110.32910	3949.93738	110.32910
57150.00000	110.21505	3945.88545	110.21505
57200.00000	110.12533	3942.22517	110.12533
57250.00000	110.04054	3938.29837	110.04054
57300.00000	109.91293	3934.52518	109.91293
57350.00000	109.78820	3930.68843	109.78820
57400.00000	109.66453	3927.48681	109.66453
57450.00000	109.45765	3923.84559	109.45765
57500.00000	109.25316	3920.33788	109.25316
57550.00000	109.10347	3916.87803	109.10347
57600.00000	108.92237	3914.19034	108.92237
57650.00000	108.68947	3910.97216	108.68947
57700.00000	108.47475	3908.32702	108.47475
57750.00000	108.31291	3905.50755	108.31291
57800.00000	108.08681	3903.01051	108.08681
57850.00000	107.93364	3900.66686	107.93364
57900.00000	107.72122	3898.50082	107.72122
57950.00000	107.57426	3896.28622	107.57426
58000.00000	107.44518	3894.63696	107.44518
58050.00000	107.37296	3892.71422	107.37296
58100.00000	107.31126	3890.65264	107.31126
58150.00000	107.19987	3889.17114	107.19987
58200.00000	107.20201	3886.78932	107.20201
58250.00000	107.19125	3884.67127	107.19125
58300.00000	107.20935	3882.11806	107.20935
58350.00000	107.18837	3879.72796	107.18837
58400.00000	107.17080	3877.13572	107.17080
58450.00000	107.14697	3874.56695	107.14697
58500.00000	107.07783	3872.02394	107.07783
58550.00000	107.03963	3869.29136	107.03963
58600.00000	106.99161	3866.69378	106.99161
58650.00000	106.92056	3864.34438	106.92056
58700.00000	106.84676	3861.59900	106.84676
58750.00000	106.76969	3859.21953	106.76969
58800.00000	106.74304	3856.69244	106.74304
58850.00000	106.71453	3854.11217	106.71453
58900.00000	106.62778	3851.59163	106.62778
58950.00000	106.55262	3849.10462	106.55262
59000.00000	106.47079	3846.50124	106.47079
59050.00000	106.40312	3843.91119	106.40312
59100.00000	106.29242	3841.42672	106.29242
59150.00000	106.24398	3839.20866	106.24398
59200.00000	106.15028	3836.82159	106.15028
59250.00000	106.02399	3834.58525	106.02399
59300.00000	105.97493	3832.33343	105.97493
59350.00000	105.89112	3830.12673	105.89112
59400.00000	105.83652	3828.07819	105.83652
59450.00000	105.74973	3825.87121	105.74973
59500.00000	105.69427	3823.91521	105.69427
59550.00000	105.67995	3821.99129	105.67995
59600.00000	105.65926	3820.02855	105.65926
59650.00000	105.66171	3817.77242	105.66171
59700.00000	105.68216	3815.73996	105.68216
59750.00000	105.69895	3813.62551	105.69895
59800.00000	105.70021	3811.46534	105.70021
59850.00000	105.76023	3809.05443	105.76023
59900.00000	105.80469	3806.55278	105.80469
59950.00000	105.86629	3803.95710	105.86629
60000.00000	105.92466	3801.20852	105.92466
60050.00000	105.97279	3798.13806	105.97279
60100.00000	105.98439	3794.82219	105.98439
60150.00000	105.95926	3791.78651	105.95926
60200.00000	105.94871	3788.23577	105.94871
60250.00000	105.91361	3784.80313	105.91361
60300.00000	105.78951	3781.28319	105.78951
60350.00000	105.61411	3777.87918	105.61411
60400.00000	105.44299	3774.69992	105.44299
60450.00000	105.23476	3771.84310	105.23476
60500.00000	104.98478	3768.94326	104.98478
60550.00000	104.73963	3766.70953	104.73963
60600.00000	104.46701	3764.65526	104.46701
60650.00000	104.25700	3762.69390	104.25700
60700.00000	104.07632	3761.34223	104.07632
60750.00000	103.92393	3759.90871	103.92393
60800.00000	103.77765	3758.71993	103.77765
60850.00000	103.69901	3756.87690	103.69901
60900.00000	103.60940	3755.73477	103.60940
60950.00000	103.55282	3754.39052	103.55282
61000.00000	103.53157	3752.76019	103.53157
61050.00000	103.52783	3751.17789	103.52783
61100.00000	103.52335	3749.62510	103.52335
61150.00000	103.51805	3748.03461	103.51805
61200.00000	103.52918	3746.31377	103.52918
61250.00000	103.56424	3744.56237	103.56424
61300.00000	103.58167	3742.46563	103.58167
61350.00000	103.58228	3740.90243	103.58228
61400.00000	103.60655	3739.03232	103.60655
61450.00000	103.65472	3737.14250	103.65472
61500.00000	103.67216	3735.46852	103.67216
61550.00000	103.77211	3733.59124	103.77211
61600.00000	103.82940	3731.38364	103.82940
61650.00000	103.87098	3729.42932	103.87098
61700.00000	104.00903	3727.03269	104.00903
61750.00000	104.05184	3724.95709	104.05184
61800.00000	104.14371	3722.68480	104.14371
61850.00000	104.25840	3720.12038	104.25840
61900.00000	104.34160	3717.89376	104.34160
61950.00000	104.43198	3715.41252	104.43198
62000.00000	104.51040	3712.76609	104.51040
62050.00000	104.61283	3709.72294	104.61283
62100.00000	104.66834	3707.01292	104.66834
62150.00000	104.73637	3704.38705	104.73637
62200.00000	104.79206	3701.31334	104.79206
62250.00000	104.84433	3698.37895	104.84433
62300.00000	104.91947	3695.08199	104.91947
62350.00000	104.95156	3691.97579	104.95156
62400.00000	104.97018	3688.85167	104.97018
62450.00000	104.96659	3685.75975	104.96659
62500.00000	104.95256	3682.54286	104.95256
62550.00000	104.96844	3679.32962	104.96844
62600.00000	104.88784	3675.93171	104.88784
62650.00000	104.87086	3672.62805	104.87086
62700.00000	104.81822	3669.42248	104.81822
62750.00000	104.71510	3666.30088	104.71510
62800.00000	104.63494	3663.22745	104.63494
62850.00000	104.53807	3660.15456	104.53807
62900.00000	104.41194	3657.37687	104.41194
62950.00000	104.28534	3654.13269	104.28534
63000.00000	104.11534	3651.46586	104.11534
63050.00000	103.99189	3648.96425	103.99189
63100.00000	103.89228	3646.28450	103.89228
63150.00000	103.74328	3643.79348	103.74328
63200.00000	103.61142	3641.65751	103.61142
63250.00000	103.50580	3639.78782	103.50580
63300.00000	103.42506	3637.56331	103.42506
63350.00000	103.32800	3636.10889	103.32800
63400.00000	103.24434	3634.16281	103.24434
63450.00000	103.17890	3632.19893	103.17890
63500.00000	103.22770	3630.50189	103.22770
63550.00000	103.19038	3628.56301	103.19038
63600.00000	103.20311	3626.61970	103.20311
63650.00000	103.30502	3624.80808	103.30502
63700.00000	103.38639	3622.56575	103.38639
63750.00000	103.47741	3620.85004	103.47741
63800.00000	103.58646	3618.40390	103.58646
63850.00000	103.62170	3615.93427	103.62170
63900.00000	103.81639	3613.53001	103.81639
63950.00000	103.93276	3610.59856	103.93276
64000.00000	104.08435	3607.85592	104.08435
64050.00000	104.23593	3604.69936	104.23593
64100.00000	104.40889	3601.33840	104.40889
64150.00000	104.51875	3598.14527	104.51875
64200.00000	104.59148	3594.40194	104.59148
64250.00000	104.65764	3590.46861	104.65764
64300.00000	104.79328	3586.37410	104.79328
64350.00000	104.83009	3582.23003	104.83009
64400.00000	104.86497	3578.23034	104.86497
64450.00000	104.83987	3574.29140	104.83987
64500.00000	104.82316	3569.66271	104.82316
64550.00000	104.72242	3565.08944	104.72242
64600.00000	104.73314	3560.70460	104.73314
64650.00000	104.56565	3556.34987	104.56565
64700.00000	104.41800	3551.49476	104.41800
64750.00000	104.19359	3547.52617	104.19359
64800.00000	103.91734	3543.33045	103.91734
64850.00000	103.71551	3539.01702	103.71551
64900.00000	103.41898	3535.67350	103.41898
64950.00000	103.17330	3532.30319	103.17330
65000.00000	103.07610	3528.53708	103.07610
65050.00000	102.95240	3525.29843	102.95240
65100.00000	102.79462	3520.92632	102.79462
65150.00000	102.57701	3516.30611	102.57701
65200.00000	102.30545	3511.57312	102.30545
65250.00000	101.99049	3506.21556	101.99049
65300.00000	101.50290	3500.66607	101.50290
65350.00000	100.83749	3495.76498	100.83749
65400.00000	100.02164	3491.09673	100.02164
65450.00000	99.12983	3487.21210	99.12983
65500.00000	97.97130	3485.00788	97.97130
65550.00000	97.04034	3484.78367	97.04034
65600.00000	96.17049	3485.31244	96.17049
65650.00000	95.46281	3488.58974	95.46281
65700.00000	95.04345	3491.94304	95.04345
65750.00000	94.79140	3494.16858	94.79140
65800.00000	94.60602	3496.98085	94.60602
65850.00000	94.62010	3499.45817	94.62010
65900.00000	94.80199	3501.32442	94.80199
65950.00000	95.05391	3501.62097	95.05391
66000.00000	95.23794	3501.82485	95.23794
66050.00000	95.49679	3501.61286	95.49679
66100.00000	95.87272	3501.60326	95.87272
66150.00000	96.07187	3501.15309	96.07187
66200.00000	96.30189	3499.70892	96.30189
66250.00000	96.71389	3497.85880	96.71389
66300.00000	97.03007	3495.68926	97.03007
66350.00000	97.33353	3492.65439	97.33353
66400.00000	97.71529	3488.85810	97.71529
66450.00000	97.83801	3484.98188	97.83801
66500.00000	97.94960	3480.94671	97.94960
66550.00000	97.91522	3476.15648	97.91522
66600.00000	97.86589	3471.95808	97.86589
66650.00000	97.70767	3467.65410	97.70767
66700.00000	97.52923	3464.11561	97.52923
66750.00000	97.30137	3461.68062	97.30137
66800.00000	96.97198	3457.83710	96.97198
66850.00000	96.76440	3455.64382	96.76440
66900.00000	96.55554	3453.86626	96.55554
66950.00000	96.39404	3450.98627	96.39404
67000.00000	96.26599	3449.31095	96.26599
67050.00000	96.07289	3447.43515	96.07289
67100.00000	95.93453	3444.79830	95.93453
67150.00000	95.90766	3443.25859	95.90766
67200.00000	95.63727	3440.65362	95.63727
67250.00000	95.56492	3438.52217	95.56492
67300.00000	95.49918	3436.78204	95.49918
67350.00000	95.33649	3435.06151	95.33649
67400.00000	95.13416	3432.67644	95.13416
67450.00000	95.09521	3431.20992	95.09521
67500.00000	94.92472	3429.47812	94.92472
67550.00000	94.84811	3427.03620	94.84811
67600.00000	94.84410	3425.35660	94.84410
67650.00000	94.77107	3423.41704	94.77107
67700.00000	94.73456	3421.27450	94.73456
67750.00000	94.72909	3418.52194	94.72909
67800.00000	94.51451	3416.29981	94.51451
67850.00000	94.43003	3413.72922	94.43003
67900.00000	94.28932	3411.48661	94.28932
67950.00000	94.05050	3408.61671	94.05050
68000.00000	94.00165	3407.05609	94.00165
68050.00000	93.81408	3404.77797	93.81408
68100.00000	93.58277	3403.51671	93.58277
68150.00000	93.29332	3402.32771	93.29332
68200.00000	93.21315	3400.75493	93.21315
68250.00000	93.02342	3399.98545	93.02342
68300.00000	92.94246	3398.45596	92.94246
68350.00000	92.79500	3398.12933	92.79500
68400.00000	92.73520	3398.01357	92.73520
68450.00000	92.72556	3396.73880	92.72556
68500.00000	92.92040	3396.46733	92.92040
68550.00000	92.96668	3395.91551	92.96668
68600.00000	92.96553	3394.76001	92.96553
68650.00000	93.25423	3394.08026	93.25423
68700.00000	93.42699	3392.13202	93.42699
68750.00000	93.66044	3390.79742	93.66044
68800.00000	93.95946	3388.79981	93.95946
68850.00000	94.23590	3387.07020	94.23590
68900.00000	94.50742	3384.01883	94.50742
68950.00000	94.81388	3381.28531	94.81388
69000.00000	95.09421	3377.69140	95.09421
69050.00000	95.27679	3374.16348	95.27679
69100.00000	95.51918	3370.57462	95.51918
69150.00000	95.67140	3366.03254	95.67140
69200.00000	95.82605	3361.54463	95.82605
69250.00000	95.89634	3357.12802	95.89634
69300.00000	95.93711	3352.41502	95.93711
69350.00000	95.92188	3347.98096	95.92188
69400.00000	95.80957	3343.26012	95.80957
69450.00000	95.77938	3338.44274	95.77938
69500.00000	95.72620	3333.28555	95.72620
69550.00000	95.58830	3328.02119	95.58830
69600.00000	95.37533	3323.27452	95.37533
69650.00000	95.10700	3318.06867	95.10700
69700.00000	94.79547	3312.87954	94.79547
69750.00000	94.42270	3307.29212	94.42270
69800.00000	93.94689	3302.45052	93.94689
69850.00000	93.29474	3297.18571	93.29474
69900.00000	92.67577	3293.13255	92.67577
69950.00000	91.98862	3288.99196	91.98862
70000.00000	91.13058	3285.52038	91.13058
70050.00000	90.36059	3283.48417	90.36059
70100.00000	89.34328	3281.14414	89.34328
70150.00000	88.24651	3281.33089	88.24651
70200.00000	87.41346	3281.34408	87.41346
70250.00000	86.57891	3284.49854	86.57891
70300.00000	85.88117	3287.29753	85.88117
70350.00000	85.16080	3292.85380	85.16080
70400.00000	84.91395	3299.50657	84.91395
70450.00000	85.12205	3303.04320	85.12205
70500.00000	85.35120	3305.77535	85.35120
70550.00000	85.85696	3310.54138	85.85696
70600.00000	86.32851	3311.96558	86.32851
70650.00000	86.89427	3313.11280	86.89427
70700.00000	87.30770	3312.60639	87.30770
70750.00000	87.85184	3311.63991	87.85184
70800.00000	88.50323	3311.07038	88.50323
70850.00000	88.67463	3309.59015	88.67463
70900.00000	89.15752	3307.82168	89.15752
70950.00000	89.70570	3306.52784	89.70570
71000.00000	90.10278	3304.44815	90.10278
71050.00000	90.53221	3301.76672	90.53221
71100.00000	90.95251	3299.51661	90.95251
71150.00000	91.58345	3296.49159	91.58345
71200.00000	92.02434	3292.68089	92.02434
71250.00000	92.55974	3289.64328	92.55974
71300.00000	93.00244	3283.85143	93.00244
71350.00000	93.45882	3278.62241	93.45882
71400.00000	93.72099	3272.50556	93.72099
71450.00000	94.00384	3266.95901	94.00384
71500.00000	94.19511	3261.58184	94.19511
71550.00000	94.18086	3255.36715	94.18086
71600.00000	94.30768	3249.13235	94.30768
71650.00000	94.13369	3243.25173	94.13369
71700.00000	94.07217	3235.95656	94.07217
71750.00000	94.08535	3231.35223	94.08535
71800.00000	93.82986	3224.42551	93.82986
71850.00000	93.49334	3218.40456	93.49334
71900.00000	93.31002	3214.03184	93.31002
71950.00000	92.72829	3206.95628	92.72829
72000.00000	92.38562	3203.72826	92.38562
72050.00000	91.89731	3201.53243	91.89731
72100.00000	91.52667	3197.25374	91.52667
72150.00000	91.50053	3194.60906	91.50053
72200.00000	91.43972	3190.13306	91.43972
72250.00000	91.42829	3184.53411	91.42829
72300.00000	91.29722	3181.25467	91.29722
72350.00000	90.95729	3174.78893	90.95729
72400.00000	91.02996	3168.52478	91.02996
72450.00000	90.61967	3163.22560	90.61967
72500.00000	90.26760	3155.93070	90.26760
72550.00000	90.10603	3148.72440	90.10603
72600.00000	89.59090	3144.50416	89.59090
72650.00000	88.93534	3134.98188	88.93534
72700.00000	88.52740	3126.52475	88.52740
72750.00000	87.49900	3119.99620	87.49900
72800.00000	86.66963	3109.33121	86.66963
72850.00000	85.86242	3100.25562	85.86242
72900.00000	84.03697	3092.51636	84.03697
72950.00000	83.04537	3079.54188	83.04537
73000.00000	80.76489	3071.23734	80.76489
73050.00000	77.96886	3055.40329	77.96886
73100.00000	75.42074	3036.70721	75.42074
73150.00000	70.92422	3000.37612	70.92422
73200.00000	67.36950	2964.65183	67.36950
73250.00000	66.06455	2915.15824	66.06455
73300.00000	73.14478	2882.40496	73.14478
73350.00000	74.04574	2865.06340	74.04574
73400.00000	76.27667	2855.89270	76.27667
73450.00000	77.56348	2847.50357	77.56348
73500.00000	78.27052	2835.34355	78.27052
73550.00000	79.25020	2834.86321	79.25020
73600.00000	79.52358	2823.39154	79.52358
73650.00000	80.03398	2819.12093	80.03398
73700.00000	80.69178	2817.12621	80.69178
73750.00000	81.06713	2809.66907	81.06713
73800.00000	81.58566	2805.81618	81.58566
73850.00000	82.04833	2801.96037	82.04833
73900.00000	81.28552	2790.89062	81.28552
73950.00000	82.44293	2786.76193	82.44293
74000.00000	82.37417	2779.98013	82.37417
74050.00000	82.72141	2766.55983	82.72141
74100.00000	83.13413	2762.19310	83.13413
74150.00000	82.88026	2748.24301	82.88026
74200.00000	83.12266	2736.62463	83.12266
74250.00000	82.51372	2725.83201	82.51372
74300.00000	82.59602	2701.17670	82.59602
74350.00000	82.46169	2683.31356	82.46169
74400.00000	80.63370	2625.33907	80.63370
74450.00000	76.57581	2448.46744	76.57581
74500.00000	81.23236	2377.28665	81.23236
74550.00000	80.27250	2338.66542	80.27250
74600.00000	79.73797	2310.58295	79.73797
74650.00000	80.43111	2292.69856	80.43111
74700.00000	79.74335	2274.60439	79.74335
74750.00000	81.26283	2255.74186	81.26283
74800.00000	81.31378	2242.97878	81.31378
74850.00000	81.83604	2230.75412	81.83604
74900.00000	83.04535	2216.45522	83.04535
74950.00000	82.65824	2203.00791	82.65824
75000.00000	84.11880	2192.82091	84.11880
75050.00000	84.48257	2183.07705	84.48257
75100.00000	84.87516	2173.64966	84.87516
75150.00000	84.89635	2165.24110	84.89635
75200.00000	85.50819	2153.73474	85.50819
75250.00000	85.53231	2146.80712	85.53231
75300.00000	85.90146	2139.42270	85.90146
75350.00000	85.99874	2136.49735	85.99874
75400.00000	85.95670	2130.02790	85.95670
75450.00000	86.18069	2123.25319	86.18069
75500.00000	86.28563	2117.32558	86.28563
75550.00000	86.21847	2111.78907	86.21847
75600.00000	86.58527	2107.90341	86.58527
75650.00000	86.68226	2102.77273	86.68226
75700.00000	86.84528	2096.84425	86.84528
75750.00000	86.94434	2094.47007	86.94434
75800.00000	86.92925	2086.78059	86.92925
75850.00000	87.10078	2084.49152	87.10078
75900.00000	86.52454	2083.61345	86.52454
75950.00000	86.97175	2076.12040	86.97175
76000.00000	87.01095	2074.42775	87.01095
76050.00000	86.82630	2068.56143	86.82630
76100.00000	87.24597	2064.39128	87.24597
76150.00000	87.23453	2062.13000	87.23453
76200.00000	87.10990	2058.55465	87.10990
76250.00000	87.38356	2053.39958	87.38356
76300.00000	86.93964	2052.06345	86.93964
76350.00000	87.49854	2047.21644	87.49854
76400.00000	87.73978	2047.04686	87.73978
76450.00000	87.00260	2040.03172	87.00260
76500.00000	87.82504	2038.40075	87.82504
76550.00000	87.49559	2037.50978	87.49559
76600.00000	87.50581	2029.51439	87.50581
76650.00000	88.08173	2028.66855	88.08173
76700.00000	87.33191	2028.06438	87.33191
76750.00000	88.16667	2020.73146	88.16667
76800.00000	88.18487	2021.65063	88.18487
76850.00000	87.47999	2015.84246	87.47999
76900.00000	88.51989	2013.06819	88.51989
76950.00000	87.80541	2011.79070	87.80541
77000.00000	88.01610	2001.40076	88.01610
77050.00000	88.50169	2004.07452	88.50169
77100.00000	87.75215	1995.96508	87.75215
77150.00000	88.42563	1993.69296	88.42563
77200.00000	88.32229	1991.96993	88.32229
77250.00000	87.57029	1986.01194	87.57029
77300.00000	88.17067	1984.36981	88.17067
77350.00000	87.38337	1982.02069	87.38337
77400.00000	87.83632	1972.83219	87.83632
77450.00000	87.86199	1972.50098	87.86199
77500.00000	86.68047	1966.49095	86.68047
77550.00000	87.67505	1963.30989	87.67505
77600.00000	87.31434	1964.51752	87.31434
77650.00000	86.65373	1953.93575	86.65373
77700.00000	87.27005	1957.41598	87.27005
77750.00000	86.10843	1956.41674	86.10843
77800.00000	86.90519	1945.94673	86.90519
77850.00000	86.49555	1953.00456	86.49555
77900.00000	85.50791	1943.01752	85.50791
77950.00000	86.62547	1941.53555	86.62547
78000.00000	85.37691	1942.90835	85.37691
78050.00000	85.73953	1933.97736	85.73953
78100.00000	86.18463	1936.85896	86.18463
78150.00000	84.56025	1933.31553	84.56025
78200.00000	86.00231	1925.48369	86.00231
78250.00000	85.49597	1929.79269	85.49597
78300.00000	84.98107	1920.48413	84.98107
78350.00000	85.44254	1921.67949	85.44254
78400.00000	84.45199	1921.74763	84.45199
78450.00000	85.21424	1912.32410	85.21424
78500.00000	85.16224	1918.26219	85.16224
78550.00000	84.27649	1909.20489	84.27649
78600.00000	84.91422	1906.67518	84.91422
78650.00000	83.69806	1909.80850	83.69806
78700.00000	83.65633	1900.99847	83.65633
78750.00000	84.59054	1902.11360	84.59054
78800.00000	83.49314	1899.49046	83.49314
78850.00000	84.18207	1894.83878	84.18207
78900.00000	83.56332	1897.52645	83.56332
78950.00000	83.29776	1888.09258	83.29776
79000.00000	83.77225	1890.81187	83.77225
79050.00000	82.72612	1890.17074	82.72612
79100.00000	83.25032	1882.42348	83.25032
79150.00000	82.99234	1885.61281	82.99234
79200.00000	82.58633	1879.67033	82.58633
79250.00000	82.86424	1877.50768	82.86424
79300.00000	82.33065	1877.84870	82.33065
79350.00000	82.63445	1873.47612	82.63445
79400.00000	82.55553	1875.84097	82.55553
79450.00000	81.56666	1870.17034	81.56666
79500.00000	82.68743	1866.65672	82.68743
79550.00000	81.78090	1870.97156	81.78090
79600.00000	82.06527	1862.89075	82.06527
79650.00000	82.30698	1864.67424	82.30698
79700.00000	81.47837	1861.23810	81.47837
79750.00000	81.99970	1858.22681	81.99970
79800.00000	81.63524	1859.17273	81.63524
79850.00000	81.43519	1851.72987	81.43519
79900.00000	81.47408	1851.48615	81.47408
79950.00000	81.12147	1848.77891	81.12147
80000.00000	81.60829	1847.67903	81.60829
80050.00000	81.03506	1846.35283	81.03506
80100.00000	80.64211	1838.69569	80.64211
80150.00000	80.87713	1840.30460	80.87713
80200.00000	80.34974	1836.63946	80.34974
80250.00000	80.44742	1832.49049	80.44742
80300.00000	79.94949	1835.02339	79.94949
80350.00000	79.36533	1827.58661	79.36533
80400.00000	79.16142	1827.70732	79.16142
80450.00000	78.30706	1829.13345	78.30706
80500.00000	78.43340	1824.90847	78.43340
80550.00000	78.22019	1828.47062	78.22019
80600.00000	77.80546	1826.94845	77.80546
80650.00000	77.93412	1830.06811	77.93412
80700.00000	77.36797	1827.29056	77.36797
80750.00000	78.31518	1828.87929	78.31518
80800.00000	77.82918	1829.60758	77.82918
80850.00000	77.80314	1827.66979	77.80314
80900.00000	78.04044	1829.74758	78.04044
80950.00000	77.83118	1830.17918	77.83118
81000.00000	77.81973	1827.70205	77.81973
81050.00000	78.31102	1826.95335	78.31102
81100.00000	78.49457	1825.15321	78.49457
81150.00000	78.73594	1823.03458	78.73594
81200.00000	78.26887	1821.05886	78.26887
81250.00000	78.53320	1817.50288	78.53320
81300.00000	78.26743	1817.48051	78.26743
81350.00000	77.71587	1814.65833	77.71587
81400.00000	77.73874	1815.66177	77.73874
81450.00000	77.46982	1818.26812	77.46982
81500.00000	77.26739	1816.67271	77.26739
81550.00000	77.25109	1820.21167	77.25109
81600.00000	77.16435	1820.49043	77.16435
81650.00000	77.61753	1819.07575	77.61753
81700.00000	77.43048	1821.07935	77.43048
81750.00000	78.01405	1822.16072	78.01405
81800.00000	78.37199	1821.82494	78.37199
81850.00000	78.50001	1822.18475	78.50001
81900.00000	79.25361	1819.99115	79.25361
81950.00000	79.29867	1817.82623	79.29867
82000.00000	79.58395	1817.92609	79.58395
82050.00000	79.55539	1816.58078	79.55539
82100.00000	80.33475	1813.27798	80.33475
82150.00000	80.24574	1814.06946	80.24574
82200.00000	80.73253	1811.65256	80.73253
82250.00000	80.83035	1808.99180	80.83035
82300.00000	80.72066	1806.74409	80.72066
82350.00000	80.76453	1805.63337	80.76453
82400.00000	80.57598	1804.37161	80.57598
82450.00000	80.67460	1800.89458	80.67460
82500.00000	80.46819	1802.63738	80.46819
82550.00000	80.43229	1800.20022	80.43229
82600.00000	80.16657	1804.49498	80.16657
82650.00000	80.27191	1808.19017	80.27191
82700.00000	80.69263	1814.61849	80.69263
82750.00000	82.25569	1817.73812	82.25569
82800.00000	83.71379	1816.99407	83.71379
82850.00000	85.06867	1813.72247	85.06867
82900.00000	86.09114	1807.18100	86.09114
82950.00000	87.17160	1801.34257	87.17160
83000.00000	87.90475	1795.48880	87.90475
83050.00000	88.35263	1789.71146	88.35263
83100.00000	89.06665	1784.74615	89.06665
83150.00000	89.53884	1779.26245	89.53884
83200.00000	90.04896	1775.21493	90.04896
83250.00000	90.47866	1770.64179	90.47866
83300.00000	90.98597	1765.11330	90.98597
83350.00000	91.23815	1761.62120	91.23815
83400.00000	91.70230	1756.30316	91.70230
83450.00000	92.16383	1752.01139	92.16383
83500.00000	92.43016	1746.66505	92.43016
83550.00000	92.76191	1741.29968	92.76191
83600.00000	93.08775	1737.00946	93.08775
83650.00000	93.32436	1730.92170	93.32436
83700.00000	93.64367	1725.76910	93.64367
83750.00000	93.89831	1719.39594	93.89831
83800.00000	94.03347	1713.38577	94.03347
83850.00000	94.12678	1707.07385	94.12678
83900.00000	94.24077	1700.42106	94.24077
83950.00000	94.30768	1693.77580	94.30768
84000.00000	94.29046	1686.07915	94.29046
84050.00000	94.10326	1679.51761	94.10326
84100.00000	93.92668	1672.34171	93.92668
84150.00000	93.61772	1665.52934	93.61772
84200.00000	93.15910	1659.39063	93.15910
84250.00000	92.57636	1653.90977	92.57636
84300.00000	92.00187	1648.81248	92.00187
84350.00000	91.20668	1645.34883	91.20668
84400.00000	90.70516	1643.43452	90.70516
84450.00000	90.10182	1642.65393	90.10182
84500.00000	89.80978	1642.60660	89.80978
84550.00000	89.82034	1643.17471	89.82034
84600.00000	90.01119	1642.90914	90.01119
84650.00000	90.48553	1640.89326	90.48553
84700.00000	90.84963	1638.11625	90.84963
84750.00000	91.22385	1633.89779	91.22385
84800.00000	91.56262	1628.20060	91.56262
84850.00000	91.80401	1623.24970	91.80401
84900.00000	91.95564	1617.08524	91.95564
84950.00000	91.95319	1610.95775	91.95319
85000.00000	91.91699	1604.51876	91.91699
85050.00000	91.87020	1598.10008	91.87020
85100.00000	91.69903	1592.46734	91.69903
85150.00000	91.43609	1585.95470	91.43609
85200.00000	91.19896	1580.89661	91.19896
85250.00000	91.35325	1574.27567	91.35325
85300.00000	90.43802	1569.04528	90.43802
85350.00000	90.09775	1564.18294	90.09775
85400.00000	89.81350	1559.23887	89.81350
85450.00000	89.28606	1553.58259	89.28606
85500.00000	88.80792	1549.64969	88.80792
85550.00000	88.34924	1545.24272	88.34924
85600.00000	87.70697	1539.61229	87.70697
85650.00000	87.34283	1536.44000	87.34283
85700.00000	86.69660	1531.64957	86.69660
85750.00000	86.09689	1529.64872	86.09689
85800.00000	85.68184	1526.69117	85.68184
85850.00000	84.90026	1523.59016	84.90026
85900.00000	84.38962	1519.08044	84.38962
85950.00000	83.91805	1517.05388	83.91805
86000.00000	83.58335	1516.33807	83.58335
86050.00000	82.86106	1512.85527	82.86106
86100.00000	82.89641	1511.39595	82.89641
86150.00000	82.22939	1507.64881	82.22939
86200.00000	82.07938	1507.98152	82.07938
86250.00000	81.40839	1506.79902	81.40839
86300.00000	80.82610	1502.49460	80.82610
86350.00000	80.64588	1501.55922	80.64588
86400.00000	79.59422	1496.33906	79.59422
86450.00000	79.35318	1496.70593	79.35318
86500.00000	79.03037	1498.92885	79.03037
86550.00000	78.60106	1495.28084	78.60106
86600.00000	77.93429	1494.28645	77.93429
86650.00000	78.13032	1494.64444	78.13032
86700.00000	77.61256	1495.32699	77.61256
86750.00000	77.54216	1495.47911	77.54216
86800.00000	77.27609	1494.57299	77.27609
86850.00000	77.35760	1490.79226	77.35760
86900.00000	77.18622	1492.33797	77.18622
86950.00000	76.69774	1487.31943	76.69774
87000.00000	76.47083	1487.30492	76.47083
87050.00000	76.36367	1484.13469	76.36367
87100.00000	75.95014	1485.39011	75.95014
87150.00000	75.95413	1480.42790	75.95413
87200.00000	75.15449	1484.51725	75.15449
87250.00000	74.99885	1480.66645	74.99885
87300.00000	74.82129	1479.54270	74.82129
87350.00000	74.24086	1474.67455	74.24086
87400.00000	74.33703	1476.62660	74.33703
87450.00000	73.75078	1478.36849	73.75078
87500.00000	73.91955	1474.93801	73.91955
87550.00000	73.16632	1474.60109	73.16632
87600.00000	73.18063	1470.63235	73.18063
87650.00000	72.33222	1474.96892	72.33222
87700.00000	71.97434	1468.88018	71.97434
87750.00000	71.96479	1469.95014	71.96479
87800.00000	71.67983	1467.12134	71.67983
87850.00000	70.00815	1474.16331	70.00815
87900.00000	70.67224	1470.27770	70.67224
87950.00000	70.25194	1475.83678	70.25194
88000.00000	70.11782	1474.10880	70.11782
88050.00000	70.11482	1474.57848	70.11482
88100.00000	70.41461	1479.11719	70.41461
88150.00000	70.18654	1480.60533	70.18654
88200.00000	70.44186	1474.55308	70.44186
88250.00000	70.29501	1476.23326	70.29501
88300.00000	70.85786	1480.05013	70.85786
88350.00000	70.20184	1477.55100	70.20184
88400.00000	70.82635	1477.22224	70.82635
88450.00000	69.99620	1477.81139	69.99620
88500.00000	70.41916	1481.30318	70.41916
88550.00000	71.33208	1474.00525	71.33208
88600.00000	70.39768	1479.07775	70.39768
88650.00000	70.79874	1479.63444	70.79874
88700.00000	70.97011	1480.03581	70.97011
88750.00000	71.70139	1479.79255	71.70139
88800.00000	71.12137	1482.46740	71.12137
88850.00000	72.07028	1480.88642	72.07028
88900.00000	72.50066	1480.26429	72.50066
88950.00000	72.27000	1480.38693	72.27000
89000.00000	72.15480	1478.99047	72.15480
89050.00000	72.88209	1476.74677	72.88209
89100.00000	73.76045	1475.74749	73.76045
89150.00000	73.58593	1473.42500	73.58593
89200.00000	73.34001	1471.71937	73.34001
89250.00000	73.74497	1471.69514	73.74497
89300.00000	74.29310	1465.63015	74.29310
89350.00000	74.47373	1463.72162	74.47373
89400.00000	74.99279	1464.34957	74.99279
89450.00000	75.47853	1462.00831	75.47853
89500.00000	75.64676	1456.39737	75.64676
89550.00000	75.25031	1456.65654	75.25031
89600.00000	75.65346	1452.29635	75.65346
89650.00000	75.80894	1448.65489	75.80894
89700.00000	75.81858	1449.19036	75.81858
89750.00000	75.85746	1444.23788	75.85746
89800.00000	75.65776	1443.40584	75.65776
89850.00000	76.03939	1441.52200	76.03939
89900.00000	76.16036	1437.18688	76.16036
89950.00000	76.68180	1439.44379	76.68180
90000.00000	76.49193	1443.14790	76.49193
90050.00000	77.06444	1448.57181	77.06444
90100.00000	79.26529	1447.30422	79.26529
90150.00000	80.32738	1446.18869	80.32738
90200.00000	82.96024	1436.56467	82.96024
90250.00000	84.24498	1410.47870	84.24498
90300.00000	84.09177	1389.41302	84.09177
90350.00000	81.85744	1376.50998	81.85744
90400.00000	80.78088	1372.44517	80.78088
90450.00000	79.94576	1363.37909	79.94576
90500.00000	78.84233	1361.18768	78.84233
90550.00000	77.67053	1357.33188	77.67053
90600.00000	77.20841	1358.10776	77.20841
90650.00000	76.45151	1352.48765	76.45151
90700.00000	75.41700	1352.09959	75.41700
90750.00000	74.29127	1352.20758	74.29127
90800.00000	74.35431	1351.64697	74.35431
90850.00000	74.11175	1354.90484	74.11175
90900.00000	73.04961	1357.85145	73.04961
90950.00000	73.04281	1358.45486	73.04281
91000.00000	73.14634	1360.32320	73.14634
91050.00000	72.81107	1362.59984	72.81107
91100.00000	73.47169	1363.97559	73.47169
91150.00000	72.90481	1366.34679	72.90481
91200.00000	73.90546	1360.59571	73.90546
91250.00000	73.94792	1364.15584	73.94792
91300.00000	74.35648	1367.09398	74.35648
91350.00000	74.36252	1364.32227	74.36252
91400.00000	75.18336	1362.54907	75.18336
91450.00000	75.71098	1364.95237	75.71098
91500.00000	75.91427	1358.58866	75.91427
91550.00000	76.26781	1358.97962	76.26781
91600.00000	77.03323	1355.52824	77.03323
91650.00000	77.11282	1350.10285	77.11282
91700.00000	77.47156	1350.27036	77.47156
91750.00000	77.95478	1344.68415	77.95478
91800.00000	78.03643	1342.07711	78.03643
91850.00000	78.36900	1337.29192	78.36900
91900.00000	78.79646	1335.08427	78.79646
91950.00000	78.71266	1332.02174	78.71266
92000.00000	79.01880	1327.35766	79.01880
92050.00000	79.21088	1324.40159	79.21088
92100.00000	79.39371	1318.34699	79.39371
92150.00000	79.70653	1316.15085	79.70653
92200.00000	79.47042	1311.56072	79.47042
92250.00000	79.81438	1309.36595	79.81438
92300.00000	79.94503	1305.76805	79.94503
92350.00000	80.10534	1301.50230	80.10534
92400.00000	80.09846	1295.37065	80.09846
92450.00000	80.23071	1294.40722	80.23071
92500.00000	80.49945	1288.35454	80.49945
92550.00000	80.36791	1281.27208	80.36791
92600.00000	80.12793	1280.16832	80.12793
92650.00000	80.26395	1276.95691	80.26395
92700.00000	80.12074	1270.78090	80.12074
92750.00000	80.16853	1267.89437	80.16853
92800.00000	80.34173	1262.67279	80.34173
92850.00000	80.51359	1258.22640	80.51359
92900.00000	80.44129	1255.12480	80.44129
92950.00000	80.13238	1252.78335	80.13238
93000.00000	80.31471	1248.05332	80.31471
93050.00000	80.15361	1242.56630	80.15361
93100.00000	80.02524	1238.19076	80.02524
93150.00000	79.98130	1234.26233	79.98130
93200.00000	79.53749	1229.71842	79.53749
93250.00000	79.92439	1226.89024	79.92439
93300.00000	79.87661	1219.31902	79.87661
93350.00000	79.68859	1213.89638	79.68859
93400.00000	79.16195	1210.01703	79.16195
93450.00000	79.39494	1207.44945	79.39494
93500.00000	79.24970	1200.80485	79.24970
93550.00000	79.19274	1195.02209	79.19274
93600.00000	78.92116	1191.78982	78.92116
93650.00000	78.91533	1185.75361	78.91533
93700.00000	77.76572	1182.97989	77.76572
93750.00000	77.88666	1177.11254	77.88666
93800.00000	77.67454	1172.57903	77.67454
93850.00000	77.52640	1166.45948	77.52640
93900.00000	76.93058	1162.80495	76.93058
93950.00000	76.91896	1156.68873	76.91896
94000.00000	76.30261	1151.94806	76.30261
94050.00000	75.77684	1150.25539	75.77684
94100.00000	75.77503	1147.84480	75.77503
94150.00000	75.37650	1138.29731	75.37650
94200.00000	74.89989	1137.63669	74.89989
94250.00000	74.95830	1131.75716	74.95830
94300.00000	74.20864	1127.19194	74.20864
94350.00000	74.07800	1126.28815	74.07800
94400.00000	74.07986	1122.82407	74.07986
94450.00000	74.08581	1115.44019	74.08581
94500.00000	73.42163	1111.77292	73.42163
94550.00000	73.37706	1108.89131	73.37706
94600.00000	73.88226	1107.15410	73.88226
94650.00000	72.53009	1102.60403	72.53009
94700.00000	73.08576	1095.88604	73.08576
94750.00000	72.32603	1090.72021	72.32603
94800.00000	72.22895	1087.72012	72.22895
94850.00000	71.83989	1082.83965	71.83989
94900.00000	71.42802	1077.93024	71.42802
94950.00000	71.51123	1073.82549	71.51123
95000.00000	71.27931	1061.12556	71.27931
95050.00000	70.69312	1058.56249	70.69312
95100.00000	70.90044	1057.09135	70.90044
95150.00000	70.51072	1046.48056	70.51072
95200.00000	70.82709	1044.36549	70.82709
95250.00000	69.78637	1038.36244	69.78637
95300.00000	70.58335	1032.15073	70.58335
95350.00000	68.41080	1029.62508	68.41080
95400.00000	68.50740	1028.76390	68.50740
95450.00000	69.36679	1020.74712	69.36679
95500.00000	66.69679	1011.39110	66.69679
95550.00000	66.17702	1004.43890	66.17702
95600.00000	65.99446	1003.75570	65.99446
95650.00000	66.50499	1007.60713	66.50499
95700.00000	65.45793	1003.13722	65.45793
95750.00000	66.60980	996.30400	66.60980
95800.00000	63.88081	994.51110	63.88081
95850.00000	67.33667	994.52833	67.33667
95900.00000	64.29658	978.12923	64.29658
95950.00000	61.80005	978.10695	61.80005
96000.00000	64.19900	976.19081	64.19900
96050.00000	65.54356	982.72304	65.54356
96100.00000	67.62752	963.64066	67.62752
96150.00000	67.58208	949.54141	67.58208
96200.00000	66.82243	919.25335	66.82243
96250.00000	65.21553	949.08797	65.21553
96300.00000	66.84211	913.60237	66.84211
96350.00000	69.80471	904.80046	69.80471
96400.00000	62.31310	898.13813	62.31310
96450.00000	62.91633	876.85308	62.91633
96500.00000	67.07913	875.59488	67.07913
96550.00000	67.50767	869.69950	67.50767
96600.00000	65.30909	864.85412	65.30909
96650.00000	67.01679	852.09444	67.01679
96700.00000	66.35651	860.87193	66.35651
96750.00000	68.48247	822.46158	68.48247
96800.00000	65.40292	842.34273	65.40292
96850.00000	63.83125	805.27638	63.83125
96900.00000	63.84071	841.63518	63.84071
96950.00000	69.96363	804.46024	69.96363
97000.00000	68.34769	783.93591	68.34769
97050.00000	64.71555	778.05512	64.71555
97100.00000	69.83743	775.89205	69.83743
97150.00000	64.38610	758.05729	64.38610
97200.00000	71.71201	797.26379	71.71201
97250.00000	73.15469	742.87944	73.15469
97300.00000	73.31385	723.19685	73.31385
97350.00000	61.99009	722.19929	61.99009
97400.00000	70.47844	697.21546	70.47844
97450.00000	61.51037	669.22477	61.51037
97500.00000	64.91901	710.87298	64.91901
97550.00000	55.21003	734.56458	55.21003
97600.00000	63.35577	716.11325	63.35577
97650.00000	61.06449	692.22710	61.06449
97700.00000	61.32528	702.16552	61.32528
97750.00000	59.45793	692.58056	59.45793
97800.00000	62.93180	721.43477	62.93180
97850.00000	61.62536	725.32269	61.62536
97900.00000	58.40218	672.59792	58.40218
97950.00000	62.21166	730.15580	62.21166
98000.00000	59.68675	711.93048	59.68675
98050.00000	55.62337	669.14978	55.62337
98100.00000	58.17168	678.14938	58.17168
98150.00000	62.92450	704.20187	62.92450
98200.00000	59.45479	680.65131	59.45479
98250.00000	59.18399	717.55442	59.18399
98300.00000	53.95531	717.48377	53.95531
98350.00000	57.81759	684.39332	57.81759
98400.00000	60.57236	725.85631	60.57236
98450.00000	57.52536	691.36249	57.52536
98500.00000	59.33252	709.75660	59.33252
98550.00000	56.55525	687.93297	56.55525
98600.00000	58.89247	700.02534	58.89247
98650.00000	62.87952	735.66976	62.87952
98700.00000	59.23166	647.98337	59.23166
98750.00000	55.76448	687.75354	55.76448
98800.00000	56.82333	697.86051	56.82333
98850.00000	53.10477	758.12694	53.10477
98900.00000	57.78679	692.16250	57.78679
98950.00000	57.89770	678.27290	57.89770
99000.00000	51.15285	662.71285	51.15285
99050.00000	57.09009	663.54411	57.09009
99100.00000	53.93931	743.25363	53.93931
99150.00000	48.09397	677.10568	48.09397
99200.00000	52.68953	776.20385	52.68953
99250.00000	51.97441	705.86466	51.97441
99300.00000	48.41425	694.00724	48.41425
99350.00000	48.75153	707.93070	48.75153
99400.00000	53.99015	668.81228	53.99015
99450.00000	52.54327	779.36564	52.54327
99500.00000	49.86310	730.08965	49.86310
99550.00000	53.87549	679.52831	53.87549
99600.00000	48.90774	719.94104	48.90774
99650.00000	54.42029	660.20535	54.42029
99700.00000	46.44910	494.37009	46.44910
99750.00000	47.80147	383.47635	47.80147
99800.00000	50.77194	318.25830	50.77194
99850.00000	54.47446	323.46812	54.47446
99900.00000	43.57560	329.50798	43.57560
99950.00000	46.65312	444.42591	46.65312
