---ACOUSTIC CALIBRATION---
Filename: C:\Data\CL0809 DATA\CL08095\RightSecondary.calib
Date: 8/9/2019 4:09:51 PM
Format: 4
Probe Tube Correction File: C:\Data\Probe Tube Calibrations\74_ProbeTube.calib
Experiment VIs: 2128
EPL_CFTS.exe V15.0.1f5 (2015)
DAQmx V15.1

Attenuation (dB): 40.000000
Min Freq (Hz): 50.000000
Max Freq (Hz): 99950.000000
Freq Step (Hz): 50.000000
Sample Rate (Hz): 200000.000000
[Smoothing]
Method=None
MA.Iterations=0
MA.Length=0
Loess.Length=0
Loess.Type=Linear
Loess.Robust=FALSE


Freq(Hz)	Mag(dB)	Phase(deg)	Unsmoothed(dB)

50.00000	93.59664	329.11491	93.59664
100.00000	64.01146	363.84698	64.01146
150.00000	68.44702	679.21708	68.44702
200.00000	71.17569	826.35599	71.17569
250.00000	62.72097	1023.59246	62.72097
300.00000	67.35952	1236.26330	67.35952
350.00000	68.09598	1359.19094	68.09598
400.00000	65.14028	1424.49959	65.14028
450.00000	70.24656	1478.17335	70.24656
500.00000	74.70274	1584.97648	74.70274
550.00000	79.75562	1511.06307	79.75562
600.00000	79.97572	1476.28350	79.97572
650.00000	86.82243	1459.37256	86.82243
700.00000	85.92274	1460.32631	85.92274
750.00000	90.21771	1424.87547	90.21771
800.00000	91.19531	1405.67045	91.19531
850.00000	90.47248	1395.39655	90.47248
900.00000	91.04094	1387.90854	91.04094
950.00000	92.30996	1372.34063	92.30996
1000.00000	92.21614	1365.33929	92.21614
1050.00000	92.06116	1349.65744	92.06116
1100.00000	91.07215	1342.18549	91.07215
1150.00000	90.24645	1342.98032	90.24645
1200.00000	89.85586	1349.34587	89.85586
1250.00000	90.97755	1352.81293	90.97755
1300.00000	92.08098	1351.24906	92.08098
1350.00000	92.77540	1349.58166	92.77540
1400.00000	93.79649	1350.11896	93.79649
1450.00000	94.89175	1348.14143	94.89175
1500.00000	96.27524	1345.41122	96.27524
1550.00000	97.62130	1338.40664	97.62130
1600.00000	98.84195	1332.94551	98.84195
1650.00000	99.90655	1328.46421	99.90655
1700.00000	103.99357	1311.63431	103.99357
1750.00000	101.00367	1290.24610	101.00367
1800.00000	100.70735	1285.14923	100.70735
1850.00000	100.41203	1277.48109	100.41203
1900.00000	100.17568	1270.39558	100.17568
1950.00000	99.44262	1265.63569	99.44262
2000.00000	98.66364	1261.77744	98.66364
2050.00000	97.80240	1263.31360	97.80240
2100.00000	98.45730	1269.20483	98.45730
2150.00000	99.66287	1263.57860	99.66287
2200.00000	99.80970	1254.07625	99.80970
2250.00000	99.17823	1248.60511	99.17823
2300.00000	98.86443	1247.43011	98.86443
2350.00000	98.84020	1244.10004	98.84020
2400.00000	98.83053	1241.66749	98.83053
2450.00000	98.57490	1237.48151	98.57490
2500.00000	98.03904	1238.14528	98.03904
2550.00000	98.17136	1237.97801	98.17136
2600.00000	98.31105	1237.19645	98.31105
2650.00000	98.38748	1236.95933	98.38748
2700.00000	98.59998	1235.36451	98.59998
2750.00000	98.82170	1234.57460	98.82170
2800.00000	99.11623	1232.52880	99.11623
2850.00000	99.43291	1230.89003	99.43291
2900.00000	99.76698	1228.42763	99.76698
2950.00000	100.04678	1226.10802	100.04678
3000.00000	100.27560	1223.77928	100.27560
3050.00000	100.52135	1220.85989	100.52135
3100.00000	100.73783	1218.04687	100.73783
3150.00000	100.72312	1215.65521	100.72312
3200.00000	100.89926	1212.79982	100.89926
3250.00000	101.11971	1210.87447	101.11971
3300.00000	101.12755	1208.70566	101.12755
3350.00000	101.40724	1207.22918	101.40724
3400.00000	101.55023	1205.48391	101.55023
3450.00000	101.73647	1204.61948	101.73647
3500.00000	101.97385	1203.67640	101.97385
3550.00000	102.70066	1201.36124	102.70066
3600.00000	102.78424	1197.33630	102.78424
3650.00000	103.03840	1196.59799	103.03840
3700.00000	103.23312	1194.80353	103.23312
3750.00000	103.67138	1192.04276	103.67138
3800.00000	104.43771	1190.61819	104.43771
3850.00000	104.93870	1182.00814	104.93870
3900.00000	105.29292	1174.99381	105.29292
3950.00000	104.47886	1172.38928	104.47886
4000.00000	104.17168	1174.70377	104.17168
4050.00000	104.63676	1176.30511	104.63676
4100.00000	105.38559	1176.47277	105.38559
4150.00000	107.01353	1173.54542	107.01353
4200.00000	107.98639	1168.85659	107.98639
4250.00000	108.09355	1156.21315	108.09355
4300.00000	108.20401	1153.19279	108.20401
4350.00000	108.61213	1148.38586	108.61213
4400.00000	108.96948	1142.29916	108.96948
4450.00000	109.05884	1135.09849	109.05884
4500.00000	109.14843	1128.98409	109.14843
4550.00000	109.03588	1123.69737	109.03588
4600.00000	109.05962	1118.38723	109.05962
4650.00000	109.07013	1113.62157	109.07013
4700.00000	109.03686	1108.78940	109.03686
4750.00000	109.01239	1104.20873	109.01239
4800.00000	109.02302	1099.85858	109.02302
4850.00000	109.03915	1095.17878	109.03915
4900.00000	109.05589	1089.85337	109.05589
4950.00000	109.03290	1084.76143	109.03290
5000.00000	108.96098	1079.23081	108.96098
5050.00000	108.82877	1073.60631	108.82877
5100.00000	108.61612	1067.93258	108.61612
5150.00000	108.26150	1062.24070	108.26150
5200.00000	107.64130	1057.17337	107.64130
5250.00000	106.81597	1057.16952	106.81597
5300.00000	107.36131	1057.33392	107.36131
5350.00000	107.57186	1051.14110	107.57186
5400.00000	107.37567	1045.34705	107.37567
5450.00000	107.05124	1040.60116	107.05124
5500.00000	106.74437	1036.19586	106.74437
5550.00000	106.43950	1032.36221	106.43950
5600.00000	106.10564	1028.08992	106.10564
5650.00000	105.66596	1024.71164	105.66596
5700.00000	105.26603	1021.43260	105.26603
5750.00000	104.92047	1018.48375	104.92047
5800.00000	104.55124	1015.97393	104.55124
5850.00000	104.19936	1013.28317	104.19936
5900.00000	103.84140	1010.72405	103.84140
5950.00000	103.51703	1008.44692	103.51703
6000.00000	103.20437	1006.32815	103.20437
6050.00000	102.89532	1003.94584	102.89532
6100.00000	102.58631	1001.74892	102.58631
6150.00000	102.22333	999.57652	102.22333
6200.00000	101.88863	997.96677	101.88863
6250.00000	101.56226	996.30224	101.56226
6300.00000	101.25415	994.80838	101.25415
6350.00000	100.93519	993.37713	100.93519
6400.00000	100.63452	992.33318	100.63452
6450.00000	100.36180	991.55151	100.36180
6500.00000	100.10599	991.04588	100.10599
6550.00000	99.93107	990.69845	99.93107
6600.00000	99.82737	990.46866	99.82737
6650.00000	99.80991	990.14667	99.80991
6700.00000	99.87983	989.19723	99.87983
6750.00000	99.94433	987.64368	99.94433
6800.00000	100.00550	985.46558	100.00550
6850.00000	99.96128	983.01482	99.96128
6900.00000	99.87422	980.51076	99.87422
6950.00000	99.71144	977.89115	99.71144
7000.00000	99.51598	975.38565	99.51598
7050.00000	99.28856	973.22826	99.28856
7100.00000	99.03853	971.36692	99.03853
7150.00000	98.76796	969.56059	98.76796
7200.00000	98.45443	968.27986	98.45443
7250.00000	98.13209	967.22419	98.13209
7300.00000	97.82756	966.51085	97.82756
7350.00000	97.52714	966.16677	97.52714
7400.00000	97.27671	966.41898	97.27671
7450.00000	97.08805	967.14915	97.08805
7500.00000	96.96739	968.12358	96.96739
7550.00000	96.92840	969.02485	96.92840
7600.00000	96.99022	970.00067	96.99022
7650.00000	97.11505	970.61745	97.11505
7700.00000	97.32013	970.80203	97.32013
7750.00000	97.53401	970.39466	97.53401
7800.00000	97.76587	969.83703	97.76587
7850.00000	98.04086	968.97680	98.04086
7900.00000	98.22112	967.63259	98.22112
7950.00000	98.42391	966.34303	98.42391
8000.00000	98.58431	964.92662	98.58431
8050.00000	98.78478	963.31614	98.78478
8100.00000	98.95303	961.65626	98.95303
8150.00000	99.12880	960.04585	99.12880
8200.00000	99.26134	958.07258	99.26134
8250.00000	99.43080	956.36354	99.43080
8300.00000	99.58935	954.44778	99.58935
8350.00000	99.74694	952.56630	99.74694
8400.00000	99.91496	950.59426	99.91496
8450.00000	100.04871	948.40590	100.04871
8500.00000	100.19827	946.11805	100.19827
8550.00000	100.34573	944.33030	100.34573
8600.00000	100.51640	942.04372	100.51640
8650.00000	100.66498	939.87476	100.66498
8700.00000	100.82347	937.56806	100.82347
8750.00000	100.97238	935.26917	100.97238
8800.00000	101.11561	932.55457	101.11561
8850.00000	101.29187	929.82933	101.29187
8900.00000	101.41058	927.40784	101.41058
8950.00000	101.57900	924.68001	101.57900
9000.00000	101.67392	921.66054	101.67392
9050.00000	101.81147	918.73312	101.81147
9100.00000	101.86911	915.74598	101.86911
9150.00000	101.96438	912.34741	101.96438
9200.00000	102.01660	909.15331	102.01660
9250.00000	102.05675	905.76572	102.05675
9300.00000	102.09709	902.12065	102.09709
9350.00000	102.08610	898.44840	102.08610
9400.00000	102.01993	894.83068	102.01993
9450.00000	101.96575	891.28194	101.96575
9500.00000	101.87969	887.66302	101.87969
9550.00000	101.73673	884.08248	101.73673
9600.00000	101.58931	880.86907	101.58931
9650.00000	101.43249	877.65946	101.43249
9700.00000	101.24921	874.39404	101.24921
9750.00000	101.03292	871.59588	101.03292
9800.00000	100.80126	868.97819	100.80126
9850.00000	100.57516	866.61010	100.57516
9900.00000	100.33692	864.88891	100.33692
9950.00000	100.11057	862.87023	100.11057
10000.00000	99.95330	861.70752	99.95330
10050.00000	99.79039	859.98450	99.79039
10100.00000	99.62671	858.57954	99.62671
10150.00000	99.43441	857.04994	99.43441
10200.00000	99.25424	855.98877	99.25424
10250.00000	99.12297	855.26428	99.12297
10300.00000	99.05672	854.66128	99.05672
10350.00000	98.98583	853.68442	98.98583
10400.00000	98.91039	852.85508	98.91039
10450.00000	98.90345	851.78873	98.90345
10500.00000	98.93360	850.57212	98.93360
10550.00000	98.97042	849.41373	98.97042
10600.00000	99.12008	847.76657	99.12008
10650.00000	99.20928	846.11058	99.20928
10700.00000	99.32503	844.03914	99.32503
10750.00000	99.45198	842.15720	99.45198
10800.00000	99.58498	839.64728	99.58498
10850.00000	99.73344	837.41231	99.73344
10900.00000	99.88252	834.86917	99.88252
10950.00000	99.97231	832.07054	99.97231
11000.00000	100.09792	829.29985	100.09792
11050.00000	100.12587	826.38766	100.12587
11100.00000	100.21275	823.46555	100.21275
11150.00000	100.22641	820.37390	100.22641
11200.00000	100.23219	817.43186	100.23219
11250.00000	100.15659	814.01479	100.15659
11300.00000	100.09847	811.02735	100.09847
11350.00000	100.03213	807.55384	100.03213
11400.00000	99.87166	804.14817	99.87166
11450.00000	99.71439	800.69296	99.71439
11500.00000	99.55133	797.34295	99.55133
11550.00000	99.35966	794.02161	99.35966
11600.00000	99.14667	790.91375	99.14667
11650.00000	98.92020	787.82906	98.92020
11700.00000	98.72996	784.71411	98.72996
11750.00000	98.46281	782.03194	98.46281
11800.00000	98.27154	779.66265	98.27154
11850.00000	98.06669	777.32422	98.06669
11900.00000	97.79056	775.40291	97.79056
11950.00000	97.58440	773.55372	97.58440
12000.00000	97.39650	772.26656	97.39650
12050.00000	97.11425	771.27426	97.11425
12100.00000	96.83225	770.12718	96.83225
12150.00000	96.58785	769.03770	96.58785
12200.00000	96.34081	767.80759	96.34081
12250.00000	96.11974	767.14839	96.11974
12300.00000	95.76772	766.08035	95.76772
12350.00000	95.57718	765.07850	95.57718
12400.00000	95.25190	763.39986	95.25190
12450.00000	95.15885	762.28965	95.15885
12500.00000	95.00414	761.53991	95.00414
12550.00000	94.85172	760.66264	94.85172
12600.00000	94.77611	758.68531	94.77611
12650.00000	94.73757	758.28095	94.73757
12700.00000	94.58070	756.71634	94.58070
12750.00000	94.47453	756.09247	94.47453
12800.00000	94.42834	755.20361	94.42834
12850.00000	94.23206	754.57072	94.23206
12900.00000	94.13061	752.70941	94.13061
12950.00000	94.17413	750.60889	94.17413
13000.00000	94.00354	748.21202	94.00354
13050.00000	93.93664	745.92070	93.93664
13100.00000	93.92896	742.72555	93.92896
13150.00000	94.12725	740.61962	94.12725
13200.00000	94.34294	735.91223	94.34294
13250.00000	94.87794	730.72267	94.87794
13300.00000	95.60825	730.31959	95.60825
13350.00000	96.58293	728.20484	96.58293
13400.00000	97.66008	731.56432	97.66008
13450.00000	98.27957	740.48687	98.27957
13500.00000	97.81012	753.40178	97.81012
13550.00000	96.60341	759.10148	96.60341
13600.00000	94.75703	761.31379	94.75703
13650.00000	93.10549	758.54641	93.10549
13700.00000	91.70992	752.84172	91.70992
13750.00000	90.80395	743.85364	90.80395
13800.00000	90.44123	735.28708	90.44123
13850.00000	90.31332	725.99416	90.31332
13900.00000	90.47437	716.13874	90.47437
13950.00000	91.26589	709.06180	91.26589
14000.00000	92.43021	703.93656	92.43021
14050.00000	94.05324	704.06262	94.05324
14100.00000	95.83966	706.82994	95.83966
14150.00000	96.92190	720.00898	96.92190
14200.00000	96.77592	735.22803	96.77592
14250.00000	95.24098	747.36603	95.24098
14300.00000	93.56529	751.81684	93.56529
14350.00000	92.09593	750.89832	92.09593
14400.00000	91.11030	748.20957	91.11030
14450.00000	90.35637	744.65915	90.35637
14500.00000	90.03309	739.76681	90.03309
14550.00000	89.94346	733.32004	89.94346
14600.00000	90.04857	729.66113	90.04857
14650.00000	90.48967	725.41723	90.48967
14700.00000	90.99534	720.67578	90.99534
14750.00000	91.84636	717.41894	91.84636
14800.00000	92.59987	716.40280	92.59987
14850.00000	93.65096	717.02303	93.65096
14900.00000	94.59055	719.11975	94.59055
14950.00000	95.10022	724.07011	95.10022
15000.00000	95.33861	729.47318	95.33861
15050.00000	95.15294	734.14305	95.15294
15100.00000	94.76520	735.03108	94.76520
15150.00000	94.39421	734.56578	94.39421
15200.00000	94.07971	732.79352	94.07971
15250.00000	93.89254	730.12212	93.89254
15300.00000	93.89704	726.81551	93.89704
15350.00000	94.17682	723.60905	94.17682
15400.00000	94.45173	719.01351	94.45173
15450.00000	94.77986	714.27331	94.77986
15500.00000	95.46559	711.40845	95.46559
15550.00000	95.98790	708.90519	95.98790
15600.00000	96.57570	707.50560	96.57570
15650.00000	97.11395	706.72905	97.11395
15700.00000	97.37407	706.60123	97.37407
15750.00000	97.61087	706.50965	97.61087
15800.00000	97.60407	706.42074	97.60407
15850.00000	97.58386	705.94828	97.58386
15900.00000	97.38399	704.37557	97.38399
15950.00000	97.22184	701.67579	97.22184
16000.00000	97.24480	699.53160	97.24480
16050.00000	97.23623	696.74374	97.23623
16100.00000	97.34417	694.43214	97.34417
16150.00000	97.62874	691.49121	97.62874
16200.00000	97.94509	689.39311	97.94509
16250.00000	98.20366	686.31237	98.20366
16300.00000	98.60581	684.80661	98.60581
16350.00000	98.90824	683.18040	98.90824
16400.00000	99.13580	681.83670	99.13580
16450.00000	99.41260	680.70256	99.41260
16500.00000	99.57594	678.76088	99.57594
16550.00000	99.69398	677.27724	99.69398
16600.00000	99.78887	674.97067	99.78887
16650.00000	99.80840	672.25542	99.80840
16700.00000	99.87108	669.45531	99.87108
16750.00000	99.93529	666.71737	99.93529
16800.00000	100.01304	663.63972	100.01304
16850.00000	100.17462	661.37472	100.17462
16900.00000	100.32538	659.14743	100.32538
16950.00000	100.47381	656.76194	100.47381
17000.00000	100.60828	654.52548	100.60828
17050.00000	100.72848	653.02553	100.72848
17100.00000	100.89045	651.12630	100.89045
17150.00000	100.95710	649.16570	100.95710
17200.00000	101.01945	647.49129	101.01945
17250.00000	101.08034	645.12386	101.08034
17300.00000	101.15883	642.73275	101.15883
17350.00000	101.19036	640.26972	101.19036
17400.00000	101.26989	637.97809	101.26989
17450.00000	101.39217	635.75711	101.39217
17500.00000	101.54922	633.42804	101.54922
17550.00000	101.67272	630.91904	101.67272
17600.00000	101.81445	629.06350	101.81445
17650.00000	101.96869	627.35436	101.96869
17700.00000	102.13899	625.09640	102.13899
17750.00000	102.25496	622.60492	102.25496
17800.00000	102.32614	620.69519	102.32614
17850.00000	102.44056	618.74086	102.44056
17900.00000	102.53809	616.54147	102.53809
17950.00000	102.61235	614.60479	102.61235
18000.00000	102.77626	612.37878	102.77626
18050.00000	102.89862	609.81964	102.89862
18100.00000	103.01766	607.50046	103.01766
18150.00000	103.16726	604.87505	103.16726
18200.00000	103.27485	602.32878	103.27485
18250.00000	103.41702	599.90449	103.41702
18300.00000	103.53417	597.24823	103.53417
18350.00000	103.61998	594.54757	103.61998
18400.00000	103.72615	592.06459	103.72615
18450.00000	103.81611	589.60985	103.81611
18500.00000	103.93949	587.21129	103.93949
18550.00000	104.06095	584.37705	104.06095
18600.00000	104.11853	581.88271	104.11853
18650.00000	104.23769	579.12080	104.23769
18700.00000	104.30543	576.58200	104.30543
18750.00000	104.37058	574.04294	104.37058
18800.00000	104.43254	571.26582	104.43254
18850.00000	104.52700	568.91007	104.52700
18900.00000	104.54872	566.24354	104.54872
18950.00000	104.60643	563.32620	104.60643
19000.00000	104.62382	560.83019	104.62382
19050.00000	104.67920	558.20334	104.67920
19100.00000	104.70674	555.62186	104.70674
19150.00000	104.78051	553.19965	104.78051
19200.00000	104.83545	550.45756	104.83545
19250.00000	104.87169	548.17330	104.87169
19300.00000	104.94042	545.68646	104.94042
19350.00000	104.99080	542.96185	104.99080
19400.00000	105.01010	540.66645	105.01010
19450.00000	105.03069	537.93694	105.03069
19500.00000	105.07915	535.48713	105.07915
19550.00000	105.12926	533.15565	105.12926
19600.00000	105.15754	530.62313	105.15754
19650.00000	105.19597	528.18601	105.19597
19700.00000	105.25223	525.66671	105.25223
19750.00000	105.29618	523.40871	105.29618
19800.00000	105.36530	521.16930	105.36530
19850.00000	105.39320	518.46832	105.39320
19900.00000	105.46805	515.96283	105.46805
19950.00000	105.48468	513.67299	105.48468
20000.00000	105.52038	510.84553	105.52038
20050.00000	105.58446	508.50431	105.58446
20100.00000	105.64925	506.01402	105.64925
20150.00000	105.71889	503.23305	105.71889
20200.00000	105.79417	500.57426	105.79417
20250.00000	105.82507	498.22392	105.82507
20300.00000	105.87454	495.45092	105.87454
20350.00000	105.91465	492.83637	105.91465
20400.00000	105.94419	490.21496	105.94419
20450.00000	105.99803	487.54394	105.99803
20500.00000	106.04600	484.84944	106.04600
20550.00000	106.07788	481.97099	106.07788
20600.00000	106.10439	479.14845	106.10439
20650.00000	106.16356	476.33817	106.16356
20700.00000	106.20396	473.71387	106.20396
20750.00000	106.21667	470.87370	106.21667
20800.00000	106.20587	468.14549	106.20587
20850.00000	106.21241	464.92398	106.21241
20900.00000	106.20517	462.43017	106.20517
20950.00000	106.21651	459.39493	106.21651
21000.00000	106.24284	456.32736	106.24284
21050.00000	106.21505	453.39374	106.21505
21100.00000	106.20636	450.65828	106.20636
21150.00000	106.21538	448.07431	106.21538
21200.00000	106.16341	445.19093	106.16341
21250.00000	106.09990	442.30491	106.09990
21300.00000	106.04763	439.23864	106.04763
21350.00000	105.99299	436.40833	105.99299
21400.00000	105.94712	433.45248	105.94712
21450.00000	105.92632	430.66226	105.92632
21500.00000	105.90992	428.08070	105.90992
21550.00000	105.82906	425.45122	105.82906
21600.00000	105.74080	422.56817	105.74080
21650.00000	105.66500	419.88137	105.66500
21700.00000	105.55395	417.13082	105.55395
21750.00000	105.47867	414.49045	105.47867
21800.00000	105.36611	411.65951	105.36611
21850.00000	105.32073	409.26818	105.32073
21900.00000	105.19685	406.86551	105.19685
21950.00000	105.12552	404.33006	105.12552
22000.00000	104.94566	401.98625	104.94566
22050.00000	104.84433	399.90711	104.84433
22100.00000	104.76135	398.04639	104.76135
22150.00000	104.64716	395.94698	104.64716
22200.00000	104.57666	393.49552	104.57666
22250.00000	104.55430	391.41635	104.55430
22300.00000	104.50984	389.26256	104.50984
22350.00000	104.44217	387.08318	104.44217
22400.00000	104.39824	384.73379	104.39824
22450.00000	104.35871	382.62375	104.35871
22500.00000	104.29393	380.62718	104.29393
22550.00000	104.27323	378.33084	104.27323
22600.00000	104.22984	376.32247	104.22984
22650.00000	104.16266	374.01761	104.16266
22700.00000	104.11702	372.07338	104.11702
22750.00000	104.09049	369.58929	104.09049
22800.00000	104.04914	367.35044	104.04914
22850.00000	104.01048	365.01094	104.01048
22900.00000	104.00174	362.81669	104.00174
22950.00000	103.98736	360.62125	103.98736
23000.00000	103.94822	358.34554	103.94822
23050.00000	103.86990	356.02909	103.86990
23100.00000	103.83694	353.66570	103.83694
23150.00000	103.72509	351.19799	103.72509
23200.00000	103.69008	348.62295	103.69008
23250.00000	103.70855	346.06318	103.70855
23300.00000	103.69863	343.30400	103.69863
23350.00000	103.59165	341.50996	103.59165
23400.00000	103.54315	339.23549	103.54315
23450.00000	103.47291	336.93067	103.47291
23500.00000	103.44092	334.88101	103.44092
23550.00000	103.36839	332.12849	103.36839
23600.00000	103.32743	329.80213	103.32743
23650.00000	103.14778	327.68511	103.14778
23700.00000	103.16398	325.58218	103.16398
23750.00000	103.11055	323.16480	103.11055
23800.00000	103.02828	320.75828	103.02828
23850.00000	103.00887	318.56322	103.00887
23900.00000	102.92170	316.02489	102.92170
23950.00000	102.83764	314.11081	102.83764
24000.00000	102.81367	311.62153	102.81367
24050.00000	102.68074	308.91777	102.68074
24100.00000	102.57514	306.39838	102.57514
24150.00000	102.46630	304.37585	102.46630
24200.00000	102.45405	301.52234	102.45405
24250.00000	102.32676	299.53307	102.32676
24300.00000	102.24922	296.86945	102.24922
24350.00000	102.15672	295.03628	102.15672
24400.00000	102.10485	292.29165	102.10485
24450.00000	101.91840	290.52664	101.91840
24500.00000	101.78368	287.48371	101.78368
24550.00000	101.67572	284.71164	101.67572
24600.00000	101.56143	282.88372	101.56143
24650.00000	101.44049	280.34301	101.44049
24700.00000	101.35143	278.50361	101.35143
24750.00000	101.23348	275.99552	101.23348
24800.00000	101.01868	274.45045	101.01868
24850.00000	100.92345	272.33883	100.92345
24900.00000	100.73077	270.46405	100.73077
24950.00000	100.67700	268.74210	100.67700
25000.00000	100.48677	266.24485	100.48677
25050.00000	100.39716	264.96224	100.39716
25100.00000	100.28995	263.32177	100.28995
25150.00000	100.11394	261.78763	100.11394
25200.00000	100.07748	260.02789	100.07748
25250.00000	99.88703	257.82393	99.88703
25300.00000	99.74297	256.06351	99.74297
25350.00000	99.71253	254.09085	99.71253
25400.00000	99.57603	252.25333	99.57603
25450.00000	99.52868	250.13779	99.52868
25500.00000	99.41459	249.04810	99.41459
25550.00000	99.32598	247.13482	99.32598
25600.00000	99.20698	246.07608	99.20698
25650.00000	99.12015	243.54668	99.12015
25700.00000	99.07363	242.21308	99.07363
25750.00000	99.06416	239.95180	99.06416
25800.00000	98.97294	238.87695	98.97294
25850.00000	98.89778	236.62607	98.89778
25900.00000	98.78216	234.85027	98.78216
25950.00000	98.73807	233.48389	98.73807
26000.00000	98.65036	231.53341	98.65036
26050.00000	98.66833	229.44927	98.66833
26100.00000	98.62215	227.46428	98.62215
26150.00000	98.50183	225.04815	98.50183
26200.00000	98.39913	223.59382	98.39913
26250.00000	98.37139	221.46276	98.37139
26300.00000	98.24761	219.23661	98.24761
26350.00000	98.19718	217.09333	98.19718
26400.00000	98.16869	214.73053	98.16869
26450.00000	97.97790	212.00749	97.97790
26500.00000	97.91070	210.04859	97.91070
26550.00000	97.81942	208.90055	97.81942
26600.00000	97.75715	206.39700	97.75715
26650.00000	97.61103	203.77240	97.61103
26700.00000	97.47429	201.83621	97.47429
26750.00000	97.28129	199.77119	97.28129
26800.00000	97.10104	197.58507	97.10104
26850.00000	96.95664	195.94705	96.95664
26900.00000	96.80380	193.62849	96.80380
26950.00000	96.56408	191.39038	96.56408
27000.00000	96.33805	189.87182	96.33805
27050.00000	96.20257	188.09130	96.20257
27100.00000	96.02841	185.81110	96.02841
27150.00000	95.78521	183.82325	95.78521
27200.00000	95.64505	181.87398	95.64505
27250.00000	95.35461	180.49535	95.35461
27300.00000	95.12423	179.04739	95.12423
27350.00000	94.86364	177.24148	94.86364
27400.00000	94.66083	176.40206	94.66083
27450.00000	94.49729	174.32564	94.49729
27500.00000	94.19952	173.29371	94.19952
27550.00000	93.93982	172.31923	93.93982
27600.00000	93.76887	171.31881	93.76887
27650.00000	93.45634	170.15507	93.45634
27700.00000	93.19470	168.92080	93.19470
27750.00000	93.01168	168.50199	93.01168
27800.00000	92.73889	167.52268	92.73889
27850.00000	92.57242	167.28740	92.57242
27900.00000	92.40300	166.28486	92.40300
27950.00000	92.07437	166.48198	92.07437
28000.00000	91.87658	166.17111	91.87658
28050.00000	91.71320	165.81286	91.71320
28100.00000	91.48958	165.99748	91.48958
28150.00000	91.36235	165.13743	91.36235
28200.00000	91.24637	165.22289	91.24637
28250.00000	91.01973	165.38565	91.01973
28300.00000	90.87468	164.98716	90.87468
28350.00000	90.79667	165.57225	90.79667
28400.00000	90.65687	164.90630	90.65687
28450.00000	90.57344	165.30796	90.57344
28500.00000	90.56027	165.07645	90.56027
28550.00000	90.40193	165.08850	90.40193
28600.00000	90.43808	165.27784	90.43808
28650.00000	90.28233	165.91599	90.28233
28700.00000	90.25242	165.76842	90.25242
28750.00000	90.15730	166.53323	90.15730
28800.00000	90.04746	166.52619	90.04746
28850.00000	90.11072	166.54526	90.11072
28900.00000	90.14515	167.10807	90.14515
28950.00000	90.10856	167.31073	90.10856
29000.00000	90.24282	167.65086	90.24282
29050.00000	90.30440	167.58726	90.30440
29100.00000	90.28759	168.43692	90.28759
29150.00000	90.31871	167.44511	90.31871
29200.00000	90.49568	168.06470	90.49568
29250.00000	90.48255	168.79402	90.48255
29300.00000	90.61265	168.59140	90.61265
29350.00000	90.67174	169.08870	90.67174
29400.00000	90.82226	169.05983	90.82226
29450.00000	90.98416	169.07759	90.98416
29500.00000	91.08427	168.87150	91.08427
29550.00000	91.33193	169.33934	91.33193
29600.00000	91.40828	169.17420	91.40828
29650.00000	91.60919	168.56853	91.60919
29700.00000	91.80490	168.95353	91.80490
29750.00000	91.99004	168.69712	91.99004
29800.00000	92.15352	168.38217	92.15352
29850.00000	92.40373	167.98081	92.40373
29900.00000	92.55666	167.18716	92.55666
29950.00000	92.68772	167.23005	92.68772
30000.00000	92.88636	166.80334	92.88636
30050.00000	93.12826	166.72168	93.12826
30100.00000	93.42900	165.83234	93.42900
30150.00000	93.59840	165.26771	93.59840
30200.00000	93.81311	164.87127	93.81311
30250.00000	94.07100	164.01063	94.07100
30300.00000	94.28391	163.01372	94.28391
30350.00000	94.56314	162.40394	94.56314
30400.00000	94.82224	161.69293	94.82224
30450.00000	95.07865	160.67814	95.07865
30500.00000	95.33228	159.56428	95.33228
30550.00000	95.53841	158.77298	95.53841
30600.00000	95.80191	157.64263	95.80191
30650.00000	96.03577	156.72611	96.03577
30700.00000	96.30954	155.59250	96.30954
30750.00000	96.54636	154.34511	96.54636
30800.00000	96.79000	153.21420	96.79000
30850.00000	97.05556	152.03660	97.05556
30900.00000	97.35435	150.91658	97.35435
30950.00000	97.58993	149.30072	97.58993
31000.00000	97.86574	147.81271	97.86574
31050.00000	98.11019	146.51737	98.11019
31100.00000	98.41097	144.95356	98.41097
31150.00000	98.65035	143.47781	98.65035
31200.00000	98.91341	141.70031	98.91341
31250.00000	99.22778	140.18647	99.22778
31300.00000	99.50283	138.35989	99.50283
31350.00000	99.73452	136.86835	99.73452
31400.00000	99.98615	135.21497	99.98615
31450.00000	100.25338	133.51991	100.25338
31500.00000	100.53696	131.32848	100.53696
31550.00000	100.81032	129.13578	100.81032
31600.00000	101.08570	126.93847	101.08570
31650.00000	101.35362	124.96841	101.35362
31700.00000	101.54145	122.81469	101.54145
31750.00000	101.80614	120.49701	101.80614
31800.00000	102.02999	118.16263	102.02999
31850.00000	102.24988	115.98839	102.24988
31900.00000	102.46279	113.86230	102.46279
31950.00000	102.70288	111.17695	102.70288
32000.00000	102.86109	108.77341	102.86109
32050.00000	103.08337	106.22576	103.08337
32100.00000	103.27337	103.93215	103.27337
32150.00000	103.42713	101.29381	103.42713
32200.00000	103.61161	98.80258	103.61161
32250.00000	103.77421	96.30747	103.77421
32300.00000	103.89313	93.97909	103.89313
32350.00000	104.06002	91.32141	104.06002
32400.00000	104.18695	88.82729	104.18695
32450.00000	104.31928	86.37259	104.31928
32500.00000	104.42155	84.00761	104.42155
32550.00000	104.52239	81.57782	104.52239
32600.00000	104.67145	79.09050	104.67145
32650.00000	104.74541	76.68583	104.74541
32700.00000	104.81976	74.42662	104.81976
32750.00000	104.91620	71.97325	104.91620
32800.00000	104.99765	69.68236	104.99765
32850.00000	105.10051	67.41507	105.10051
32900.00000	105.15900	65.28676	105.15900
32950.00000	105.24812	63.06028	105.24812
33000.00000	105.31581	60.70713	105.31581
33050.00000	105.33471	58.62983	105.33471
33100.00000	105.45629	56.52662	105.45629
33150.00000	105.48915	54.64762	105.48915
33200.00000	105.53531	52.69359	105.53531
33250.00000	105.59532	50.79292	105.59532
33300.00000	105.68496	49.11314	105.68496
33350.00000	105.77218	47.10622	105.77218
33400.00000	105.81344	45.12277	105.81344
33450.00000	105.89220	43.21585	105.89220
33500.00000	105.94120	41.79810	105.94120
33550.00000	105.99767	39.98402	105.99767
33600.00000	106.09663	38.41051	106.09663
33650.00000	106.15715	36.72256	106.15715
33700.00000	106.22431	35.23311	106.22431
33750.00000	106.32066	33.57242	106.32066
33800.00000	106.39436	32.05350	106.39436
33850.00000	106.51613	30.75033	106.51613
33900.00000	106.63100	29.38006	106.63100
33950.00000	106.75124	27.96973	106.75124
34000.00000	106.86739	26.88809	106.86739
34050.00000	106.97965	25.64566	106.97965
34100.00000	107.14609	24.26022	107.14609
34150.00000	107.31459	23.07410	107.31459
34200.00000	107.47365	21.90551	107.47365
34250.00000	107.66485	20.47180	107.66485
34300.00000	107.87879	19.24074	107.87879
34350.00000	108.10814	17.81153	108.10814
34400.00000	108.32999	16.37041	108.32999
34450.00000	108.56947	14.94912	108.56947
34500.00000	108.78710	13.62487	108.78710
34550.00000	109.05986	12.12045	109.05986
34600.00000	109.31401	10.48365	109.31401
34650.00000	109.59419	 8.71475	109.59419
34700.00000	109.88240	 6.98334	109.88240
34750.00000	110.15805	 5.12873	110.15805
34800.00000	110.47385	 3.12481	110.47385
34850.00000	110.76399	 0.96444	110.76399
34900.00000	111.05512	-1.15774	111.05512
34950.00000	111.32471	-3.61420	111.32471
35000.00000	111.55888	-6.02809	111.55888
35050.00000	111.78184	-8.15756	111.78184
35100.00000	111.98088	-10.18170	111.98088
35150.00000	112.25005	-12.09859	112.25005
35200.00000	112.54284	-14.13008	112.54284
35250.00000	112.84315	-16.23023	112.84315
35300.00000	113.14932	-18.45044	113.14932
35350.00000	113.46844	-20.80042	113.46844
35400.00000	113.79471	-23.38089	113.79471
35450.00000	114.09935	-25.96076	114.09935
35500.00000	114.39077	-28.71637	114.39077
35550.00000	114.68259	-31.33658	114.68259
35600.00000	114.98410	-34.14904	114.98410
35650.00000	115.27242	-37.05802	115.27242
35700.00000	115.55904	-39.96875	115.55904
35750.00000	115.83317	-42.92763	115.83317
35800.00000	116.11815	-46.03250	116.11815
35850.00000	116.39443	-49.08256	116.39443
35900.00000	116.66125	-52.15637	116.66125
35950.00000	116.91843	-55.23164	116.91843
36000.00000	117.18576	-58.41302	117.18576
36050.00000	117.42622	-61.66574	117.42622
36100.00000	117.68305	-64.87519	117.68305
36150.00000	117.92431	-68.25362	117.92431
36200.00000	118.16308	-71.59846	118.16308
36250.00000	118.38702	-74.95869	118.38702
36300.00000	118.62413	-78.29630	118.62413
36350.00000	118.83857	-81.77179	118.83857
36400.00000	119.05481	-85.25042	119.05481
36450.00000	119.25527	-88.66984	119.25527
36500.00000	119.46971	-92.09909	119.46971
36550.00000	119.67672	-95.59482	119.67672
36600.00000	119.86647	-99.06271	119.86647
36650.00000	120.06224	-102.44243	120.06224
36700.00000	120.26731	-105.90464	120.26731
36750.00000	120.46507	-109.48997	120.46507
36800.00000	120.66483	-113.04594	120.66483
36850.00000	120.85372	-116.56132	120.85372
36900.00000	121.04108	-120.13930	121.04108
36950.00000	121.22944	-123.73925	121.22944
37000.00000	121.42748	-127.29673	121.42748
37050.00000	121.62410	-130.85125	121.62410
37100.00000	121.82821	-134.54364	121.82821
37150.00000	122.03185	-138.30040	122.03185
37200.00000	122.23051	-141.98570	122.23051
37250.00000	122.43621	-145.87101	122.43621
37300.00000	122.64227	-149.71617	122.64227
37350.00000	122.85377	-153.61833	122.85377
37400.00000	123.08158	-157.77927	123.08158
37450.00000	123.29667	-161.94369	123.29667
37500.00000	123.50449	-166.28773	123.50449
37550.00000	123.72137	-170.79970	123.72137
37600.00000	123.92874	-175.37488	123.92874
37650.00000	124.13720	-180.20875	124.13720
37700.00000	124.32194	-185.11421	124.32194
37750.00000	124.49006	-190.42895	124.49006
37800.00000	124.60664	-195.81418	124.60664
37850.00000	124.71481	-201.23688	124.71481
37900.00000	124.76530	-206.94854	124.76530
37950.00000	124.76359	-212.62387	124.76359
38000.00000	124.72920	-218.31467	124.72920
38050.00000	124.62356	-224.04600	124.62356
38100.00000	124.47670	-229.44982	124.47670
38150.00000	124.29752	-234.74122	124.29752
38200.00000	124.07863	-239.84923	124.07863
38250.00000	123.83422	-244.47645	123.83422
38300.00000	123.60603	-248.98219	123.60603
38350.00000	123.37203	-253.34550	123.37203
38400.00000	123.12868	-257.47194	123.12868
38450.00000	122.89102	-261.32090	122.89102
38500.00000	122.67367	-265.01911	122.67367
38550.00000	122.47633	-268.75032	122.47633
38600.00000	122.29079	-272.37355	122.29079
38650.00000	122.11407	-276.00438	122.11407
38700.00000	121.93648	-279.61544	121.93648
38750.00000	121.75655	-283.20188	121.75655
38800.00000	121.56585	-286.78005	121.56585
38850.00000	121.40523	-290.34218	121.40523
38900.00000	121.23773	-293.95046	121.23773
38950.00000	121.05749	-297.47154	121.05749
39000.00000	120.88257	-301.11610	120.88257
39050.00000	120.69248	-304.77393	120.69248
39100.00000	120.48500	-308.45941	120.48500
39150.00000	120.26979	-312.01824	120.26979
39200.00000	120.04038	-315.54227	120.04038
39250.00000	119.80744	-318.99730	119.80744
39300.00000	119.54564	-322.31002	119.54564
39350.00000	119.29428	-325.43144	119.29428
39400.00000	119.07550	-328.66596	119.07550
39450.00000	118.84750	-331.68020	118.84750
39500.00000	118.60806	-334.80365	118.60806
39550.00000	118.37246	-337.78855	118.37246
39600.00000	118.13370	-340.85754	118.13370
39650.00000	117.89218	-343.87004	117.89218
39700.00000	117.63426	-346.76824	117.63426
39750.00000	117.37843	-349.58382	117.37843
39800.00000	117.10935	-352.25921	117.10935
39850.00000	116.84632	-355.08574	116.84632
39900.00000	116.56519	-357.57459	116.56519
39950.00000	116.32520	-359.89457	116.32520
40000.00000	116.08121	-362.28135	116.08121
40050.00000	115.84947	-364.62560	115.84947
40100.00000	115.62036	-367.02128	115.62036
40150.00000	115.40344	-369.23888	115.40344
40200.00000	115.19391	-371.54325	115.19391
40250.00000	114.97715	-373.76596	114.97715
40300.00000	114.76427	-375.94881	114.76427
40350.00000	114.55629	-378.15090	114.55629
40400.00000	114.36186	-380.39889	114.36186
40450.00000	114.16363	-382.57194	114.16363
40500.00000	113.96895	-384.73045	113.96895
40550.00000	113.76314	-386.96892	113.76314
40600.00000	113.56375	-389.07102	113.56375
40650.00000	113.35382	-391.31281	113.35382
40700.00000	113.14775	-393.51482	113.14775
40750.00000	112.93457	-395.60458	112.93457
40800.00000	112.70785	-397.67129	112.70785
40850.00000	112.47431	-399.73298	112.47431
40900.00000	112.27445	-401.70458	112.27445
40950.00000	112.04146	-403.49374	112.04146
41000.00000	111.82517	-405.40696	111.82517
41050.00000	111.58297	-407.21817	111.58297
41100.00000	111.36130	-408.87466	111.36130
41150.00000	111.15393	-410.62702	111.15393
41200.00000	110.91024	-412.31883	110.91024
41250.00000	110.70785	-413.55786	110.70785
41300.00000	110.48504	-414.90416	110.48504
41350.00000	110.27335	-416.30758	110.27335
41400.00000	110.09612	-417.57241	110.09612
41450.00000	109.92389	-418.72087	109.92389
41500.00000	109.66938	-419.84862	109.66938
41550.00000	109.47414	-420.84841	109.47414
41600.00000	109.28818	-421.92214	109.28818
41650.00000	109.13566	-422.47531	109.13566
41700.00000	108.97794	-423.33706	108.97794
41750.00000	108.83635	-423.89309	108.83635
41800.00000	108.71485	-424.46470	108.71485
41850.00000	108.63071	-425.01082	108.63071
41900.00000	108.56522	-425.68770	108.56522
41950.00000	108.54356	-425.84993	108.54356
42000.00000	108.50584	-426.23582	108.50584
42050.00000	108.51673	-427.04166	108.51673
42100.00000	108.53924	-427.38022	108.53924
42150.00000	108.57699	-427.94602	108.57699
42200.00000	108.63899	-428.64705	108.63899
42250.00000	108.74249	-429.36396	108.74249
42300.00000	108.85188	-430.00564	108.85188
42350.00000	108.95277	-431.04606	108.95277
42400.00000	109.10068	-432.24521	109.10068
42450.00000	109.22076	-433.47800	109.22076
42500.00000	109.31124	-434.75167	109.31124
42550.00000	109.45194	-436.20938	109.45194
42600.00000	109.56318	-437.79598	109.56318
42650.00000	109.71807	-439.44235	109.71807
42700.00000	109.83463	-440.94618	109.83463
42750.00000	109.97853	-442.83473	109.97853
42800.00000	110.08556	-444.63296	110.08556
42850.00000	110.24139	-446.64008	110.24139
42900.00000	110.35871	-448.66699	110.35871
42950.00000	110.45005	-450.75290	110.45005
43000.00000	110.56853	-452.62378	110.56853
43050.00000	110.69944	-454.58769	110.69944
43100.00000	110.83998	-457.17066	110.83998
43150.00000	110.95533	-458.97976	110.95533
43200.00000	111.07239	-461.56028	111.07239
43250.00000	111.18684	-463.57380	111.18684
43300.00000	111.32501	-465.83686	111.32501
43350.00000	111.38174	-468.15566	111.38174
43400.00000	111.52779	-470.56335	111.52779
43450.00000	111.64948	-473.15391	111.64948
43500.00000	111.70632	-475.65062	111.70632
43550.00000	111.81054	-478.52336	111.81054
43600.00000	111.83408	-481.03763	111.83408
43650.00000	111.94511	-483.79267	111.94511
43700.00000	111.99439	-486.17389	111.99439
43750.00000	112.07438	-489.42655	112.07438
43800.00000	112.12549	-492.49760	112.12549
43850.00000	112.15692	-495.05725	112.15692
43900.00000	112.20527	-498.30681	112.20527
43950.00000	112.17837	-501.43461	112.17837
44000.00000	112.18558	-504.43326	112.18558
44050.00000	112.18119	-507.28671	112.18119
44100.00000	112.15737	-510.39166	112.15737
44150.00000	112.15732	-513.21482	112.15732
44200.00000	112.13775	-516.32161	112.13775
44250.00000	112.08001	-519.06616	112.08001
44300.00000	111.99500	-522.47335	111.99500
44350.00000	111.94484	-524.96181	111.94484
44400.00000	111.87023	-527.68847	111.87023
44450.00000	111.74029	-530.39050	111.74029
44500.00000	111.63420	-532.70888	111.63420
44550.00000	111.51316	-535.15474	111.51316
44600.00000	111.39035	-537.88982	111.39035
44650.00000	111.27141	-540.40517	111.27141
44700.00000	111.09451	-542.73934	111.09451
44750.00000	110.97150	-544.66402	110.97150
44800.00000	110.88006	-546.70472	110.88006
44850.00000	110.73503	-549.25102	110.73503
44900.00000	110.56853	-551.33269	110.56853
44950.00000	110.47812	-553.11580	110.47812
45000.00000	110.38501	-554.87395	110.38501
45050.00000	110.30503	-556.87501	110.30503
45100.00000	110.17201	-558.66742	110.17201
45150.00000	110.05760	-560.51659	110.05760
45200.00000	109.98299	-562.34717	109.98299
45250.00000	109.94594	-563.59990	109.94594
45300.00000	109.79931	-565.39945	109.79931
45350.00000	109.77788	-566.74742	109.77788
45400.00000	109.80746	-568.11391	109.80746
45450.00000	109.77295	-569.86474	109.77295
45500.00000	109.67155	-571.02576	109.67155
45550.00000	109.73996	-572.68791	109.73996
45600.00000	109.76270	-574.01492	109.76270
45650.00000	109.80326	-576.29029	109.80326
45700.00000	109.77294	-577.79765	109.77294
45750.00000	109.76623	-580.38239	109.76623
45800.00000	109.78188	-582.39235	109.78188
45850.00000	109.72371	-583.92411	109.72371
45900.00000	109.68157	-585.99895	109.68157
45950.00000	109.68573	-587.89553	109.68573
46000.00000	109.71818	-589.74806	109.71818
46050.00000	109.71479	-591.29231	109.71479
46100.00000	109.81867	-593.39469	109.81867
46150.00000	109.87052	-595.79776	109.87052
46200.00000	109.88336	-598.61025	109.88336
46250.00000	109.87946	-601.17103	109.87946
46300.00000	109.82699	-603.38777	109.82699
46350.00000	109.66988	-605.46649	109.66988
46400.00000	109.62520	-607.81655	109.62520
46450.00000	109.47468	-610.11968	109.47468
46500.00000	109.33337	-611.79728	109.33337
46550.00000	109.24397	-613.57014	109.24397
46600.00000	109.02345	-615.53221	109.02345
46650.00000	108.95659	-616.46092	108.95659
46700.00000	108.85648	-617.84978	108.85648
46750.00000	108.78718	-618.91015	108.78718
46800.00000	108.64911	-619.70941	108.64911
46850.00000	108.55443	-621.14762	108.55443
46900.00000	108.55788	-621.63936	108.55788
46950.00000	108.60330	-622.14148	108.60330
47000.00000	108.56739	-623.36144	108.56739
47050.00000	108.56902	-624.18082	108.56902
47100.00000	108.69605	-624.75345	108.69605
47150.00000	108.79677	-625.23669	108.79677
47200.00000	108.88459	-626.16191	108.88459
47250.00000	108.94144	-626.98844	108.94144
47300.00000	109.11382	-627.97458	109.11382
47350.00000	109.30559	-628.66660	109.30559
47400.00000	109.43214	-629.77144	109.43214
47450.00000	109.62041	-630.97873	109.62041
47500.00000	109.87632	-631.88752	109.87632
47550.00000	110.07229	-633.12994	110.07229
47600.00000	110.28958	-634.94848	110.28958
47650.00000	110.47588	-635.96085	110.47588
47700.00000	110.74004	-638.09826	110.74004
47750.00000	110.94826	-639.88119	110.94826
47800.00000	111.26804	-641.68579	111.26804
47850.00000	111.45385	-643.63826	111.45385
47900.00000	111.75039	-645.33202	111.75039
47950.00000	112.04985	-647.77750	112.04985
48000.00000	112.24270	-650.20806	112.24270
48050.00000	112.55967	-652.45141	112.55967
48100.00000	112.78823	-655.28468	112.78823
48150.00000	113.07569	-657.80173	113.07569
48200.00000	113.29178	-660.53047	113.29178
48250.00000	113.52526	-663.35276	113.52526
48300.00000	113.86451	-666.03176	113.86451
48350.00000	114.09091	-669.02559	114.09091
48400.00000	114.25143	-672.37531	114.25143
48450.00000	114.51377	-675.42526	114.51377
48500.00000	114.70048	-678.91377	114.70048
48550.00000	114.91528	-681.95499	114.91528
48600.00000	115.09483	-686.13421	115.09483
48650.00000	115.26939	-689.33060	115.26939
48700.00000	115.41333	-692.57128	115.41333
48750.00000	115.57266	-696.64814	115.57266
48800.00000	115.67830	-699.76880	115.67830
48850.00000	115.70869	-704.19590	115.70869
48900.00000	115.96309	-347.51167	115.96309
48950.00000	115.95010	 8.65679	115.95010
49000.00000	116.08805	364.56408	116.08805
49050.00000	116.21087	720.28173	116.21087
49100.00000	116.25282	1077.18505	116.25282
49150.00000	116.33978	1432.44583	116.33978
49200.00000	116.27393	1789.73719	116.27393
49250.00000	116.38774	2145.87252	116.38774
49300.00000	116.42019	2502.43608	116.42019
49350.00000	116.31611	2858.84370	116.31611
49400.00000	116.18222	3214.15325	116.18222
49450.00000	116.25546	3570.97478	116.25546
49500.00000	116.19662	3927.96650	116.19662
49550.00000	116.13406	4284.00910	116.13406
49600.00000	116.10460	4640.57174	116.10460
49650.00000	116.08857	4996.03807	116.08857
49700.00000	115.84637	5353.06077	115.84637
49750.00000	115.80395	5710.20355	115.80395
49800.00000	115.68143	5707.40075	115.68143
49850.00000	115.66755	6422.46136	115.66755
49900.00000	115.62908	6420.16419	115.62908
49950.00000	115.39607	6777.16776	115.39607
50000.00000	115.43215	6774.08165	115.43215
50050.00000	115.23822	6771.21854	115.23822
50100.00000	115.09046	6767.86641	115.09046
50150.00000	115.08535	6765.02055	115.08535
50200.00000	114.96819	6761.85038	114.96819
50250.00000	114.78354	6759.33493	114.78354
50300.00000	114.74120	6756.55402	114.74120
50350.00000	114.59163	6754.44171	114.59163
50400.00000	114.57323	6751.51096	114.57323
50450.00000	114.34788	6748.80493	114.34788
50500.00000	114.26010	6747.21505	114.26010
50550.00000	114.11313	6744.00733	114.11313
50600.00000	114.15982	6741.39507	114.15982
50650.00000	114.10743	6739.30173	114.10743
50700.00000	113.85591	6736.37243	113.85591
50750.00000	113.78823	6734.09864	113.78823
50800.00000	113.76058	6731.32871	113.76058
50850.00000	113.71204	6729.38132	113.71204
50900.00000	113.54993	6726.28434	113.54993
50950.00000	113.57554	6723.73939	113.57554
51000.00000	113.65484	6720.92445	113.65484
51050.00000	113.64714	6719.10768	113.64714
51100.00000	113.50845	6715.95014	113.50845
51150.00000	113.43568	6712.91460	113.43568
51200.00000	113.39172	6710.36391	113.39172
51250.00000	113.37341	6708.02083	113.37341
51300.00000	113.38506	6704.24344	113.38506
51350.00000	113.33770	6702.75170	113.33770
51400.00000	113.29542	6698.65517	113.29542
51450.00000	113.07134	6696.57333	113.07134
51500.00000	113.04326	6693.46996	113.04326
51550.00000	112.95273	6690.08613	112.95273
51600.00000	112.80339	6686.75105	112.80339
51650.00000	112.50570	6683.77567	112.50570
51700.00000	112.47223	6680.47235	112.47223
51750.00000	112.20084	6678.00139	112.20084
51800.00000	112.03057	6674.76507	112.03057
51850.00000	111.85972	6671.17959	111.85972
51900.00000	111.53605	6668.66888	111.53605
51950.00000	111.12676	6666.23330	111.12676
52000.00000	110.78140	6664.32142	110.78140
52050.00000	110.61890	6661.96927	110.61890
52100.00000	110.22785	6660.78052	110.22785
52150.00000	109.86897	6659.54617	109.86897
52200.00000	109.57971	6657.92763	109.57971
52250.00000	109.31918	6656.82360	109.31918
52300.00000	108.77928	6657.79245	108.77928
52350.00000	108.81203	6656.63336	108.81203
52400.00000	108.55239	6655.77491	108.55239
52450.00000	108.46959	6655.04741	108.46959
52500.00000	108.32383	6655.12676	108.32383
52550.00000	108.22282	6656.23842	108.22282
52600.00000	108.11005	6655.68679	108.11005
52650.00000	108.24069	6655.61744	108.24069
52700.00000	108.26867	6656.18560	108.26867
52750.00000	108.35074	6655.91790	108.35074
52800.00000	108.51325	6655.20234	108.51325
52850.00000	108.55036	6655.06752	108.55036
52900.00000	108.75382	6654.52948	108.75382
52950.00000	108.95805	6653.63607	108.95805
53000.00000	109.11870	6652.28436	109.11870
53050.00000	109.31840	6651.32027	109.31840
53100.00000	109.53439	6649.61046	109.53439
53150.00000	109.82580	6649.25734	109.82580
53200.00000	109.88821	6646.80300	109.88821
53250.00000	110.23010	6645.81004	110.23010
53300.00000	110.44591	6642.97565	110.44591
53350.00000	110.52892	6641.79408	110.52892
53400.00000	110.90515	6640.04759	110.90515
53450.00000	111.09114	6637.26084	111.09114
53500.00000	111.35271	6635.31332	111.35271
53550.00000	111.65187	6632.77513	111.65187
53600.00000	111.82120	6629.59981	111.82120
53650.00000	112.07722	6627.28582	112.07722
53700.00000	112.27998	6624.19556	112.27998
53750.00000	112.45617	6621.16808	112.45617
53800.00000	112.62550	6618.54978	112.62550
53850.00000	112.82724	6615.47416	112.82724
53900.00000	112.97029	6612.92616	112.97029
53950.00000	113.15315	6608.94578	113.15315
54000.00000	113.31651	6605.48816	113.31651
54050.00000	113.45647	6601.79539	113.45647
54100.00000	113.59713	6598.57254	113.59713
54150.00000	113.74442	6594.58733	113.74442
54200.00000	113.65522	6591.54711	113.65522
54250.00000	113.81728	6587.25193	113.81728
54300.00000	113.88459	6583.50254	113.88459
54350.00000	113.96112	6580.19175	113.96112
54400.00000	114.12466	6576.97946	114.12466
54450.00000	114.08861	6572.83241	114.08861
54500.00000	114.02720	6569.46486	114.02720
54550.00000	113.96184	6565.68024	113.96184
54600.00000	113.98887	6562.51637	113.98887
54650.00000	114.00305	6558.19578	114.00305
54700.00000	113.94304	6554.89827	113.94304
54750.00000	114.00789	6551.41104	114.00789
54800.00000	113.84968	6547.59260	113.84968
54850.00000	113.70997	6544.48184	113.70997
54900.00000	113.76990	6540.84404	113.76990
54950.00000	113.66462	6537.90509	113.66462
55000.00000	113.73689	6534.17893	113.73689
55050.00000	113.56245	6530.85472	113.56245
55100.00000	113.53981	6527.77074	113.53981
55150.00000	113.48691	6524.16228	113.48691
55200.00000	113.38363	6520.85510	113.38363
55250.00000	113.30878	6517.65405	113.30878
55300.00000	113.30029	6514.20225	113.30029
55350.00000	113.19980	6511.14652	113.19980
55400.00000	113.13480	6507.70162	113.13480
55450.00000	113.05111	6504.65315	113.05111
55500.00000	113.05128	6501.00501	113.05128
55550.00000	112.96548	6497.48257	112.96548
55600.00000	112.86135	6494.09186	112.86135
55650.00000	112.79642	6490.61961	112.79642
55700.00000	112.70664	6487.10953	112.70664
55750.00000	112.62449	6483.64056	112.62449
55800.00000	112.50317	6479.86360	112.50317
55850.00000	112.42772	6476.12997	112.42772
55900.00000	112.28136	6472.58800	112.28136
55950.00000	112.11170	6469.08458	112.11170
56000.00000	112.03769	6465.17093	112.03769
56050.00000	111.85910	6461.87086	111.85910
56100.00000	111.66396	6458.07205	111.66396
56150.00000	111.47164	6454.54535	111.47164
56200.00000	111.27407	6450.92016	111.27407
56250.00000	111.02569	6447.05291	111.02569
56300.00000	110.80412	6443.55759	110.80412
56350.00000	110.58891	6440.14065	110.58891
56400.00000	110.28055	6437.15730	110.28055
56450.00000	110.01797	6433.62991	110.01797
56500.00000	109.76365	6430.40786	109.76365
56550.00000	109.44404	6427.16200	109.44404
56600.00000	109.13672	6424.29356	109.13672
56650.00000	108.85054	6421.43485	108.85054
56700.00000	108.53788	6418.67617	108.53788
56750.00000	108.20620	6416.22315	108.20620
56800.00000	107.90853	6413.67951	107.90853
56850.00000	107.61502	6411.21578	107.61502
56900.00000	107.31635	6408.99265	107.31635
56950.00000	106.97005	6406.59421	106.97005
57000.00000	106.66345	6404.57805	106.66345
57050.00000	106.38867	6402.30593	106.38867
57100.00000	106.14184	6400.48583	106.14184
57150.00000	105.83388	6398.59672	105.83388
57200.00000	105.52753	6396.70794	105.52753
57250.00000	105.30252	6394.58432	105.30252
57300.00000	105.08105	6392.89990	105.08105
57350.00000	104.80624	6391.34846	104.80624
57400.00000	104.52627	6389.77909	104.52627
57450.00000	104.27729	6387.50229	104.27729
57500.00000	104.02033	6385.62812	104.02033
57550.00000	103.78286	6384.19151	103.78286
57600.00000	103.53583	6382.71680	103.53583
57650.00000	103.25168	6381.15528	103.25168
57700.00000	102.99217	6379.73479	102.99217
57750.00000	102.75571	6378.53124	102.75571
57800.00000	102.51202	6377.03911	102.51202
57850.00000	102.31458	6376.23980	102.31458
57900.00000	102.03595	6374.75539	102.03595
57950.00000	101.82479	6373.64500	101.82479
58000.00000	101.61152	6373.19098	101.61152
58050.00000	101.40946	6371.88014	101.40946
58100.00000	101.26397	6371.06250	101.26397
58150.00000	101.10108	6370.81912	101.10108
58200.00000	100.92931	6369.46178	100.92931
58250.00000	100.74646	6368.53241	100.74646
58300.00000	100.62211	6367.73825	100.62211
58350.00000	100.50517	6366.63393	100.50517
58400.00000	100.36903	6366.04345	100.36903
58450.00000	100.21853	6365.24477	100.21853
58500.00000	100.08675	6364.74664	100.08675
58550.00000	99.98845	6364.03246	99.98845
58600.00000	99.85831	6363.41830	99.85831
58650.00000	99.73727	6362.84814	99.73727
58700.00000	99.63161	6362.52302	99.63161
58750.00000	99.52159	6362.24005	99.52159
58800.00000	99.45573	6362.25002	99.45573
58850.00000	99.41089	6362.18159	99.41089
58900.00000	99.35052	6362.19178	99.35052
58950.00000	99.30785	6362.41974	99.30785
59000.00000	99.32746	6362.29711	99.32746
59050.00000	99.42649	6362.75327	99.42649
59100.00000	99.47979	6362.79458	99.47979
59150.00000	99.59602	6363.24708	99.59602
59200.00000	99.73251	6363.26506	99.73251
59250.00000	99.91474	6363.66863	99.91474
59300.00000	100.16428	6363.83215	100.16428
59350.00000	100.39022	6363.33980	100.39022
59400.00000	100.68381	6363.37178	100.68381
59450.00000	100.95124	6362.66270	100.95124
59500.00000	101.35643	6362.26000	101.35643
59550.00000	101.73626	6361.71610	101.73626
59600.00000	102.15455	6360.88717	102.15455
59650.00000	102.63797	6359.40429	102.63797
59700.00000	103.11858	6357.84430	103.11858
59750.00000	103.60852	6355.67834	103.60852
59800.00000	104.06090	6353.51968	104.06090
59850.00000	104.59924	6350.37032	104.59924
59900.00000	105.05758	6346.91147	105.05758
59950.00000	105.54677	6343.14302	105.54677
60000.00000	105.95530	6338.81979	105.95530
60050.00000	106.28442	6334.21465	106.28442
60100.00000	106.56390	6329.26476	106.56390
60150.00000	106.77162	6324.33699	106.77162
60200.00000	106.93047	6319.11338	106.93047
60250.00000	107.00821	6313.92278	107.00821
60300.00000	107.01408	6308.80696	107.01408
60350.00000	106.94712	6304.10772	106.94712
60400.00000	106.86195	6299.49372	106.86195
60450.00000	106.75032	6295.10393	106.75032
60500.00000	106.60886	6290.92949	106.60886
60550.00000	106.43477	6286.91754	106.43477
60600.00000	106.24213	6283.43454	106.24213
60650.00000	106.06398	6279.77328	106.06398
60700.00000	105.85447	6276.40162	105.85447
60750.00000	105.63819	6273.13363	105.63819
60800.00000	105.45354	6270.32609	105.45354
60850.00000	105.25375	6267.19068	105.25375
60900.00000	105.04391	6264.67262	105.04391
60950.00000	104.82276	6262.13576	104.82276
61000.00000	104.64454	6259.76029	104.64454
61050.00000	104.45685	6257.42930	104.45685
61100.00000	104.31671	6255.33113	104.31671
61150.00000	104.10988	6253.13636	104.10988
61200.00000	104.04316	6251.28617	104.04316
61250.00000	103.83049	6249.45371	103.83049
61300.00000	103.75945	6247.44044	103.75945
61350.00000	103.60073	6245.63493	103.60073
61400.00000	103.51639	6244.11979	103.51639
61450.00000	103.43180	6242.18391	103.43180
61500.00000	103.31224	6240.72530	103.31224
61550.00000	103.25822	6238.88666	103.25822
61600.00000	103.25750	6237.63918	103.25750
61650.00000	103.19138	6235.72170	103.19138
61700.00000	103.16619	6234.21536	103.16619
61750.00000	103.16156	6232.79227	103.16156
61800.00000	103.18666	6231.24992	103.18666
61850.00000	103.19763	6229.59886	103.19763
61900.00000	103.28021	6228.10518	103.28021
61950.00000	103.35473	6226.70394	103.35473
62000.00000	103.50258	6224.76387	103.50258
62050.00000	103.65415	6222.64644	103.65415
62100.00000	103.83433	6220.89924	103.83433
62150.00000	103.94146	6218.64190	103.94146
62200.00000	104.09365	6216.05953	104.09365
62250.00000	104.24665	6213.38254	104.24665
62300.00000	104.38020	6210.26981	104.38020
62350.00000	104.46408	6207.36022	104.46408
62400.00000	104.61986	6204.28409	104.61986
62450.00000	104.67285	6201.09078	104.67285
62500.00000	104.71534	6198.02930	104.71534
62550.00000	104.75474	6194.65278	104.75474
62600.00000	104.78550	6191.38981	104.78550
62650.00000	104.78415	6187.81629	104.78415
62700.00000	104.79455	6184.88880	104.79455
62750.00000	104.75802	6181.73041	104.75802
62800.00000	104.70825	6178.49013	104.70825
62850.00000	104.72761	6175.39492	104.72761
62900.00000	104.65544	6172.32934	104.65544
62950.00000	104.56943	6169.09270	104.56943
63000.00000	104.51097	6166.15546	104.51097
63050.00000	104.46646	6163.41716	104.46646
63100.00000	104.42410	6160.20463	104.42410
63150.00000	104.31612	6157.44415	104.31612
63200.00000	104.23973	6154.51546	104.23973
63250.00000	104.16706	6152.11495	104.16706
63300.00000	104.10618	6149.11992	104.10618
63350.00000	104.02476	6146.72553	104.02476
63400.00000	103.96203	6144.05826	103.96203
63450.00000	103.88300	6141.72684	103.88300
63500.00000	103.85252	6138.89493	103.85252
63550.00000	103.83821	6136.46936	103.83821
63600.00000	103.76693	6134.02042	103.76693
63650.00000	103.71939	6131.40993	103.71939
63700.00000	103.73100	6128.96491	103.73100
63750.00000	103.74340	6126.47829	103.74340
63800.00000	103.72678	6124.06986	103.72678
63850.00000	103.74634	6121.38672	103.74634
63900.00000	103.79052	6118.91916	103.79052
63950.00000	103.89118	6115.74546	103.89118
64000.00000	103.88474	6112.41015	103.88474
64050.00000	104.01478	6109.59592	104.01478
64100.00000	104.07449	6105.24624	104.07449
64150.00000	104.10006	6101.27656	104.10006
64200.00000	104.08500	6096.86430	104.08500
64250.00000	103.93351	6092.37074	103.93351
64300.00000	103.65983	6088.38574	103.65983
64350.00000	103.30801	6084.07069	103.30801
64400.00000	103.07202	6080.95407	103.07202
64450.00000	102.57143	6078.07528	102.57143
64500.00000	102.28246	6075.81524	102.28246
64550.00000	101.99604	6074.03920	101.99604
64600.00000	101.79027	6073.02023	101.79027
64650.00000	101.56451	6071.57030	101.56451
64700.00000	101.47133	6070.41339	101.47133
64750.00000	101.44281	6069.05017	101.44281
64800.00000	101.38919	6067.81171	101.38919
64850.00000	101.49255	6065.45354	101.49255
64900.00000	101.49133	6063.88980	101.49133
64950.00000	101.52788	6061.95819	101.52788
65000.00000	101.61488	6059.06750	101.61488
65050.00000	101.72663	6056.87801	101.72663
65100.00000	101.72837	6054.04461	101.72837
65150.00000	101.72095	6051.20081	101.72095
65200.00000	101.78707	6048.56925	101.78707
65250.00000	101.80122	6045.59178	101.80122
65300.00000	101.87890	6042.10576	101.87890
65350.00000	101.88550	6038.79642	101.88550
65400.00000	101.84599	6035.57860	101.84599
65450.00000	101.93136	6031.81258	101.93136
65500.00000	101.86425	6028.00353	101.86425
65550.00000	101.77095	6024.48585	101.77095
65600.00000	101.66746	6020.40354	101.66746
65650.00000	101.57884	6016.40471	101.57884
65700.00000	101.43720	6012.50808	101.43720
65750.00000	101.23368	6008.73666	101.23368
65800.00000	101.10356	6005.05332	101.10356
65850.00000	100.87693	6001.59075	100.87693
65900.00000	100.59286	5998.44915	100.59286
65950.00000	100.37879	5994.89374	100.37879
66000.00000	100.10029	5991.95990	100.10029
66050.00000	99.85358	5988.68694	99.85358
66100.00000	99.58729	5985.67244	99.58729
66150.00000	99.28289	5983.02114	99.28289
66200.00000	99.02011	5979.79778	99.02011
66250.00000	98.76009	5977.19706	98.76009
66300.00000	98.36005	5974.55018	98.36005
66350.00000	98.14936	5971.82880	98.14936
66400.00000	97.88429	5969.51822	97.88429
66450.00000	97.53153	5967.30329	97.53153
66500.00000	97.23206	5965.12543	97.23206
66550.00000	96.92767	5963.27253	96.92767
66600.00000	96.59086	5961.50880	96.59086
66650.00000	96.35866	5959.65058	96.35866
66700.00000	96.17297	5958.29217	96.17297
66750.00000	95.70699	5956.57205	95.70699
66800.00000	95.60436	5954.42244	95.60436
66850.00000	95.42777	5953.30219	95.42777
66900.00000	95.16837	5952.61216	95.16837
66950.00000	94.99735	5950.56647	94.99735
67000.00000	94.92408	5949.16785	94.92408
67050.00000	94.71694	5947.38174	94.71694
67100.00000	94.46225	5945.72180	94.46225
67150.00000	94.43196	5944.57137	94.43196
67200.00000	94.14910	5943.53416	94.14910
67250.00000	93.96769	5940.94622	93.96769
67300.00000	93.85575	5940.65925	93.85575
67350.00000	93.65887	5938.82645	93.65887
67400.00000	93.51177	5938.55671	93.51177
67450.00000	93.42447	5938.00450	93.42447
67500.00000	93.37458	5936.79755	93.37458
67550.00000	93.28557	5935.98740	93.28557
67600.00000	93.35568	5934.60110	93.35568
67650.00000	93.19063	5933.66019	93.19063
67700.00000	93.25559	5932.15806	93.25559
67750.00000	93.40506	5931.00378	93.40506
67800.00000	93.48454	5929.90786	93.48454
67850.00000	93.44935	5926.99338	93.44935
67900.00000	93.38702	5925.55870	93.38702
67950.00000	93.39009	5923.55366	93.39009
68000.00000	93.44193	5921.25183	93.44193
68050.00000	93.37408	5919.96530	93.37408
68100.00000	93.37196	5918.06658	93.37196
68150.00000	93.31725	5916.18412	93.31725
68200.00000	93.34531	5914.57750	93.34531
68250.00000	93.36947	5913.09320	93.36947
68300.00000	93.48120	5910.65953	93.48120
68350.00000	93.37045	5908.79819	93.37045
68400.00000	93.35190	5907.73141	93.35190
68450.00000	93.47320	5905.54850	93.47320
68500.00000	93.59648	5903.48044	93.59648
68550.00000	93.53621	5901.79224	93.53621
68600.00000	93.63254	5899.16324	93.63254
68650.00000	93.75504	5897.88631	93.75504
68700.00000	93.79845	5894.68593	93.79845
68750.00000	93.83338	5892.80100	93.83338
68800.00000	93.93724	5890.48837	93.93724
68850.00000	93.96320	5888.24794	93.96320
68900.00000	94.06093	5885.90881	94.06093
68950.00000	94.17368	5883.91275	94.17368
69000.00000	94.22845	5880.74970	94.22845
69050.00000	94.32786	5878.33496	94.32786
69100.00000	94.47352	5876.29701	94.47352
69150.00000	94.64115	5872.96101	94.64115
69200.00000	94.72049	5870.47806	94.72049
69250.00000	94.86184	5867.35064	94.86184
69300.00000	95.02195	5864.14649	95.02195
69350.00000	95.17496	5860.96219	95.17496
69400.00000	95.25357	5856.97476	95.25357
69450.00000	95.46656	5853.34199	95.46656
69500.00000	95.55113	5849.24398	95.55113
69550.00000	95.59664	5844.39407	95.59664
69600.00000	95.63997	5840.51475	95.63997
69650.00000	95.71533	5836.03999	95.71533
69700.00000	95.71476	5831.37584	95.71476
69750.00000	95.69754	5826.36849	95.69754
69800.00000	95.57467	5821.41956	95.57467
69850.00000	95.45036	5816.23536	95.45036
69900.00000	95.30730	5811.65443	95.30730
69950.00000	95.06769	5807.00705	95.06769
70000.00000	94.87679	5802.67790	94.87679
70050.00000	94.65585	5798.20120	94.65585
70100.00000	94.29562	5793.57456	94.29562
70150.00000	94.01785	5789.03658	94.01785
70200.00000	93.67566	5785.05659	93.67566
70250.00000	93.40500	5781.01806	93.40500
70300.00000	93.06442	5777.10368	93.06442
70350.00000	92.66365	5773.39803	92.66365
70400.00000	92.24592	5769.93085	92.24592
70450.00000	92.05845	5766.25109	92.05845
70500.00000	91.49496	5762.13086	91.49496
70550.00000	91.07879	5758.64433	91.07879
70600.00000	90.67105	5756.06915	90.67105
70650.00000	89.98258	5754.04397	89.98258
70700.00000	89.52085	5750.30914	89.52085
70750.00000	89.14446	5750.15182	89.14446
70800.00000	88.62545	5748.43798	88.62545
70850.00000	88.35594	5748.66700	88.35594
70900.00000	88.40741	5748.54614	88.40741
70950.00000	88.61755	5747.54388	88.61755
71000.00000	88.96057	5743.86537	88.96057
71050.00000	88.98412	5741.02336	88.98412
71100.00000	89.06711	5734.37334	89.06711
71150.00000	89.03659	5729.50796	89.03659
71200.00000	88.61829	5722.74334	88.61829
71250.00000	88.31915	5717.21564	88.31915
71300.00000	87.83025	5712.19292	87.83025
71350.00000	87.22818	5707.51526	87.22818
71400.00000	87.00806	5701.62633	87.00806
71450.00000	86.75615	5699.33660	86.75615
71500.00000	85.67727	5692.84738	85.67727
71550.00000	85.58874	5686.09660	85.58874
71600.00000	84.98011	5682.46304	84.98011
71650.00000	84.07439	5675.85198	84.07439
71700.00000	83.44263	5669.40845	83.44263
71750.00000	82.06084	5663.95786	82.06084
71800.00000	81.09604	5656.00296	81.09604
71850.00000	80.47427	5655.56653	80.47427
71900.00000	78.03433	5650.31021	78.03433
71950.00000	77.39215	5639.73377	77.39215
72000.00000	76.82475	5646.62217	76.82475
72050.00000	74.44666	5641.96097	74.44666
72100.00000	74.37633	5638.34062	74.37633
72150.00000	72.17769	5643.58079	72.17769
72200.00000	70.21395	5627.85347	70.21395
72250.00000	71.14747	5620.14543	71.14747
72300.00000	65.33047	5616.94850	65.33047
72350.00000	67.48392	5580.71607	67.48392
72400.00000	65.42299	5568.95023	65.42299
72450.00000	62.41394	5506.23611	62.41394
72500.00000	67.60842	5500.50602	67.60842
72550.00000	65.50376	5467.55322	65.50376
72600.00000	71.11389	5459.52018	71.11389
72650.00000	71.02156	5462.20382	71.02156
72700.00000	72.58788	5422.69953	72.58788
72750.00000	73.79009	5438.57279	73.79009
72800.00000	71.87210	5430.41453	71.87210
72850.00000	75.36344	5407.08433	75.36344
72900.00000	74.27167	5416.76456	74.27167
72950.00000	73.66102	5406.72513	73.66102
73000.00000	75.32461	5405.78248	75.32461
73050.00000	73.61065	5412.22915	73.61065
73100.00000	74.02104	5391.51534	74.02104
73150.00000	75.46302	5402.59258	75.46302
73200.00000	73.65243	5412.62794	73.65243
73250.00000	73.94800	5391.67631	73.94800
73300.00000	76.16928	5414.89658	76.16928
73350.00000	72.84942	5407.53427	72.84942
73400.00000	75.81032	5397.26593	75.81032
73450.00000	76.59065	5416.59829	76.59065
73500.00000	74.30163	5412.24269	74.30163
73550.00000	77.12663	5400.34149	77.12663
73600.00000	77.87590	5416.61471	77.87590
73650.00000	77.62886	5401.25666	77.62886
73700.00000	80.48386	5404.38615	80.48386
73750.00000	79.87145	5408.76654	79.87145
73800.00000	80.65944	5395.38341	80.65944
73850.00000	82.59061	5396.15370	82.59061
73900.00000	80.92839	5390.19301	80.92839
73950.00000	82.55042	5379.34869	82.55042
74000.00000	82.91927	5383.50826	82.91927
74050.00000	81.90909	5371.72145	81.90909
74100.00000	84.04532	5369.64082	84.04532
74150.00000	83.67163	5371.07410	83.67163
74200.00000	83.14285	5354.57508	83.14285
74250.00000	84.65606	5351.62179	84.65606
74300.00000	84.29372	5338.33941	84.29372
74350.00000	84.99627	5321.04223	84.99627
74400.00000	84.28441	5280.28590	84.28441
74450.00000	79.35245	5107.75192	79.35245
74500.00000	85.40641	5037.65068	85.40641
74550.00000	84.88595	5021.59066	84.88595
74600.00000	83.43416	4995.91689	83.43416
74650.00000	86.10159	4989.12920	86.10159
74700.00000	83.34862	4989.71702	83.34862
74750.00000	84.95035	4967.71997	84.95035
74800.00000	86.03568	4977.45971	86.03568
74850.00000	83.35171	4964.98906	83.35171
74900.00000	85.89083	4951.85651	85.89083
74950.00000	84.67100	4963.69181	84.67100
75000.00000	82.94291	4942.80516	82.94291
75050.00000	85.54338	4945.23270	85.54338
75100.00000	82.96939	4949.31646	82.96939
75150.00000	82.80789	4930.36287	82.80789
75200.00000	84.40886	4941.04566	84.40886
75250.00000	80.39207	4933.87572	80.39207
75300.00000	83.02325	4920.51921	83.02325
75350.00000	82.50922	4939.99001	82.50922
75400.00000	79.89213	4921.45789	79.89213
75450.00000	82.90825	4923.54344	82.90825
75500.00000	80.31724	4941.20598	80.31724
75550.00000	80.09354	4907.31600	80.09354
75600.00000	83.40204	4930.71489	83.40204
75650.00000	78.83346	4935.89615	78.83346
75700.00000	81.51502	4906.20465	81.51502
75750.00000	82.12437	4933.71721	82.12437
75800.00000	77.86983	4918.28307	77.86983
75850.00000	82.70030	4913.12729	82.70030
75900.00000	81.10939	4935.16414	81.10939
75950.00000	79.24362	4904.80153	79.24362
76000.00000	83.23155	4915.12473	83.23155
76050.00000	79.61179	4927.42478	79.61179
76100.00000	81.22615	4896.79066	81.22615
76150.00000	83.32582	4918.36216	83.32582
76200.00000	78.33075	4913.55106	78.33075
76250.00000	83.46414	4897.78984	83.46414
76300.00000	82.45651	4922.15870	82.45651
76350.00000	79.85649	4889.03841	79.85649
76400.00000	84.37272	4898.79106	84.37272
76450.00000	80.93375	4916.91741	80.93375
76500.00000	82.08082	4883.70171	82.08082
76550.00000	84.27086	4904.19645	84.27086
76600.00000	79.82284	4899.22686	79.82284
76650.00000	84.14920	4880.18558	84.14920
76700.00000	83.60792	4903.79382	83.60792
76750.00000	81.12450	4873.19240	81.12450
76800.00000	84.88216	4876.22666	84.88216
76850.00000	81.72291	4890.94204	81.72291
76900.00000	83.07513	4857.68475	83.07513
76950.00000	85.07149	4881.87693	85.07149
77000.00000	80.77833	4872.07906	80.77833
77050.00000	84.81374	4857.95552	84.81374
77100.00000	83.75967	4877.32833	83.75967
77150.00000	82.07841	4847.97947	82.07841
77200.00000	85.71592	4857.85268	85.71592
77250.00000	82.28946	4861.35936	82.28946
77300.00000	83.59633	4838.10057	83.59633
77350.00000	84.51954	4854.91858	84.51954
77400.00000	81.10428	4836.99555	81.10428
77450.00000	84.66588	4832.06554	84.66588
77500.00000	82.69004	4848.42698	82.69004
77550.00000	81.92135	4818.15482	81.92135
77600.00000	84.11741	4829.73907	84.11741
77650.00000	80.30808	4829.99860	80.30808
77700.00000	82.95269	4809.35105	82.95269
77750.00000	81.57377	4828.26850	81.57377
77800.00000	79.59684	4810.78060	79.59684
77850.00000	82.37060	4810.84045	82.37060
77900.00000	80.05225	4825.99177	80.05225
77950.00000	80.57244	4792.87159	80.57244
78000.00000	81.38986	4814.98270	81.38986
78050.00000	77.98153	4802.63231	77.98153
78100.00000	80.62784	4793.03508	80.62784
78150.00000	78.59500	4814.26177	78.59500
78200.00000	77.39472	4785.50185	77.39472
78250.00000	80.02852	4799.51569	80.02852
78300.00000	76.37200	4806.91567	76.37200
78350.00000	77.86077	4784.01074	77.86077
78400.00000	78.57298	4805.70130	78.57298
78450.00000	74.88785	4793.89933	74.88785
78500.00000	78.08508	4793.08595	78.08508
78550.00000	76.92138	4810.82482	76.92138
78600.00000	76.06441	4788.88209	76.06441
78650.00000	78.33110	4800.67875	78.33110
78700.00000	76.05163	4805.35931	76.05163
78750.00000	77.68175	4794.78514	77.68175
78800.00000	77.40363	4806.54517	77.40363
78850.00000	76.37634	4795.81193	76.37634
78900.00000	78.47814	4796.39679	78.47814
78950.00000	77.15400	4806.80994	77.15400
79000.00000	77.79647	4791.83804	77.79647
79050.00000	78.95345	4801.78976	78.95345
79100.00000	77.43715	4796.27861	77.43715
79150.00000	79.46399	4793.38444	79.46399
79200.00000	79.24654	4797.91582	79.24654
79250.00000	79.18683	4787.28554	79.18683
79300.00000	80.05640	4792.04594	80.05640
79350.00000	79.54522	4786.58005	79.54522
79400.00000	80.29685	4784.09812	80.29685
79450.00000	80.42147	4783.15788	80.42147
79500.00000	80.69391	4778.08928	80.69391
79550.00000	81.44978	4778.63905	81.44978
79600.00000	81.17208	4773.53282	81.17208
79650.00000	81.78176	4768.55635	81.78176
79700.00000	81.67621	4766.64971	81.67621
79750.00000	81.77059	4761.79725	81.77059
79800.00000	82.32889	4758.96855	82.32889
79850.00000	81.84163	4754.86580	81.84163
79900.00000	82.16347	4750.50884	82.16347
79950.00000	82.23389	4745.51823	82.23389
80000.00000	82.17201	4741.08164	82.17201
80050.00000	82.00804	4738.61892	82.00804
80100.00000	81.81827	4733.55812	81.81827
80150.00000	81.58956	4729.44275	81.58956
80200.00000	81.39307	4726.14250	81.39307
80250.00000	81.27824	4721.86043	81.27824
80300.00000	81.11313	4722.02031	81.11313
80350.00000	80.96917	4715.91909	80.96917
80400.00000	80.84832	4714.06224	80.84832
80450.00000	80.61996	4710.42370	80.61996
80500.00000	80.55699	4705.89684	80.55699
80550.00000	80.25063	4703.51056	80.25063
80600.00000	80.06851	4701.35303	80.06851
80650.00000	79.83887	4699.96194	79.83887
80700.00000	79.28946	4697.78730	79.28946
80750.00000	79.57561	4694.54839	79.57561
80800.00000	78.67202	4695.35177	78.67202
80850.00000	78.85067	4690.37377	78.85067
80900.00000	78.79725	4691.79471	78.79725
80950.00000	78.02510	4689.20264	78.02510
81000.00000	78.12218	4687.52636	78.12218
81050.00000	78.05700	4687.47280	78.05700
81100.00000	77.87824	4685.33843	77.87824
81150.00000	78.21633	4685.89619	78.21633
81200.00000	77.69492	4683.19037	77.69492
81250.00000	77.79715	4680.41518	77.79715
81300.00000	77.98014	4680.26039	77.98014
81350.00000	78.22868	4675.50206	78.22868
81400.00000	77.86448	4674.20065	77.86448
81450.00000	77.92364	4669.10350	77.92364
81500.00000	78.30363	4664.40787	78.30363
81550.00000	78.12726	4659.64884	78.12726
81600.00000	78.08135	4653.88743	78.08135
81650.00000	77.54695	4647.27109	77.54695
81700.00000	77.30074	4640.87226	77.30074
81750.00000	76.39872	4635.99976	76.39872
81800.00000	75.01828	4626.00547	75.01828
81850.00000	74.13721	4612.35076	74.13721
81900.00000	72.06478	4602.21073	72.06478
81950.00000	68.76283	4578.16569	68.76283
82000.00000	63.39475	4530.80588	63.39475
82050.00000	64.32646	4456.26035	64.32646
82100.00000	70.12096	4422.90367	70.12096
82150.00000	73.93417	4400.96733	73.93417
82200.00000	76.08354	4388.65593	76.08354
82250.00000	77.69463	4376.89867	77.69463
82300.00000	79.12841	4365.97850	79.12841
82350.00000	79.90454	4355.59912	79.90454
82400.00000	80.47337	4349.17733	80.47337
82450.00000	81.20999	4341.20566	81.20999
82500.00000	81.62464	4333.25421	81.62464
82550.00000	81.96503	4327.57650	81.96503
82600.00000	82.47340	4321.47266	82.47340
82650.00000	82.68140	4313.45931	82.68140
82700.00000	83.01416	4307.00723	83.01416
82750.00000	83.20810	4300.81600	83.20810
82800.00000	83.37497	4293.65931	83.37497
82850.00000	83.24248	4286.34455	83.24248
82900.00000	83.34700	4279.89746	83.34700
82950.00000	83.19594	4272.36338	83.19594
83000.00000	83.08199	4267.11616	83.08199
83050.00000	82.83606	4261.25126	82.83606
83100.00000	82.59468	4256.98192	82.59468
83150.00000	82.16559	4253.24431	82.16559
83200.00000	82.06606	4250.25607	82.06606
83250.00000	81.90977	4248.77065	81.90977
83300.00000	81.81576	4245.37901	81.81576
83350.00000	81.75883	4245.35865	81.75883
83400.00000	81.29012	4243.92090	81.29012
83450.00000	81.29806	4241.90951	81.29806
83500.00000	81.07603	4240.34933	81.07603
83550.00000	80.96092	4240.44925	80.96092
83600.00000	81.01320	4239.19522	81.01320
83650.00000	80.94096	4237.41905	80.94096
83700.00000	81.18654	4236.04569	81.18654
83750.00000	81.21232	4235.00343	81.21232
83800.00000	81.52741	4233.40296	81.52741
83850.00000	81.45517	4232.17693	81.45517
83900.00000	81.66097	4232.31688	81.66097
83950.00000	81.75731	4229.99963	81.75731
84000.00000	82.20447	4227.24217	82.20447
84050.00000	82.31603	4225.41825	82.31603
84100.00000	82.43232	4222.28022	82.43232
84150.00000	82.75771	4221.35840	82.75771
84200.00000	83.40207	4219.27513	83.40207
84250.00000	83.54229	4215.57445	83.54229
84300.00000	83.99567	4211.32136	83.99567
84350.00000	84.46952	4207.83433	84.46952
84400.00000	84.81557	4204.84832	84.81557
84450.00000	85.06837	4200.88483	85.06837
84500.00000	85.41773	4196.23054	85.41773
84550.00000	85.62953	4190.30975	85.62953
84600.00000	86.00916	4185.87246	86.00916
84650.00000	86.17845	4181.27454	86.17845
84700.00000	86.34087	4175.21670	86.34087
84750.00000	86.56362	4170.13049	86.56362
84800.00000	86.63411	4164.78568	86.63411
84850.00000	86.80656	4158.78542	86.80656
84900.00000	86.95447	4154.52882	86.95447
84950.00000	87.15052	4149.15871	87.15052
85000.00000	87.14095	4143.44789	87.14095
85050.00000	87.36867	4137.43836	87.36867
85100.00000	87.36637	4130.99736	87.36637
85150.00000	87.38385	4123.97841	87.38385
85200.00000	87.34367	4118.19245	87.34367
85250.00000	87.77573	4111.54014	87.77573
85300.00000	87.30248	4105.99795	87.30248
85350.00000	87.16201	4098.97021	87.16201
85400.00000	86.97242	4093.38192	86.97242
85450.00000	86.91937	4085.71135	86.91937
85500.00000	86.79795	4079.14636	86.79795
85550.00000	86.50764	4072.51532	86.50764
85600.00000	86.19556	4066.72982	86.19556
85650.00000	86.06284	4060.23141	86.06284
85700.00000	85.44333	4052.87983	85.44333
85750.00000	85.30393	4047.12494	85.30393
85800.00000	84.92795	4041.47326	84.92795
85850.00000	84.45210	4035.60872	84.45210
85900.00000	84.01586	4028.19691	84.01586
85950.00000	83.62981	4023.69978	83.62981
86000.00000	83.42151	4018.07257	83.42151
86050.00000	82.79562	4011.24351	82.79562
86100.00000	82.81455	4006.51507	82.81455
86150.00000	82.22759	3998.81606	82.22759
86200.00000	82.14783	3992.10991	82.14783
86250.00000	81.20113	3988.81676	81.20113
86300.00000	80.99689	3980.02292	80.99689
86350.00000	80.66331	3974.41671	80.66331
86400.00000	79.76901	3966.24882	79.76901
86450.00000	79.24476	3962.10339	79.24476
86500.00000	78.24171	3954.33594	78.24171
86550.00000	78.19523	3950.78746	78.19523
86600.00000	77.87550	3946.21085	77.87550
86650.00000	77.45366	3938.00516	77.45366
86700.00000	77.12919	3932.51491	77.12919
86750.00000	76.68624	3928.30992	76.68624
86800.00000	76.43134	3922.15482	76.43134
86850.00000	75.95907	3916.09030	75.95907
86900.00000	75.53058	3912.15797	75.53058
86950.00000	75.47949	3905.31297	75.47949
87000.00000	75.41900	3898.47129	75.41900
87050.00000	75.47187	3893.35509	75.47187
87100.00000	74.94645	3884.92757	74.94645
87150.00000	75.38337	3879.14421	75.38337
87200.00000	74.77062	3871.56383	74.77062
87250.00000	74.12420	3867.90794	74.12420
87300.00000	73.89834	3858.83350	73.89834
87350.00000	74.12146	3857.48200	74.12146
87400.00000	74.43749	3845.87586	74.43749
87450.00000	73.78693	3842.68941	73.78693
87500.00000	73.86004	3841.64232	73.86004
87550.00000	73.81458	3831.02978	73.81458
87600.00000	73.49058	3824.56229	73.49058
87650.00000	73.41785	3818.16256	73.41785
87700.00000	73.23154	3816.78511	73.23154
87750.00000	73.21243	3808.59742	73.21243
87800.00000	72.63303	3803.33470	72.63303
87850.00000	73.21143	3798.57274	73.21143
87900.00000	72.42777	3797.21642	72.42777
87950.00000	72.59025	3793.75039	72.59025
88000.00000	71.90931	3784.09533	71.90931
88050.00000	72.04666	3777.06464	72.04666
88100.00000	72.31224	3774.45890	72.31224
88150.00000	71.72480	3772.03170	71.72480
88200.00000	71.89852	3771.51508	71.89852
88250.00000	70.63896	3769.47676	70.63896
88300.00000	70.63849	3765.21227	70.63849
88350.00000	70.75012	3763.52317	70.75012
88400.00000	69.91603	3760.63060	69.91603
88450.00000	69.77631	3762.20951	69.77631
88500.00000	70.02942	3762.63498	70.02942
88550.00000	69.89985	3763.87253	69.89985
88600.00000	69.27835	3756.72892	69.27835
88650.00000	69.60531	3760.83362	69.60531
88700.00000	68.80898	3760.27877	68.80898
88750.00000	69.28234	3761.32498	69.28234
88800.00000	70.15576	3760.23010	70.15576
88850.00000	69.73119	3757.19125	69.73119
88900.00000	70.41789	3753.28335	70.41789
88950.00000	69.67702	3754.69835	69.67702
89000.00000	70.03047	3754.91259	70.03047
89050.00000	70.03884	3753.22260	70.03884
89100.00000	69.92144	3749.52208	69.92144
89150.00000	70.03864	3750.14541	70.03864
89200.00000	70.60206	3749.04777	70.60206
89250.00000	70.28620	3746.00057	70.28620
89300.00000	70.82348	3745.75258	70.82348
89350.00000	70.79818	3742.85440	70.79818
89400.00000	71.35077	3743.90731	71.35077
89450.00000	71.70242	3745.05520	71.70242
89500.00000	71.82281	3740.81558	71.82281
89550.00000	72.06991	3736.22223	72.06991
89600.00000	72.43234	3734.00547	72.43234
89650.00000	72.40672	3731.75479	72.40672
89700.00000	72.37823	3733.80591	72.37823
89750.00000	72.68701	3731.77747	72.68701
89800.00000	72.61566	3733.30940	72.61566
89850.00000	72.67417	3729.17116	72.67417
89900.00000	73.24273	3728.45072	73.24273
89950.00000	73.45428	3731.75857	73.45428
90000.00000	73.74167	3737.10224	73.74167
90050.00000	74.70623	3739.61248	74.70623
90100.00000	77.43230	3740.67472	77.43230
90150.00000	78.53569	3736.96132	78.53569
90200.00000	81.19976	3729.59532	81.19976
90250.00000	82.74109	3706.35311	82.74109
90300.00000	82.99047	3686.25661	82.99047
90350.00000	81.29170	3670.83215	81.29170
90400.00000	80.74956	3667.33587	80.74956
90450.00000	80.18343	3662.28598	80.18343
90500.00000	79.15581	3656.68223	79.15581
90550.00000	79.05302	3652.35274	79.05302
90600.00000	78.31488	3650.11912	78.31488
90650.00000	78.88116	3648.29064	78.88116
90700.00000	78.34468	3642.78489	78.34468
90750.00000	78.27925	3641.16278	78.27925
90800.00000	78.49301	3635.78739	78.49301
90850.00000	78.48424	3632.82582	78.48424
90900.00000	78.14972	3625.60388	78.14972
90950.00000	78.33775	3625.98066	78.33775
91000.00000	78.24397	3623.21110	78.24397
91050.00000	78.12287	3614.94650	78.12287
91100.00000	78.46956	3611.66527	78.46956
91150.00000	78.00363	3609.31305	78.00363
91200.00000	77.85459	3604.53903	77.85459
91250.00000	78.04273	3600.26630	78.04273
91300.00000	77.39893	3596.82010	77.39893
91350.00000	77.27422	3592.12904	77.27422
91400.00000	77.10216	3589.01128	77.10216
91450.00000	76.82185	3585.42794	76.82185
91500.00000	76.94197	3579.78167	76.94197
91550.00000	76.47989	3577.08277	76.47989
91600.00000	76.72070	3575.13894	76.72070
91650.00000	75.95946	3570.22886	75.95946
91700.00000	75.79548	3565.93004	75.79548
91750.00000	75.35133	3568.02500	75.35133
91800.00000	75.10818	3563.39259	75.10818
91850.00000	74.67660	3558.68586	74.67660
91900.00000	74.89274	3554.30253	74.89274
91950.00000	74.25262	3553.03805	74.25262
92000.00000	74.05856	3557.63268	74.05856
92050.00000	73.16708	3552.71327	73.16708
92100.00000	73.31862	3549.16951	73.31862
92150.00000	72.78351	3542.75501	72.78351
92200.00000	72.75371	3546.31403	72.75371
92250.00000	72.26587	3547.07884	72.26587
92300.00000	72.21354	3542.35796	72.21354
92350.00000	72.34838	3547.04999	72.34838
92400.00000	70.97736	3548.53569	70.97736
92450.00000	71.56550	3543.60775	71.56550
92500.00000	71.62761	3552.42355	71.62761
92550.00000	71.25105	3546.58249	71.25105
92600.00000	71.19910	3549.35269	71.19910
92650.00000	71.03038	3547.93467	71.03038
92700.00000	71.21284	3551.60336	71.21284
92750.00000	72.01098	3555.55378	72.01098
92800.00000	71.86987	3553.80453	71.86987
92850.00000	72.37451	3552.67798	72.37451
92900.00000	72.61879	3548.09316	72.61879
92950.00000	72.71441	3550.74107	72.71441
93000.00000	72.07935	3552.81510	72.07935
93050.00000	72.78917	3548.33131	72.78917
93100.00000	73.08771	3552.45103	73.08771
93150.00000	73.27170	3549.26439	73.27170
93200.00000	73.59046	3545.31708	73.59046
93250.00000	74.25746	3546.41571	74.25746
93300.00000	73.56416	3546.96983	73.56416
93350.00000	73.94794	3540.30568	73.94794
93400.00000	74.68581	3539.41258	74.68581
93450.00000	74.78747	3541.39180	74.78747
93500.00000	75.25272	3533.85717	75.25272
93550.00000	74.65757	3532.81149	74.65757
93600.00000	75.16802	3536.22959	75.16802
93650.00000	74.84739	3528.15935	74.84739
93700.00000	75.31427	3528.03049	75.31427
93750.00000	75.97358	3525.77631	75.97358
93800.00000	75.55679	3522.24433	75.55679
93850.00000	75.81304	3520.17819	75.81304
93900.00000	75.32993	3519.54516	75.32993
93950.00000	75.51039	3516.20622	75.51039
94000.00000	75.46883	3513.29768	75.46883
94050.00000	75.50433	3515.32585	75.50433
94100.00000	75.22955	3509.54548	75.22955
94150.00000	75.35274	3506.67015	75.35274
94200.00000	75.75566	3507.99244	75.75566
94250.00000	75.94824	3505.28460	75.94824
94300.00000	76.02814	3501.78465	76.02814
94350.00000	75.83976	3499.36401	75.83976
94400.00000	75.97340	3495.70627	75.97340
94450.00000	76.17848	3496.83868	76.17848
94500.00000	76.34417	3493.53656	76.34417
94550.00000	76.43873	3487.24602	76.43873
94600.00000	76.52093	3483.84094	76.52093
94650.00000	76.36428	3482.89898	76.36428
94700.00000	76.95770	3481.42060	76.95770
94750.00000	76.09300	3476.82055	76.09300
94800.00000	76.13799	3468.20904	76.13799
94850.00000	76.12316	3471.31284	76.12316
94900.00000	76.36771	3466.13816	76.36771
94950.00000	76.51467	3465.49335	76.51467
95000.00000	76.79172	3461.33188	76.79172
95050.00000	75.83403	3459.50026	75.83403
95100.00000	76.51611	3458.41843	76.51611
95150.00000	76.64013	3451.91875	76.64013
95200.00000	76.43338	3451.32416	76.43338
95250.00000	76.90430	3452.61978	76.90430
95300.00000	77.03407	3446.12839	77.03407
95350.00000	77.20779	3441.63259	77.20779
95400.00000	76.93068	3437.02364	76.93068
95450.00000	77.19436	3433.16152	77.19436
95500.00000	77.38973	3431.23732	77.38973
95550.00000	77.25440	3425.45722	77.25440
95600.00000	77.25939	3421.37415	77.25939
95650.00000	77.23070	3418.87564	77.23070
95700.00000	77.23327	3414.84363	77.23327
95750.00000	77.73975	3413.64385	77.73975
95800.00000	76.46333	3409.85742	76.46333
95850.00000	77.02783	3410.21640	77.02783
95900.00000	77.95421	3407.53444	77.95421
95950.00000	77.88760	3408.50177	77.88760
96000.00000	77.35320	3403.79945	77.35320
96050.00000	77.61477	3397.20854	77.61477
96100.00000	79.00374	3387.20733	79.00374
96150.00000	78.65184	3384.69319	78.65184
96200.00000	79.39858	3377.47778	79.39858
96250.00000	79.01352	3371.40318	79.01352
96300.00000	80.06957	3369.68094	80.06957
96350.00000	79.47618	3357.71379	79.47618
96400.00000	79.00629	3358.15727	79.00629
96450.00000	79.15158	3353.55321	79.15158
96500.00000	79.49222	3356.04813	79.49222
96550.00000	78.58375	3353.54250	78.58375
96600.00000	78.73104	3344.63752	78.73104
96650.00000	80.04902	3337.80767	80.04902
96700.00000	77.42602	3342.04298	77.42602
96750.00000	79.79394	3332.33013	79.79394
96800.00000	79.51978	3336.04911	79.51978
96850.00000	78.75182	3317.77951	78.75182
96900.00000	80.33175	3318.58081	80.33175
96950.00000	82.13724	3317.63185	82.13724
97000.00000	82.61398	3315.57303	82.61398
97050.00000	81.49196	3322.76173	81.49196
97100.00000	82.65043	3318.00934	82.65043
97150.00000	84.49080	3299.49443	84.49080
97200.00000	83.16759	3302.46416	83.16759
97250.00000	83.50835	3274.84981	83.50835
97300.00000	84.62277	3261.67228	84.62277
97350.00000	80.98495	3236.82999	80.98495
97400.00000	80.92821	3228.42877	80.92821
97450.00000	76.72288	3234.28533	76.72288
97500.00000	76.57558	3248.26151	76.57558
97550.00000	74.38663	3253.74781	74.38663
97600.00000	75.35006	3243.99361	75.35006
97650.00000	74.42058	3242.58939	74.42058
97700.00000	75.08859	3236.91282	75.08859
97750.00000	73.68376	3247.08452	73.68376
97800.00000	74.25662	3240.75238	74.25662
97850.00000	73.07182	3240.01800	73.07182
97900.00000	73.34920	3239.08922	73.34920
97950.00000	72.90022	3239.33726	72.90022
98000.00000	72.98424	3231.41192	72.98424
98050.00000	73.36998	3230.78349	73.36998
98100.00000	72.51544	3240.93116	72.51544
98150.00000	71.95645	3236.17317	71.95645
98200.00000	70.93820	3231.38385	70.93820
98250.00000	72.26325	3234.13700	72.26325
98300.00000	71.48372	3224.61595	71.48372
98350.00000	70.60050	3227.19799	70.60050
98400.00000	71.23119	3222.60709	71.23119
98450.00000	70.50058	3223.63277	70.50058
98500.00000	69.85492	3210.29867	69.85492
98550.00000	68.37063	3207.74237	68.37063
98600.00000	69.36542	3214.37863	69.36542
98650.00000	67.08256	3215.55117	67.08256
98700.00000	66.93817	3201.27124	66.93817
98750.00000	67.74446	3191.55572	67.74446
98800.00000	64.83768	3187.21272	64.83768
98850.00000	65.99048	3199.69983	65.99048
98900.00000	66.51211	3184.86681	66.51211
98950.00000	64.03336	3197.67364	64.03336
99000.00000	63.09878	3196.68260	63.09878
99050.00000	64.08064	3175.46376	64.08064
99100.00000	61.59442	3171.56991	61.59442
99150.00000	63.07762	3180.58178	63.07762
99200.00000	60.42403	3165.12584	60.42403
99250.00000	61.42722	3165.81074	61.42722
99300.00000	59.56059	3166.18905	59.56059
99350.00000	60.39427	3149.01681	60.39427
99400.00000	57.91629	3159.78375	57.91629
99450.00000	56.19988	3174.85286	56.19988
99500.00000	55.90306	3167.07186	55.90306
99550.00000	55.34186	3116.99674	55.34186
99600.00000	48.10914	3090.72673	48.10914
99650.00000	57.94374	3126.05345	57.94374
99700.00000	57.87575	3103.66273	57.87575
99750.00000	53.05170	3140.01525	53.05170
99800.00000	53.21171	3076.28119	53.21171
99850.00000	52.39423	3096.96209	52.39423
99900.00000	48.18642	3046.12297	48.18642
99950.00000	51.75291	3058.02028	51.75291
