---ACOUSTIC CALIBRATION---
Filename: C:\Data\CL0809 DATA\CL08095\RightPrimary.calib
Date: 8/9/2019 4:10:06 PM
Format: 4
Probe Tube Correction File: C:\Data\Probe Tube Calibrations\74_ProbeTube.calib
Experiment VIs: 2128
EPL_CFTS.exe V15.0.1f5 (2015)
DAQmx V15.1

Attenuation (dB): 40.000000
Min Freq (Hz): 50.000000
Max Freq (Hz): 99950.000000
Freq Step (Hz): 50.000000
Sample Rate (Hz): 200000.000000
[Smoothing]
Method=None
MA.Iterations=0
MA.Length=0
Loess.Length=0
Loess.Type=Linear
Loess.Robust=FALSE


Freq(Hz)	Mag(dB)	Phase(deg)	Unsmoothed(dB)

50.00000	94.29129	254.87235	94.29129
100.00000	68.04181	284.83314	68.04181
150.00000	70.41897	506.29813	70.41897
200.00000	64.77318	487.43424	64.77318
250.00000	60.54399	659.68921	60.54399
300.00000	64.05891	894.43046	64.05891
350.00000	63.66667	1023.52382	63.66667
400.00000	49.65211	1119.76746	49.65211
450.00000	63.90307	1121.91684	63.90307
500.00000	60.07055	1239.89767	60.07055
550.00000	72.48195	1191.15460	72.48195
600.00000	67.45030	1111.96277	67.45030
650.00000	78.09975	1117.09963	78.09975
700.00000	72.11364	1120.77913	72.11364
750.00000	80.08391	1078.94206	80.08391
800.00000	77.16473	1078.01734	77.16473
850.00000	79.12213	1073.80134	79.12213
900.00000	78.22276	1084.73988	78.22276
950.00000	82.59481	1081.93349	82.59481
1000.00000	83.96662	1083.87553	83.96662
1050.00000	87.63014	1074.05282	87.63014
1100.00000	89.62955	1057.21653	89.62955
1150.00000	90.94836	1045.02457	90.94836
1200.00000	91.45520	1033.13581	91.45520
1250.00000	92.34415	1027.88011	92.34415
1300.00000	93.72001	1017.25800	93.72001
1350.00000	94.82894	1006.81877	94.82894
1400.00000	95.29882	991.09606	95.29882
1450.00000	94.90296	983.27939	94.90296
1500.00000	95.27992	975.43265	95.27992
1550.00000	95.12839	970.45124	95.12839
1600.00000	96.12678	965.34942	96.12678
1650.00000	96.49766	962.91181	96.49766
1700.00000	100.56250	946.84799	100.56250
1750.00000	97.24625	926.43393	97.24625
1800.00000	97.02851	922.01713	97.02851
1850.00000	96.42482	914.59153	96.42482
1900.00000	96.44550	910.66804	96.44550
1950.00000	95.77139	904.95416	95.77139
2000.00000	95.72338	903.99087	95.72338
2050.00000	95.93920	899.37753	95.93920
2100.00000	96.33172	895.86812	96.33172
2150.00000	96.67714	885.93695	96.67714
2200.00000	96.22879	877.51198	96.22879
2250.00000	95.48640	870.97759	95.48640
2300.00000	95.05412	871.45877	95.05412
2350.00000	95.43573	864.87263	95.43573
2400.00000	95.16318	859.19891	95.16318
2450.00000	94.86965	850.97479	94.86965
2500.00000	93.69876	848.10010	93.69876
2550.00000	93.63440	846.00100	93.63440
2600.00000	92.97106	841.42964	92.97106
2650.00000	92.72830	840.41324	92.72830
2700.00000	92.16240	835.74299	92.16240
2750.00000	91.80996	834.93437	91.80996
2800.00000	91.29540	830.84853	91.29540
2850.00000	90.83748	830.47735	90.83748
2900.00000	90.60934	827.76034	90.60934
2950.00000	90.33596	827.20594	90.33596
3000.00000	90.14469	823.99206	90.14469
3050.00000	89.59270	822.33879	89.59270
3100.00000	89.38543	819.63476	89.38543
3150.00000	88.52574	817.57371	88.52574
3200.00000	88.31643	817.03142	88.31643
3250.00000	87.70615	815.70097	87.70615
3300.00000	87.44017	815.89831	87.44017
3350.00000	86.79335	813.45582	86.79335
3400.00000	86.37764	813.00498	86.37764
3450.00000	85.61176	810.58845	85.61176
3500.00000	84.58493	813.69496	84.58493
3550.00000	84.16458	811.09269	84.16458
3600.00000	82.55257	813.37308	82.55257
3650.00000	81.55037	818.42319	81.55037
3700.00000	79.65136	829.02398	79.65136
3750.00000	79.21046	839.37002	79.21046
3800.00000	78.98133	858.92338	78.98133
3850.00000	80.49973	865.56985	80.49973
3900.00000	81.66422	874.17298	81.66422
3950.00000	82.28722	881.43034	82.28722
4000.00000	82.74514	892.59339	82.74514
4050.00000	84.71853	899.31399	84.71853
4100.00000	86.37309	904.35625	86.37309
4150.00000	89.01908	905.54074	89.01908
4200.00000	90.80027	904.34588	90.80027
4250.00000	91.80851	895.68849	91.80851
4300.00000	92.68661	895.62703	92.68661
4350.00000	93.92753	894.88329	93.92753
4400.00000	95.36004	891.46396	95.36004
4450.00000	96.31707	884.68780	96.31707
4500.00000	96.99829	878.91179	96.99829
4550.00000	97.22225	875.48201	97.22225
4600.00000	97.77775	874.83896	97.77775
4650.00000	98.65921	874.58274	98.65921
4700.00000	99.72246	873.04894	99.72246
4750.00000	100.82758	870.26016	100.82758
4800.00000	101.93913	867.06543	101.93913
4850.00000	103.07842	863.12829	103.07842
4900.00000	104.21898	858.04818	104.21898
4950.00000	105.40880	853.06225	105.40880
5000.00000	106.67944	846.97478	106.67944
5050.00000	108.07777	840.06014	108.07777
5100.00000	109.69363	831.45934	109.69363
5150.00000	111.63950	819.76529	111.63950
5200.00000	114.02842	800.09641	114.02842
5250.00000	115.48583	762.19789	115.48583
5300.00000	112.03011	719.80735	112.03011
5350.00000	106.23438	705.16652	106.23438
5400.00000	101.70174	710.29586	101.70174
5450.00000	98.80916	720.56481	98.80916
5500.00000	96.33428	733.81024	96.33428
5550.00000	95.17762	757.33640	95.17762
5600.00000	96.64035	777.01953	96.64035
5650.00000	98.92855	784.39294	98.92855
5700.00000	100.65993	782.26921	100.65993
5750.00000	101.56060	778.39557	101.56060
5800.00000	102.03589	775.97410	102.03589
5850.00000	102.38984	775.01072	102.38984
5900.00000	102.92281	774.78995	102.92281
5950.00000	103.54777	774.46039	103.54777
6000.00000	104.29959	773.95134	104.29959
6050.00000	105.11014	772.32910	105.11014
6100.00000	105.94505	770.51758	105.94505
6150.00000	106.81203	767.84457	106.81203
6200.00000	107.67383	765.08057	107.67383
6250.00000	108.62413	761.50955	108.62413
6300.00000	109.58250	757.08249	109.58250
6350.00000	110.57176	751.86267	110.57176
6400.00000	111.52127	745.46046	111.52127
6450.00000	112.39478	738.17561	112.39478
6500.00000	113.17995	730.10497	113.17995
6550.00000	113.86270	721.17331	113.86270
6600.00000	114.44330	711.81688	114.44330
6650.00000	114.88942	701.54831	114.88942
6700.00000	115.14697	690.63916	115.14697
6750.00000	115.13960	679.27638	115.13960
6800.00000	114.82478	668.54336	114.82478
6850.00000	114.33187	659.02906	114.33187
6900.00000	113.70753	650.70557	113.70753
6950.00000	113.05756	643.87864	113.05756
7000.00000	112.43607	637.79092	112.43607
7050.00000	111.82720	632.74587	111.82720
7100.00000	111.30756	628.19849	111.30756
7150.00000	110.80337	623.88740	110.80337
7200.00000	110.36893	620.15683	110.36893
7250.00000	109.98504	616.16715	109.98504
7300.00000	109.58300	612.52157	109.58300
7350.00000	109.25797	608.82212	109.25797
7400.00000	108.89286	605.20380	108.89286
7450.00000	108.58059	601.75807	108.58059
7500.00000	108.23344	597.91740	108.23344
7550.00000	107.86826	594.58546	107.86826
7600.00000	107.52957	591.02408	107.52957
7650.00000	107.10687	587.77849	107.10687
7700.00000	106.77654	584.84929	106.77654
7750.00000	106.35878	581.70323	106.35878
7800.00000	105.98869	579.53671	105.98869
7850.00000	105.63832	576.83388	105.63832
7900.00000	105.26153	574.82808	105.26153
7950.00000	104.97371	572.82484	104.97371
8000.00000	104.63459	570.97084	104.63459
8050.00000	104.38255	569.49590	104.38255
8100.00000	104.12624	567.60432	104.12624
8150.00000	103.91151	566.44693	103.91151
8200.00000	103.74540	564.59575	103.74540
8250.00000	103.52296	563.22330	103.52296
8300.00000	103.45483	561.86751	103.45483
8350.00000	103.32546	560.01701	103.32546
8400.00000	103.24125	558.62012	103.24125
8450.00000	103.17768	556.53146	103.17768
8500.00000	103.03900	555.03462	103.03900
8550.00000	103.06920	553.51554	103.06920
8600.00000	103.01030	551.30938	103.01030
8650.00000	103.00458	549.79205	103.00458
8700.00000	103.01194	547.21134	103.01194
8750.00000	102.97340	545.47419	102.97340
8800.00000	103.05698	543.04561	103.05698
8850.00000	103.03307	540.57484	103.03307
8900.00000	103.07133	538.50919	103.07133
8950.00000	103.12140	535.48790	103.12140
9000.00000	103.09481	533.01551	103.09481
9050.00000	103.17499	529.99365	103.17499
9100.00000	103.10262	526.78191	103.10262
9150.00000	103.19628	524.12487	103.19628
9200.00000	103.18648	520.52885	103.18648
9250.00000	103.11692	517.51543	103.11692
9300.00000	103.18655	513.74913	103.18655
9350.00000	103.01937	509.96746	103.01937
9400.00000	102.97126	506.51474	102.97126
9450.00000	102.82943	502.42271	102.82943
9500.00000	102.64759	499.12966	102.64759
9550.00000	102.51957	495.07566	102.51957
9600.00000	102.22182	491.41756	102.22182
9650.00000	102.02467	488.65228	102.02467
9700.00000	101.72293	484.78233	101.72293
9750.00000	101.38312	482.02781	101.38312
9800.00000	100.97074	478.85560	100.97074
9850.00000	100.43400	476.45571	100.43400
9900.00000	99.95906	476.10525	99.95906
9950.00000	99.44894	476.19064	99.44894
10000.00000	99.38337	480.02181	99.38337
10050.00000	100.07377	479.74351	100.07377
10100.00000	100.39184	475.96076	100.39184
10150.00000	100.43232	472.22026	100.43232
10200.00000	100.30650	468.45803	100.30650
10250.00000	100.14395	466.62066	100.14395
10300.00000	100.12549	464.07464	100.12549
10350.00000	99.97495	461.48751	99.97495
10400.00000	99.89723	459.63589	99.89723
10450.00000	99.89650	457.00981	99.89650
10500.00000	99.87421	455.00276	99.87421
10550.00000	99.91604	452.62543	99.91604
10600.00000	99.95134	449.71487	99.95134
10650.00000	100.01050	447.33127	100.01050
10700.00000	100.07783	444.01354	100.07783
10750.00000	100.09985	441.19764	100.09985
10800.00000	100.20581	437.67160	100.20581
10850.00000	100.22107	434.01266	100.22107
10900.00000	100.28203	430.75749	100.28203
10950.00000	100.29782	426.77325	100.29782
11000.00000	100.29544	422.77456	100.29544
11050.00000	100.25457	418.79449	100.25457
11100.00000	100.22826	414.51950	100.22826
11150.00000	100.14580	410.16287	100.14580
11200.00000	100.08834	406.00463	100.08834
11250.00000	99.89617	401.16789	99.89617
11300.00000	99.74139	397.03750	99.74139
11350.00000	99.59820	392.22138	99.59820
11400.00000	99.33327	387.54365	99.33327
11450.00000	99.09917	382.92284	99.09917
11500.00000	98.84780	378.16008	98.84780
11550.00000	98.56409	373.37308	98.56409
11600.00000	98.26949	369.03354	98.26949
11650.00000	97.93376	364.28243	97.93376
11700.00000	97.60663	359.68454	97.60663
11750.00000	97.23302	355.26788	97.23302
11800.00000	96.89760	351.17709	96.89760
11850.00000	96.56165	346.89642	96.56165
11900.00000	96.16948	342.73492	96.16948
11950.00000	95.78708	338.58359	95.78708
12000.00000	95.42079	334.91480	95.42079
12050.00000	95.00681	331.17794	95.00681
12100.00000	94.56563	327.59024	94.56563
12150.00000	94.11475	324.03698	94.11475
12200.00000	93.70936	319.87748	93.70936
12250.00000	93.30352	316.57927	93.30352
12300.00000	92.76086	312.08612	92.76086
12350.00000	92.42671	308.36904	92.42671
12400.00000	91.88571	303.59383	91.88571
12450.00000	91.54634	299.38311	91.54634
12500.00000	91.19993	295.62378	91.19993
12550.00000	90.77583	291.21436	90.77583
12600.00000	90.50196	285.63962	90.50196
12650.00000	90.16426	281.26021	90.16426
12700.00000	89.76906	275.44602	89.76906
12750.00000	89.48834	270.94675	89.48834
12800.00000	89.31575	265.59379	89.31575
12850.00000	88.91204	260.57116	88.91204
12900.00000	88.72101	253.80733	88.72101
12950.00000	88.53218	247.30883	88.53218
13000.00000	88.45395	240.94331	88.45395
13050.00000	88.30008	233.56112	88.30008
13100.00000	88.26292	226.62681	88.26292
13150.00000	88.54553	219.37090	88.54553
13200.00000	88.88287	210.40510	88.88287
13250.00000	89.57518	200.53762	89.57518
13300.00000	90.56598	195.53434	90.56598
13350.00000	91.78272	189.23702	91.78272
13400.00000	93.20705	187.86350	93.20705
13450.00000	94.30749	192.39180	94.30749
13500.00000	94.28605	200.93628	94.28605
13550.00000	93.56060	202.49469	93.56060
13600.00000	92.33185	200.60735	92.33185
13650.00000	91.13243	193.98743	91.13243
13700.00000	90.30581	184.56516	90.30581
13750.00000	89.98416	171.74434	89.98416
13800.00000	90.01975	159.05253	90.01975
13850.00000	90.53295	145.22565	90.53295
13900.00000	91.23676	131.79891	91.23676
13950.00000	92.46639	120.36124	92.46639
14000.00000	94.13210	110.44632	94.13210
14050.00000	96.19639	104.95965	96.19639
14100.00000	98.38556	103.35722	98.38556
14150.00000	100.01727	111.35247	100.01727
14200.00000	100.11180	121.99878	100.11180
14250.00000	98.97077	129.57366	98.97077
14300.00000	97.58962	129.73312	97.58962
14350.00000	96.35299	124.24109	96.35299
14400.00000	95.58011	118.22373	95.58011
14450.00000	95.00526	109.76790	95.00526
14500.00000	94.67932	100.92648	94.67932
14550.00000	94.70481	91.41185	94.70481
14600.00000	94.88215	83.74788	94.88215
14650.00000	95.36975	75.75250	95.36975
14700.00000	95.94443	67.67302	95.94443
14750.00000	96.66716	61.64233	96.66716
14800.00000	97.51369	56.53157	97.51369
14850.00000	98.52854	54.35174	98.52854
14900.00000	99.44309	54.03530	99.44309
14950.00000	99.96288	56.03405	99.96288
15000.00000	100.05750	57.99443	100.05750
15050.00000	99.92374	59.57113	99.92374
15100.00000	99.57883	59.57421	99.57883
15150.00000	99.01499	57.23044	99.01499
15200.00000	98.69125	53.44983	98.69125
15250.00000	98.45450	49.47907	98.45450
15300.00000	98.28133	43.82251	98.28133
15350.00000	98.45004	38.48729	98.45004
15400.00000	98.64978	32.41716	98.64978
15450.00000	98.94418	26.76332	98.94418
15500.00000	99.43875	22.12375	99.43875
15550.00000	99.77763	18.51057	99.77763
15600.00000	100.37913	15.22327	100.37913
15650.00000	100.84233	13.42117	100.84233
15700.00000	101.02816	12.05807	101.02816
15750.00000	101.30574	11.06717	101.30574
15800.00000	101.26462	 9.92397	101.26462
15850.00000	101.25987	 8.75518	101.25987
15900.00000	101.01547	 6.01439	101.01547
15950.00000	100.89832	 2.61164	100.89832
16000.00000	100.75944	-0.82551	100.75944
16050.00000	100.77533	-4.53261	100.77533
16100.00000	100.82691	-8.37681	100.82691
16150.00000	101.00525	-12.42666	101.00525
16200.00000	101.24803	-15.60705	101.24803
16250.00000	101.49593	-19.25480	101.49593
16300.00000	101.69037	-22.09604	101.69037
16350.00000	102.00692	-24.74980	102.00692
16400.00000	102.20579	-26.78032	102.20579
16450.00000	102.42626	-28.71458	102.42626
16500.00000	102.50314	-31.28305	102.50314
16550.00000	102.50956	-33.75402	102.50956
16600.00000	102.57230	-36.54563	102.57230
16650.00000	102.53036	-40.06730	102.53036
16700.00000	102.55808	-43.81265	102.55808
16750.00000	102.58396	-47.22532	102.58396
16800.00000	102.57201	-50.71978	102.57201
16850.00000	102.64425	-54.33298	102.64425
16900.00000	102.75379	-57.16749	102.75379
16950.00000	102.79236	-60.09308	102.79236
17000.00000	102.87762	-62.74068	102.87762
17050.00000	102.95860	-65.25467	102.95860
17100.00000	102.97262	-67.69148	102.97262
17150.00000	102.92874	-69.82905	102.92874
17200.00000	102.96486	-72.40988	102.96486
17250.00000	102.94774	-74.88978	102.94774
17300.00000	102.89887	-77.63427	102.89887
17350.00000	102.89680	-80.68962	102.89680
17400.00000	102.91590	-83.13421	102.91590
17450.00000	102.98835	-85.75318	102.98835
17500.00000	103.01605	-88.52596	103.01605
17550.00000	103.03744	-91.34554	103.03744
17600.00000	103.12595	-93.35340	103.12595
17650.00000	103.20804	-95.50943	103.20804
17700.00000	103.36186	-98.09190	103.36186
17750.00000	103.36706	-100.55909	103.36706
17800.00000	103.39745	-102.73997	103.39745
17850.00000	103.44848	-104.99098	103.44848
17900.00000	103.52879	-107.37338	103.52879
17950.00000	103.49644	-109.62595	103.49644
18000.00000	103.63793	-112.32172	103.63793
18050.00000	103.70379	-114.99370	103.70379
18100.00000	103.78483	-117.43235	103.78483
18150.00000	103.88153	-120.23874	103.88153
18200.00000	103.94778	-123.04891	103.94778
18250.00000	104.01313	-125.79689	104.01313
18300.00000	104.08284	-128.52475	104.08284
18350.00000	104.12420	-131.46975	104.12420
18400.00000	104.15719	-134.38126	104.15719
18450.00000	104.19163	-136.92576	104.19163
18500.00000	104.26390	-139.45359	104.26390
18550.00000	104.31457	-142.37243	104.31457
18600.00000	104.30876	-145.08858	104.30876
18650.00000	104.37206	-147.97882	104.37206
18700.00000	104.40272	-150.59198	104.40272
18750.00000	104.40469	-153.34044	104.40469
18800.00000	104.43220	-156.15688	104.43220
18850.00000	104.43917	-158.69915	104.43917
18900.00000	104.41693	-161.42506	104.41693
18950.00000	104.43572	-164.31283	104.43572
19000.00000	104.39942	-166.79240	104.39942
19050.00000	104.42478	-169.65739	104.42478
19100.00000	104.41548	-172.07599	104.41548
19150.00000	104.45201	-174.60035	104.45201
19200.00000	104.46161	-177.34723	104.46161
19250.00000	104.44832	-179.82643	104.44832
19300.00000	104.47763	-182.18445	104.47763
19350.00000	104.49541	-184.92570	104.49541
19400.00000	104.47277	-187.29348	104.47277
19450.00000	104.48073	-190.04699	104.48073
19500.00000	104.46758	-192.57801	104.46758
19550.00000	104.48486	-194.94246	104.48486
19600.00000	104.47279	-197.56514	104.47279
19650.00000	104.49411	-200.06375	104.49411
19700.00000	104.51792	-202.64273	104.51792
19750.00000	104.52148	-205.08047	104.52148
19800.00000	104.54311	-207.44454	104.54311
19850.00000	104.52411	-209.99783	104.52411
19900.00000	104.55113	-212.55780	104.55113
19950.00000	104.53066	-214.87158	104.53066
20000.00000	104.54283	-217.78033	104.54283
20050.00000	104.55075	-220.23513	104.55075
20100.00000	104.55533	-222.69345	104.55533
20150.00000	104.58619	-225.48379	104.58619
20200.00000	104.60068	-228.04963	104.60068
20250.00000	104.60975	-230.32836	104.60975
20300.00000	104.61842	-232.97266	104.61842
20350.00000	104.61942	-235.48953	104.61942
20400.00000	104.61650	-237.99805	104.61650
20450.00000	104.61142	-240.57686	104.61142
20500.00000	104.62521	-243.11107	104.62521
20550.00000	104.60157	-245.66463	104.60157
20600.00000	104.60469	-248.23334	104.60469
20650.00000	104.62610	-250.93342	104.62610
20700.00000	104.66871	-253.25366	104.66871
20750.00000	104.65344	-255.75677	104.65344
20800.00000	104.63554	-258.33573	104.63554
20850.00000	104.64415	-261.24094	104.64415
20900.00000	104.61291	-263.66479	104.61291
20950.00000	104.61987	-266.29224	104.61987
21000.00000	104.64399	-269.10819	104.64399
21050.00000	104.63018	-271.71576	104.63018
21100.00000	104.64164	-274.32724	104.64164
21150.00000	104.65549	-276.81922	104.65549
21200.00000	104.62627	-279.31085	104.62627
21250.00000	104.61684	-281.90290	104.61684
21300.00000	104.60476	-284.70397	104.60476
21350.00000	104.56654	-287.32939	104.56654
21400.00000	104.56689	-290.39884	104.56689
21450.00000	104.60786	-292.72557	104.60786
21500.00000	104.62110	-295.46028	104.62110
21550.00000	104.62266	-298.19436	104.62266
21600.00000	104.60714	-300.99185	104.60714
21650.00000	104.60717	-303.68840	104.60717
21700.00000	104.59201	-306.78681	104.59201
21750.00000	104.56062	-309.75289	104.56062
21800.00000	104.52421	-312.74672	104.52421
21850.00000	104.49486	-315.79727	104.49486
21900.00000	104.46994	-318.73536	104.46994
21950.00000	104.43138	-321.52612	104.43138
22000.00000	104.31928	-324.49148	104.31928
22050.00000	104.24357	-327.31447	104.24357
22100.00000	104.16332	-329.92378	104.16332
22150.00000	104.11224	-332.58076	104.11224
22200.00000	104.03111	-335.81446	104.03111
22250.00000	103.96938	-338.61425	103.96938
22300.00000	103.90213	-341.49873	103.90213
22350.00000	103.79110	-344.38881	103.79110
22400.00000	103.68253	-347.54172	103.68253
22450.00000	103.61281	-350.03203	103.61281
22500.00000	103.45713	-352.81925	103.45713
22550.00000	103.35604	-355.72902	103.35604
22600.00000	103.21187	-358.20630	103.21187
22650.00000	103.13938	-360.79005	103.13938
22700.00000	102.97354	-363.60034	102.97354
22750.00000	102.85488	-366.41122	102.85488
22800.00000	102.72476	-368.84310	102.72476
22850.00000	102.56966	-371.43452	102.56966
22900.00000	102.51501	-373.82353	102.51501
22950.00000	102.38458	-376.21787	102.38458
23000.00000	102.22276	-378.64192	102.22276
23050.00000	102.07483	-381.25568	102.07483
23100.00000	101.92589	-383.71966	101.92589
23150.00000	101.76023	-386.07641	101.76023
23200.00000	101.64029	-388.66883	101.64029
23250.00000	101.55400	-391.20891	101.55400
23300.00000	101.46576	-393.74150	101.46576
23350.00000	101.21154	-395.61865	101.21154
23400.00000	101.09267	-397.71121	101.09267
23450.00000	100.95660	-399.82089	100.95660
23500.00000	100.84089	-401.92496	100.84089
23550.00000	100.68397	-404.31025	100.68397
23600.00000	100.57926	-406.67713	100.57926
23650.00000	100.31650	-408.44242	100.31650
23700.00000	100.25349	-410.49676	100.25349
23750.00000	100.14434	-413.06959	100.14434
23800.00000	99.99159	-414.99336	99.99159
23850.00000	99.84760	-416.87301	99.84760
23900.00000	99.68336	-419.19646	99.68336
23950.00000	99.57149	-421.07486	99.57149
24000.00000	99.49955	-423.27115	99.49955
24050.00000	99.33025	-425.36976	99.33025
24100.00000	99.17603	-427.41460	99.17603
24150.00000	99.03542	-429.43005	99.03542
24200.00000	98.91130	-431.80968	98.91130
24250.00000	98.77729	-433.60601	98.77729
24300.00000	98.63101	-435.89886	98.63101
24350.00000	98.50532	-437.34262	98.50532
24400.00000	98.41201	-439.57268	98.41201
24450.00000	98.22496	-440.93478	98.22496
24500.00000	98.03202	-443.87546	98.03202
24550.00000	97.90975	-445.80891	97.90975
24600.00000	97.73942	-447.61150	97.73942
24650.00000	97.59061	-449.57767	97.59061
24700.00000	97.42430	-451.50633	97.42430
24750.00000	97.30239	-453.72473	97.30239
24800.00000	97.09178	-455.15450	97.09178
24850.00000	96.93691	-456.41957	96.93691
24900.00000	96.76272	-458.09619	96.76272
24950.00000	96.66418	-459.99550	96.66418
25000.00000	96.43901	-461.83665	96.43901
25050.00000	96.35106	-462.51810	96.35106
25100.00000	96.17457	-463.75479	96.17457
25150.00000	95.97449	-465.45009	95.97449
25200.00000	95.89860	-466.51488	95.89860
25250.00000	95.71503	-467.97845	95.71503
25300.00000	95.54259	-469.40780	95.54259
25350.00000	95.55525	-470.91427	95.55525
25400.00000	95.41008	-472.22934	95.41008
25450.00000	95.32810	-474.02683	95.32810
25500.00000	95.18721	-474.68165	95.18721
25550.00000	95.12447	-475.88194	95.12447
25600.00000	95.00003	-476.72544	95.00003
25650.00000	94.92342	-478.78274	94.92342
25700.00000	94.90038	-479.57212	94.90038
25750.00000	94.86418	-481.30419	94.86418
25800.00000	94.80276	-482.16526	94.80276
25850.00000	94.78512	-483.96176	94.78512
25900.00000	94.70139	-485.68337	94.70139
25950.00000	94.68463	-486.55842	94.68463
26000.00000	94.65664	-487.95961	94.65664
26050.00000	94.64883	-489.96380	94.64883
26100.00000	94.65492	-491.70523	94.65492
26150.00000	94.55507	-493.61719	94.55507
26200.00000	94.50118	-494.73509	94.50118
26250.00000	94.48910	-496.63767	94.48910
26300.00000	94.42337	-498.44461	94.42337
26350.00000	94.42098	-500.42558	94.42098
26400.00000	94.43515	-502.41113	94.43515
26450.00000	94.30996	-504.64354	94.30996
26500.00000	94.27391	-506.26234	94.27391
26550.00000	94.19777	-507.49951	94.19777
26600.00000	94.13451	-509.62096	94.13451
26650.00000	94.10151	-511.96806	94.10151
26700.00000	93.97099	-513.88027	93.97099
26750.00000	93.86424	-516.05582	93.86424
26800.00000	93.74272	-518.23079	93.74272
26850.00000	93.61569	-519.56662	93.61569
26900.00000	93.57328	-521.95155	93.57328
26950.00000	93.36258	-523.88784	93.36258
27000.00000	93.22206	-525.87551	93.22206
27050.00000	93.11687	-527.50869	93.11687
27100.00000	92.97240	-529.44422	92.97240
27150.00000	92.75814	-531.08531	92.75814
27200.00000	92.67837	-533.64583	92.67837
27250.00000	92.48332	-535.43591	92.48332
27300.00000	92.34057	-536.81503	92.34057
27350.00000	92.09261	-538.59159	92.09261
27400.00000	91.88103	-539.69231	91.88103
27450.00000	91.75259	-541.65085	91.75259
27500.00000	91.46211	-543.05564	91.46211
27550.00000	91.29050	-544.61870	91.29050
27600.00000	91.11011	-545.48967	91.11011
27650.00000	90.85855	-547.02285	90.85855
27700.00000	90.55165	-548.06056	90.55165
27750.00000	90.34974	-549.19160	90.34974
27800.00000	90.13426	-550.12016	90.13426
27850.00000	89.97829	-551.15038	89.97829
27900.00000	89.71517	-552.29213	89.71517
27950.00000	89.52582	-552.16247	89.52582
28000.00000	89.24357	-552.34674	89.24357
28050.00000	89.09921	-552.88930	89.09921
28100.00000	88.77864	-553.26490	88.77864
28150.00000	88.65277	-553.69000	88.65277
28200.00000	88.42867	-553.41485	88.42867
28250.00000	88.25419	-553.60733	88.25419
28300.00000	88.10611	-553.96164	88.10611
28350.00000	88.01365	-553.25262	88.01365
28400.00000	87.77456	-553.64885	87.77456
28450.00000	87.72878	-553.49802	87.72878
28500.00000	87.60795	-552.90855	87.60795
28550.00000	87.50359	-552.33589	87.50359
28600.00000	87.47996	-552.37580	87.47996
28650.00000	87.42369	-551.70732	87.42369
28700.00000	87.34093	-550.76270	87.34093
28750.00000	87.27296	-550.76370	87.27296
28800.00000	87.23329	-551.25209	87.23329
28850.00000	87.27666	-550.47445	87.27666
28900.00000	87.31050	-549.88876	87.31050
28950.00000	87.35717	-548.77678	87.35717
29000.00000	87.45892	-548.20492	87.45892
29050.00000	87.52369	-548.63600	87.52369
29100.00000	87.62482	-548.08580	87.62482
29150.00000	87.51418	-548.46847	87.51418
29200.00000	87.78884	-547.83802	87.78884
29250.00000	87.74353	-547.04778	87.74353
29300.00000	87.88827	-546.97745	87.88827
29350.00000	88.11612	-546.36586	88.11612
29400.00000	88.22352	-546.30525	88.22352
29450.00000	88.43182	-546.30820	88.43182
29500.00000	88.53156	-546.38950	88.53156
29550.00000	88.77513	-545.78473	88.77513
29600.00000	88.94663	-546.19887	88.94663
29650.00000	89.20325	-546.39807	89.20325
29700.00000	89.39949	-546.67550	89.39949
29750.00000	89.56907	-547.10645	89.56907
29800.00000	89.79677	-547.29162	89.79677
29850.00000	90.08532	-547.76807	90.08532
29900.00000	90.24797	-548.54895	90.24797
29950.00000	90.45738	-548.54971	90.45738
30000.00000	90.61712	-549.31272	90.61712
30050.00000	90.89985	-549.62060	90.89985
30100.00000	91.19229	-550.20832	91.19229
30150.00000	91.34598	-551.04187	91.34598
30200.00000	91.63262	-551.77612	91.63262
30250.00000	91.83581	-552.24175	91.83581
30300.00000	92.15746	-553.30710	92.15746
30350.00000	92.37933	-553.99171	92.37933
30400.00000	92.63555	-555.11687	92.63555
30450.00000	92.88881	-556.17890	92.88881
30500.00000	93.17988	-557.34239	93.17988
30550.00000	93.41358	-558.41456	93.41358
30600.00000	93.60591	-559.40765	93.60591
30650.00000	93.89723	-560.22931	93.89723
30700.00000	94.16945	-561.74665	94.16945
30750.00000	94.37096	-563.06383	94.37096
30800.00000	94.61665	-564.11618	94.61665
30850.00000	94.83785	-565.36449	94.83785
30900.00000	95.19847	-566.69930	95.19847
30950.00000	95.41502	-568.06424	95.41502
31000.00000	95.67500	-569.75808	95.67500
31050.00000	95.89121	-570.93148	95.89121
31100.00000	96.22510	-572.44444	96.22510
31150.00000	96.48725	-573.73816	96.48725
31200.00000	96.71952	-575.46461	96.71952
31250.00000	96.99851	-577.31417	96.99851
31300.00000	97.26764	-578.77961	97.26764
31350.00000	97.49874	-580.39967	97.49874
31400.00000	97.81324	-581.90241	97.81324
31450.00000	98.08019	-583.63548	98.08019
31500.00000	98.30854	-585.71385	98.30854
31550.00000	98.56924	-587.76153	98.56924
31600.00000	98.85867	-589.85884	98.85867
31650.00000	99.08676	-591.95149	99.08676
31700.00000	99.33038	-594.14742	99.33038
31750.00000	99.57978	-596.13348	99.57978
31800.00000	99.81140	-598.24590	99.81140
31850.00000	100.02132	-600.41041	100.02132
31900.00000	100.25888	-602.89882	100.25888
31950.00000	100.48210	-605.15363	100.48210
32000.00000	100.66754	-607.33155	100.66754
32050.00000	100.88634	-609.79625	100.88634
32100.00000	101.08621	-611.93750	101.08621
32150.00000	101.27098	-614.25488	101.27098
32200.00000	101.42627	-616.57816	101.42627
32250.00000	101.63513	-619.06563	101.63513
32300.00000	101.77068	-621.14130	101.77068
32350.00000	101.95893	-623.74391	101.95893
32400.00000	102.08695	-626.12250	102.08695
32450.00000	102.26293	-628.33486	102.26293
32500.00000	102.40191	-630.66735	102.40191
32550.00000	102.50772	-632.80137	102.50772
32600.00000	102.66448	-635.17492	102.66448
32650.00000	102.78809	-637.45025	102.78809
32700.00000	102.89810	-639.49644	102.89810
32750.00000	103.03639	-641.68787	103.03639
32800.00000	103.16067	-643.83217	103.16067
32850.00000	103.31413	-645.94646	103.31413
32900.00000	103.40040	-648.08324	103.40040
32950.00000	103.55990	-649.99989	103.55990
33000.00000	103.69144	-652.09795	103.69144
33050.00000	103.78247	-653.93626	103.78247
33100.00000	103.95922	-656.07285	103.95922
33150.00000	104.09275	-657.94875	104.09275
33200.00000	104.21949	-659.71356	104.21949
33250.00000	104.33587	-661.60686	104.33587
33300.00000	104.50584	-663.43605	104.50584
33350.00000	104.70250	-665.44069	104.70250
33400.00000	104.84644	-667.59151	104.84644
33450.00000	105.02043	-669.35375	105.02043
33500.00000	105.18126	-671.06211	105.18126
33550.00000	105.33743	-673.31973	105.33743
33600.00000	105.55610	-675.00348	105.55610
33650.00000	105.72526	-677.08318	105.72526
33700.00000	105.91057	-679.07597	105.91057
33750.00000	106.09991	-681.26182	106.09991
33800.00000	106.29261	-683.29037	106.29261
33850.00000	106.49279	-685.37446	106.49279
33900.00000	106.69293	-687.47802	106.69293
33950.00000	106.91927	-689.61079	106.91927
34000.00000	107.11069	-691.78410	107.11069
34050.00000	107.28793	-693.74798	107.28793
34100.00000	107.51662	-696.07706	107.51662
34150.00000	107.70873	-698.49522	107.70873
34200.00000	107.94275	-700.75498	107.94275
34250.00000	108.13826	-702.98903	108.13826
34300.00000	108.33710	-705.45245	108.33710
34350.00000	108.56819	-707.81152	108.56819
34400.00000	108.76835	-710.33580	108.76835
34450.00000	108.97626	-712.72605	108.97626
34500.00000	109.18088	-715.11007	109.18088
34550.00000	109.40366	-717.57219	109.40366
34600.00000	109.62905	-720.18088	109.62905
34650.00000	109.86687	-722.83591	109.86687
34700.00000	110.09897	-725.31795	110.09897
34750.00000	110.30385	-728.17365	110.30385
34800.00000	110.52817	-730.94399	110.52817
34850.00000	110.77434	-733.95445	110.77434
34900.00000	110.98997	-736.89861	110.98997
34950.00000	111.21551	-740.33981	111.21551
35000.00000	111.38348	-743.49972	111.38348
35050.00000	111.53106	-747.04220	111.53106
35100.00000	111.60509	-750.42487	111.60509
35150.00000	111.64820	-753.17936	111.64820
35200.00000	111.75296	-755.59398	111.75296
35250.00000	111.92992	-757.85534	111.92992
35300.00000	112.12186	-760.52697	112.12186
35350.00000	112.32287	-763.27486	112.32287
35400.00000	112.55058	-766.43313	112.55058
35450.00000	112.74676	-769.66493	112.74676
35500.00000	112.91960	-773.01699	112.91960
35550.00000	113.05977	-776.32768	113.05977
35600.00000	113.22150	-779.78763	113.22150
35650.00000	113.35310	-783.20773	113.35310
35700.00000	113.47911	-786.72211	113.47911
35750.00000	113.55728	-790.12270	113.55728
35800.00000	113.65902	-793.67179	113.65902
35850.00000	113.74342	-797.12387	113.74342
35900.00000	113.79813	-800.53400	113.79813
35950.00000	113.85186	-803.91583	113.85186
36000.00000	113.90642	-807.23004	113.90642
36050.00000	113.92488	-810.60433	113.92488
36100.00000	113.94863	-813.81845	113.94863
36150.00000	113.96962	-817.21004	113.96962
36200.00000	113.97751	-820.29909	113.97751
36250.00000	113.97800	-823.43982	113.97800
36300.00000	113.98760	-826.55028	113.98760
36350.00000	113.97151	-829.62214	113.97151
36400.00000	113.95603	-832.64485	113.95603
36450.00000	113.93773	-835.60682	113.93773
36500.00000	113.92775	-838.45964	113.92775
36550.00000	113.90846	-841.26933	113.90846
36600.00000	113.86848	-844.01461	113.86848
36650.00000	113.85124	-846.70730	113.85124
36700.00000	113.83614	-849.30354	113.83614
36750.00000	113.82069	-851.92594	113.82069
36800.00000	113.79417	-854.54715	113.79417
36850.00000	113.75699	-857.07417	113.75699
36900.00000	113.72960	-859.56091	113.72960
36950.00000	113.68910	-861.94141	113.68910
37000.00000	113.66918	-864.15060	113.66918
37050.00000	113.65070	-866.43708	113.65070
37100.00000	113.62143	-868.64006	113.62143
37150.00000	113.60375	-870.69391	113.60375
37200.00000	113.58233	-872.65512	113.58233
37250.00000	113.56489	-874.67924	113.56489
37300.00000	113.54287	-876.34078	113.54287
37350.00000	113.54297	-877.83604	113.54297
37400.00000	113.56867	-879.53201	113.56867
37450.00000	113.59931	-880.87102	113.59931
37500.00000	113.64636	-882.13465	113.64636
37550.00000	113.73027	-883.23553	113.73027
37600.00000	113.86195	-884.16763	113.86195
37650.00000	114.04186	-885.06200	114.04186
37700.00000	114.27070	-885.97638	114.27070
37750.00000	114.57321	-887.01413	114.57321
37800.00000	114.89840	-888.28484	114.89840
37850.00000	115.29844	-889.67290	115.29844
37900.00000	115.73485	-891.66833	115.73485
37950.00000	116.18021	-893.96258	116.18021
38000.00000	116.66606	-896.69646	116.66606
38050.00000	117.10678	-899.96343	117.10678
38100.00000	117.53159	-903.52997	117.53159
38150.00000	117.94029	-907.42583	117.94029
38200.00000	118.28491	-911.65090	118.28491
38250.00000	118.60325	-915.83954	118.60325
38300.00000	118.90962	-920.19820	118.90962
38350.00000	119.18313	-924.81634	119.18313
38400.00000	119.40962	-929.44743	119.40962
38450.00000	119.60944	-934.07914	119.60944
38500.00000	119.78318	-938.62241	119.78318
38550.00000	119.94320	-943.34375	119.94320
38600.00000	120.08115	-948.01907	120.08115
38650.00000	120.19112	-952.74531	120.19112
38700.00000	120.28008	-957.44891	120.28008
38750.00000	120.34668	-962.17694	120.34668
38800.00000	120.37588	-966.75096	120.37588
38850.00000	120.42513	-971.36208	120.42513
38900.00000	120.44823	-975.95477	120.44823
38950.00000	120.45148	-980.47336	120.45148
39000.00000	120.45706	-985.03580	120.45706
39050.00000	120.43990	-989.64296	120.43990
39100.00000	120.40228	-994.23173	120.40228
39150.00000	120.34844	-998.74599	120.34844
39200.00000	120.28466	-1003.21321	120.28466
39250.00000	120.20589	-1007.61927	120.20589
39300.00000	120.09518	-1011.90558	120.09518
39350.00000	120.00032	-1016.10530	120.00032
39400.00000	119.92895	-1020.39998	119.92895
39450.00000	119.82575	-1024.61659	119.82575
39500.00000	119.72187	-1028.86585	119.72187
39550.00000	119.61079	-1033.12582	119.61079
39600.00000	119.48171	-1037.53363	119.48171
39650.00000	119.33184	-1041.92044	119.33184
39700.00000	119.16204	-1046.21010	119.16204
39750.00000	118.96449	-1050.44339	118.96449
39800.00000	118.74373	-1054.63014	118.74373
39850.00000	118.51939	-1058.80914	118.51939
39900.00000	118.25470	-1062.75986	118.25470
39950.00000	117.98942	-1066.53205	117.98942
40000.00000	117.73598	-1070.25160	117.73598
40050.00000	117.45073	-1073.94989	117.45073
40100.00000	117.17790	-1077.53618	117.17790
40150.00000	116.88193	-1080.94891	116.88193
40200.00000	116.59440	-1084.31827	116.59440
40250.00000	116.29319	-1087.53354	116.29319
40300.00000	115.98251	-1090.63877	115.98251
40350.00000	115.67445	-1093.59503	115.67445
40400.00000	115.35605	-1096.50273	115.35605
40450.00000	115.04427	-1099.32823	115.04427
40500.00000	114.73049	-1101.98002	114.73049
40550.00000	114.41307	-1104.58159	114.41307
40600.00000	114.09833	-1106.98376	114.09833
40650.00000	113.78468	-1109.39932	113.78468
40700.00000	113.45548	-1111.66114	113.45548
40750.00000	113.14967	-1113.76246	113.14967
40800.00000	112.82944	-1115.65579	112.82944
40850.00000	112.52340	-1117.55225	112.52340
40900.00000	112.23664	-1119.34178	112.23664
40950.00000	111.95071	-1121.01312	111.95071
41000.00000	111.68111	-1122.47384	111.68111
41050.00000	111.40793	-1123.80946	111.40793
41100.00000	111.16438	-1125.01248	111.16438
41150.00000	110.94783	-1126.41173	110.94783
41200.00000	110.71994	-1127.52948	110.71994
41250.00000	110.52414	-1128.37479	110.52414
41300.00000	110.35582	-1129.38631	110.35582
41350.00000	110.17150	-1130.39136	110.17150
41400.00000	110.06829	-1131.25885	110.06829
41450.00000	109.94666	-1132.15296	109.94666
41500.00000	109.81852	-1132.86844	109.81852
41550.00000	109.75314	-1133.71913	109.75314
41600.00000	109.65314	-1134.68419	109.65314
41650.00000	109.62570	-1135.51892	109.62570
41700.00000	109.62314	-1136.29854	109.62314
41750.00000	109.65439	-1137.21880	109.65439
41800.00000	109.66050	-1138.14221	109.66050
41850.00000	109.73691	-1139.36558	109.73691
41900.00000	109.81020	-1140.76358	109.81020
41950.00000	109.89184	-1142.21263	109.89184
42000.00000	109.97855	-1143.94682	109.97855
42050.00000	110.06525	-1145.78035	110.06525
42100.00000	110.16180	-1147.65835	110.16180
42150.00000	110.20524	-1149.73086	110.20524
42200.00000	110.27576	-1151.99269	110.27576
42250.00000	110.34213	-1154.08678	110.34213
42300.00000	110.37132	-1156.48151	110.37132
42350.00000	110.38796	-1158.78156	110.38796
42400.00000	110.40886	-1161.14115	110.40886
42450.00000	110.41203	-1163.64495	110.41203
42500.00000	110.39488	-1166.01969	110.39488
42550.00000	110.32960	-1168.33377	110.32960
42600.00000	110.27153	-1170.83331	110.27153
42650.00000	110.24521	-1172.92303	110.24521
42700.00000	110.16266	-1175.25891	110.16266
42750.00000	110.10756	-1177.61542	110.10756
42800.00000	110.01238	-1179.74753	110.01238
42850.00000	109.98204	-1181.80393	109.98204
42900.00000	109.91947	-1183.84243	109.91947
42950.00000	109.85114	-1185.87105	109.85114
43000.00000	109.81299	-1187.81356	109.81299
43050.00000	109.71098	-1189.35172	109.71098
43100.00000	109.71288	-1191.72713	109.71288
43150.00000	109.63090	-1193.11904	109.63090
43200.00000	109.58223	-1195.03028	109.58223
43250.00000	109.59864	-1196.61739	109.59864
43300.00000	109.57653	-1198.32375	109.57653
43350.00000	109.52051	-1199.80054	109.52051
43400.00000	109.49443	-1201.63002	109.49443
43450.00000	109.47712	-1203.50883	109.47712
43500.00000	109.48123	-1205.06908	109.48123
43550.00000	109.47991	-1206.88207	109.47991
43600.00000	109.39485	-1208.54670	109.39485
43650.00000	109.42479	-1210.32742	109.42479
43700.00000	109.38986	-1212.04277	109.38986
43750.00000	109.37692	-1214.14659	109.37692
43800.00000	109.39257	-1216.06170	109.39257
43850.00000	109.39056	-1217.50465	109.39056
43900.00000	109.41652	-1219.69122	109.41652
43950.00000	109.40137	-1221.46347	109.40137
44000.00000	109.39765	-1223.28048	109.39765
44050.00000	109.40162	-1224.96280	109.40162
44100.00000	109.45593	-1226.40164	109.45593
44150.00000	109.46254	-1228.34136	109.46254
44200.00000	109.48091	-1229.82337	109.48091
44250.00000	109.47021	-1231.76095	109.47021
44300.00000	109.51788	-1233.11176	109.51788
44350.00000	109.52546	-1234.64129	109.52546
44400.00000	109.58227	-1236.14437	109.58227
44450.00000	109.62423	-1237.43194	109.62423
44500.00000	109.64475	-1238.85147	109.64475
44550.00000	109.67631	-1239.97537	109.67631
44600.00000	109.74081	-1241.83495	109.74081
44650.00000	109.78804	-1243.46762	109.78804
44700.00000	109.90278	-1244.75753	109.90278
44750.00000	110.00549	-1246.20777	110.00549
44800.00000	110.09241	-1248.00102	110.09241
44850.00000	110.18946	-1249.75916	110.18946
44900.00000	110.33465	-1251.32431	110.33465
44950.00000	110.50936	-1253.09669	110.50936
45000.00000	110.60178	-1254.84662	110.60178
45050.00000	110.76863	-1256.37243	110.76863
45100.00000	110.89580	-1258.37014	110.89580
45150.00000	111.09257	-1260.27591	111.09257
45200.00000	111.27773	-1262.00893	111.27773
45250.00000	111.45769	-1264.16037	111.45769
45300.00000	111.65757	-1266.14812	111.65757
45350.00000	111.86312	-1268.11642	111.86312
45400.00000	112.06786	-1270.25715	112.06786
45450.00000	112.31039	-1272.56095	112.31039
45500.00000	112.50354	-1274.62395	112.50354
45550.00000	112.73648	-1276.83193	112.73648
45600.00000	113.02252	-1279.35905	113.02252
45650.00000	113.26185	-1282.37481	113.26185
45700.00000	113.49079	-1285.08735	113.49079
45750.00000	113.76941	-1287.99729	113.76941
45800.00000	114.01239	-1291.43736	114.01239
45850.00000	114.25689	-1294.96439	114.25689
45900.00000	114.48274	-1298.89407	114.48274
45950.00000	114.66614	-1302.77314	114.66614
46000.00000	114.86344	-1306.83510	114.86344
46050.00000	114.98551	-1310.92750	114.98551
46100.00000	115.11061	-1314.91980	115.11061
46150.00000	115.21551	-1318.85091	115.21551
46200.00000	115.26128	-1323.32328	115.26128
46250.00000	115.32940	-1327.49596	115.32940
46300.00000	115.38275	-1331.47726	115.38275
46350.00000	115.37645	-1335.78413	115.37645
46400.00000	115.35187	-1339.62803	115.35187
46450.00000	115.31413	-1343.55300	115.31413
46500.00000	115.25942	-1347.68623	115.25942
46550.00000	115.13873	-1351.58690	115.13873
46600.00000	115.05632	-1355.08151	115.05632
46650.00000	114.96651	-1358.41421	114.96651
46700.00000	114.89233	-1362.27992	114.89233
46750.00000	114.76244	-1365.79839	114.76244
46800.00000	114.66503	-1368.98595	114.66503
46850.00000	114.56896	-1372.67817	114.56896
46900.00000	114.47737	-1375.84944	114.47737
46950.00000	114.40570	-1378.91829	114.40570
47000.00000	114.26823	-1382.83910	114.26823
47050.00000	114.12889	-1385.96645	114.12889
47100.00000	114.04564	-1388.83813	114.04564
47150.00000	113.88546	-1392.04507	113.88546
47200.00000	113.79228	-1395.20427	113.79228
47250.00000	113.63085	-1397.77078	113.63085
47300.00000	113.56454	-1400.77931	113.56454
47350.00000	113.46055	-1403.66250	113.46055
47400.00000	113.33912	-1406.53697	113.33912
47450.00000	113.23300	-1409.31492	113.23300
47500.00000	113.10185	-1411.91115	113.10185
47550.00000	113.03593	-1414.71430	113.03593
47600.00000	112.89933	-1417.93901	112.89933
47650.00000	112.78742	-1420.42515	112.78742
47700.00000	112.72081	-1423.56910	112.72081
47750.00000	112.62981	-1426.39302	112.62981
47800.00000	112.52995	-1428.72172	112.52995
47850.00000	112.41660	-1431.34179	112.41660
47900.00000	112.36582	-1433.70485	112.36582
47950.00000	112.33990	-1436.96594	112.33990
48000.00000	112.25340	-1439.94284	112.25340
48050.00000	112.22773	-1442.27871	112.22773
48100.00000	112.14377	-1445.91755	112.14377
48150.00000	112.14080	-1448.36562	112.14080
48200.00000	112.00075	-1451.69463	112.00075
48250.00000	111.94271	-1454.21950	111.94271
48300.00000	111.98092	-1457.37039	111.98092
48350.00000	111.97101	-1460.27605	111.97101
48400.00000	111.76222	-1464.11978	111.76222
48450.00000	111.70742	-1467.13829	111.70742
48500.00000	111.59131	-1470.83730	111.59131
48550.00000	111.51809	-1473.85651	111.51809
48600.00000	111.37814	-1478.14824	111.37814
48650.00000	111.25806	-1481.19228	111.25806
48700.00000	111.08596	-1484.63957	111.08596
48750.00000	110.92419	-1488.40477	110.92419
48800.00000	110.68541	-1491.67834	110.68541
48850.00000	110.41877	-1496.17094	110.41877
48900.00000	110.29758	-1139.63357	110.29758
48950.00000	109.89186	-1142.80658	109.89186
49000.00000	109.69396	-786.53267	109.69396
49050.00000	109.40147	-430.31627	109.40147
49100.00000	109.00883	-72.88574	109.00883
49150.00000	108.71728	283.54561	108.71728
49200.00000	108.20214	641.75675	108.20214
49250.00000	107.90026	999.30837	107.90026
49300.00000	107.50666	997.76016	107.50666
49350.00000	107.01621	1355.68051	107.01621
49400.00000	106.57054	1713.01217	106.57054
49450.00000	106.31285	2072.11498	106.31285
49500.00000	105.86783	2430.99396	105.86783
49550.00000	105.60080	2789.23663	105.60080
49600.00000	105.31927	3148.11199	105.31927
49650.00000	105.09006	3506.20641	105.09006
49700.00000	104.63726	3865.71232	104.63726
49750.00000	104.48441	4225.39586	104.48441
49800.00000	104.14789	4225.39001	104.14789
49850.00000	104.06177	4943.46780	104.06177
49900.00000	103.91658	4943.26005	103.91658
49950.00000	103.67983	5303.07245	103.67983
50000.00000	103.65061	5302.55326	103.65061
50050.00000	103.44860	5301.54850	103.44860
50100.00000	103.22598	5301.33284	103.22598
50150.00000	103.32088	5299.51028	103.32088
50200.00000	103.21223	5298.76053	103.21223
50250.00000	103.08610	5298.47469	103.08610
50300.00000	103.15144	5297.48026	103.15144
50350.00000	103.09145	5297.50231	103.09145
50400.00000	103.08895	5296.18831	103.08895
50450.00000	103.04290	5294.66137	103.04290
50500.00000	103.01197	5295.04355	103.01197
50550.00000	102.95867	5292.61730	102.95867
50600.00000	103.05290	5291.20637	103.05290
50650.00000	103.08140	5290.16431	103.08140
50700.00000	102.98772	5288.42095	102.98772
50750.00000	102.98076	5286.73427	102.98076
50800.00000	103.08137	5285.37358	103.08137
50850.00000	103.06857	5283.65941	103.06857
50900.00000	102.96060	5282.12825	102.96060
50950.00000	103.10506	5279.85583	103.10506
51000.00000	103.28127	5277.97803	103.28127
51050.00000	103.11894	5277.16645	103.11894
51100.00000	103.09866	5274.14715	103.09866
51150.00000	103.04982	5272.16143	103.04982
51200.00000	103.01257	5270.03539	103.01257
51250.00000	102.93181	5268.70376	102.93181
51300.00000	102.96821	5265.93504	102.96821
51350.00000	102.92092	5264.83781	102.92092
51400.00000	102.94946	5261.60730	102.94946
51450.00000	102.78825	5260.82320	102.78825
51500.00000	102.71645	5258.65951	102.71645
51550.00000	102.66953	5256.39299	102.66953
51600.00000	102.54877	5254.21645	102.54877
51650.00000	102.25370	5252.52331	102.25370
51700.00000	102.37094	5250.35447	102.37094
51750.00000	102.12207	5248.28084	102.12207
51800.00000	102.13045	5246.50126	102.13045
51850.00000	101.98318	5244.74071	101.98318
51900.00000	101.65727	5242.86977	101.65727
51950.00000	101.43206	5242.24124	101.43206
52000.00000	101.28562	5240.72957	101.28562
52050.00000	101.22705	5239.45216	101.22705
52100.00000	101.01439	5239.64457	101.01439
52150.00000	100.87399	5238.08451	100.87399
52200.00000	100.81275	5237.75088	100.81275
52250.00000	100.66682	5236.71539	100.66682
52300.00000	100.37957	5238.15550	100.37957
52350.00000	100.52209	5237.73246	100.52209
52400.00000	100.47518	5236.35260	100.47518
52450.00000	100.55683	5235.02795	100.55683
52500.00000	100.51334	5234.60192	100.51334
52550.00000	100.52626	5235.38773	100.52626
52600.00000	100.38357	5233.97516	100.38357
52650.00000	100.86517	5233.70922	100.86517
52700.00000	100.85439	5233.61693	100.85439
52750.00000	100.82837	5232.29146	100.82837
52800.00000	100.94989	5231.06079	100.94989
52850.00000	100.97519	5230.89559	100.97519
52900.00000	101.24638	5229.91896	101.24638
52950.00000	101.50723	5228.61705	101.50723
53000.00000	101.69970	5227.24034	101.69970
53050.00000	101.76166	5225.02717	101.76166
53100.00000	101.85501	5223.97356	101.85501
53150.00000	102.18778	5223.18198	102.18778
53200.00000	102.06773	5221.13958	102.06773
53250.00000	102.47158	5219.36879	102.47158
53300.00000	102.48961	5216.89621	102.48961
53350.00000	102.52063	5215.42716	102.52063
53400.00000	102.67658	5215.14515	102.67658
53450.00000	102.97159	5211.80537	102.97159
53500.00000	103.07112	5210.42943	103.07112
53550.00000	103.19565	5208.31270	103.19565
53600.00000	103.29057	5205.42928	103.29057
53650.00000	103.47169	5203.25943	103.47169
53700.00000	103.62308	5200.86159	103.62308
53750.00000	103.79778	5197.96685	103.79778
53800.00000	103.68687	5196.77758	103.68687
53850.00000	103.79322	5193.85193	103.79322
53900.00000	103.90353	5192.60510	103.90353
53950.00000	103.90357	5189.36029	103.90357
54000.00000	103.98224	5186.79092	103.98224
54050.00000	103.98063	5184.48094	103.98063
54100.00000	104.02037	5181.53611	104.02037
54150.00000	104.19810	5179.00483	104.19810
54200.00000	103.95395	5176.90864	103.95395
54250.00000	104.05872	5173.69641	104.05872
54300.00000	104.02537	5171.74405	104.02537
54350.00000	104.07122	5169.70337	104.07122
54400.00000	104.11506	5168.09282	104.11506
54450.00000	104.00362	5164.81203	104.00362
54500.00000	103.95611	5163.79861	103.95611
54550.00000	103.90266	5161.90919	103.90266
54600.00000	103.85754	5160.74234	103.85754
54650.00000	103.88485	5157.52846	103.88485
54700.00000	103.74006	5156.96352	103.74006
54750.00000	103.83965	5154.90206	103.83965
54800.00000	103.71525	5153.33266	103.71525
54850.00000	103.65625	5152.06788	103.65625
54900.00000	103.74600	5150.78268	103.74600
54950.00000	103.84000	5149.66495	103.84000
55000.00000	104.00960	5148.85480	104.00960
55050.00000	103.89566	5146.82811	103.89566
55100.00000	103.96518	5145.55688	103.96518
55150.00000	104.18054	5144.56578	104.18054
55200.00000	104.21115	5143.30902	104.21115
55250.00000	104.27921	5141.98873	104.27921
55300.00000	104.56146	5140.40874	104.56146
55350.00000	104.64829	5139.27714	104.64829
55400.00000	104.79915	5138.10217	104.79915
55450.00000	104.99903	5136.64572	104.99903
55500.00000	105.24513	5134.96329	105.24513
55550.00000	105.47642	5133.89844	105.47642
55600.00000	105.69571	5131.07920	105.69571
55650.00000	105.97260	5129.41523	105.97260
55700.00000	106.19731	5127.52221	106.19731
55750.00000	106.52736	5125.79127	106.52736
55800.00000	106.77300	5123.40768	106.77300
55850.00000	107.04437	5120.64288	107.04437
55900.00000	107.29446	5118.19738	107.29446
55950.00000	107.59243	5115.15256	107.59243
56000.00000	107.86033	5112.32688	107.86033
56050.00000	108.13343	5109.59589	108.13343
56100.00000	108.36099	5106.68324	108.36099
56150.00000	108.62879	5103.10056	108.62879
56200.00000	108.85994	5099.41577	108.85994
56250.00000	109.02993	5096.03398	109.02993
56300.00000	109.26130	5092.21343	109.26130
56350.00000	109.45812	5088.45912	109.45812
56400.00000	109.61947	5085.18035	109.61947
56450.00000	109.72722	5081.36161	109.72722
56500.00000	109.93332	5077.70078	109.93332
56550.00000	110.02010	5073.37479	110.02010
56600.00000	110.15937	5069.48065	110.15937
56650.00000	110.26808	5065.33271	110.26808
56700.00000	110.33655	5061.41900	110.33655
56750.00000	110.36870	5057.48169	110.36870
56800.00000	110.42901	5053.52320	110.42901
56850.00000	110.49085	5049.38424	110.49085
56900.00000	110.47707	5045.29143	110.47707
56950.00000	110.45552	5041.22047	110.45552
57000.00000	110.42280	5037.18357	110.42280
57050.00000	110.38458	5033.18846	110.38458
57100.00000	110.33297	5029.19475	110.33297
57150.00000	110.25564	5025.05095	110.25564
57200.00000	110.11573	5021.44173	110.11573
57250.00000	110.05148	5017.30709	110.05148
57300.00000	109.93367	5013.78681	109.93367
57350.00000	109.78466	5010.04462	109.78466
57400.00000	109.63961	5006.58915	109.63961
57450.00000	109.47937	5002.99788	109.47937
57500.00000	109.26733	4999.44400	109.26733
57550.00000	109.11230	4996.21848	109.11230
57600.00000	108.89938	4993.45381	108.89938
57650.00000	108.68825	4990.58040	108.68825
57700.00000	108.48603	4987.65564	108.48603
57750.00000	108.28880	4984.85982	108.28880
57800.00000	108.07276	4982.33455	108.07276
57850.00000	107.95377	4980.26910	107.95377
57900.00000	107.71866	4977.86760	107.71866
57950.00000	107.57020	4975.85883	107.57020
58000.00000	107.42186	4973.94558	107.42186
58050.00000	107.37132	4972.24957	107.37132
58100.00000	107.29380	4970.14313	107.29380
58150.00000	107.23767	4968.63540	107.23767
58200.00000	107.20779	4966.20415	107.20779
58250.00000	107.22500	4964.08436	107.22500
58300.00000	107.21821	4961.75922	107.21821
58350.00000	107.20143	4959.28990	107.20143
58400.00000	107.19540	4956.67155	107.19540
58450.00000	107.14759	4954.06076	107.14759
58500.00000	107.12039	4951.53943	107.12039
58550.00000	107.09721	4948.86639	107.09721
58600.00000	107.03301	4946.17042	107.03301
58650.00000	106.98924	4943.83954	106.98924
58700.00000	106.91840	4941.17698	106.91840
58750.00000	106.83828	4938.70880	106.83828
58800.00000	106.81359	4936.21598	106.81359
58850.00000	106.77300	4933.76280	106.77300
58900.00000	106.68390	4931.24781	106.68390
58950.00000	106.62949	4928.49915	106.62949
59000.00000	106.53663	4925.88349	106.53663
59050.00000	106.46131	4923.48147	106.46131
59100.00000	106.38816	4920.93291	106.38816
59150.00000	106.30188	4918.39965	106.30188
59200.00000	106.23634	4916.05389	106.23634
59250.00000	106.12630	4913.80663	106.12630
59300.00000	106.03931	4911.61809	106.03931
59350.00000	105.93851	4909.34031	105.93851
59400.00000	105.90221	4907.50676	105.90221
59450.00000	105.80931	4905.16759	105.80931
59500.00000	105.73894	4903.19930	105.73894
59550.00000	105.74104	4901.34791	105.74104
59600.00000	105.67250	4899.27251	105.67250
59650.00000	105.70882	4897.02886	105.70882
59700.00000	105.69226	4895.03085	105.69226
59750.00000	105.70779	4892.86337	105.70779
59800.00000	105.71111	4890.77894	105.71111
59850.00000	105.79123	4888.24600	105.79123
59900.00000	105.83254	4885.82491	105.83254
59950.00000	105.89648	4883.24377	105.89648
60000.00000	105.94245	4880.53160	105.94245
60050.00000	105.97444	4877.41507	105.97444
60100.00000	105.98273	4874.48013	105.98273
60150.00000	105.99747	4871.22655	105.99747
60200.00000	105.98735	4867.78609	105.98735
60250.00000	105.90616	4864.29189	105.90616
60300.00000	105.81321	4860.93936	105.81321
60350.00000	105.63732	4857.50400	105.63732
60400.00000	105.47318	4854.24189	105.47318
60450.00000	105.24153	4851.42496	105.24153
60500.00000	104.99854	4848.83943	104.99854
60550.00000	104.74188	4846.36072	104.74188
60600.00000	104.48290	4844.35244	104.48290
60650.00000	104.28840	4842.65118	104.28840
60700.00000	104.09961	4841.07252	104.09961
60750.00000	103.95298	4839.51016	103.95298
60800.00000	103.84193	4838.43081	103.84193
60850.00000	103.75942	4836.97980	103.75942
60900.00000	103.68034	4835.58552	103.68034
60950.00000	103.65786	4834.28382	103.65786
61000.00000	103.59953	4832.55674	103.59953
61050.00000	103.63554	4830.80328	103.63554
61100.00000	103.60776	4829.15630	103.60776
61150.00000	103.60545	4827.81496	103.60545
61200.00000	103.61231	4825.88993	103.61231
61250.00000	103.63040	4824.13418	103.63040
61300.00000	103.67704	4822.16912	103.67704
61350.00000	103.70553	4820.36820	103.70553
61400.00000	103.70534	4818.53135	103.70534
61450.00000	103.78094	4816.43629	103.78094
61500.00000	103.78233	4814.96903	103.78233
61550.00000	103.86807	4812.76892	103.86807
61600.00000	103.93844	4810.70907	103.93844
61650.00000	104.01147	4808.61269	104.01147
61700.00000	104.09855	4806.46970	104.09855
61750.00000	104.16067	4804.37975	104.16067
61800.00000	104.26864	4801.99203	104.26864
61850.00000	104.33602	4799.65963	104.33602
61900.00000	104.48803	4797.09944	104.48803
61950.00000	104.54525	4794.48529	104.54525
62000.00000	104.60424	4791.76588	104.60424
62050.00000	104.70537	4789.23855	104.70537
62100.00000	104.79933	4786.26947	104.79933
62150.00000	104.86420	4783.29120	104.86420
62200.00000	104.91272	4780.16274	104.91272
62250.00000	104.96290	4777.27619	104.96290
62300.00000	105.04350	4774.40713	105.04350
62350.00000	105.04846	4771.14291	105.04846
62400.00000	105.06525	4767.91187	105.06525
62450.00000	105.04025	4764.78261	105.04025
62500.00000	105.07170	4761.43775	105.07170
62550.00000	104.99690	4758.35286	104.99690
62600.00000	104.99443	4754.94741	104.99443
62650.00000	104.95352	4751.49177	104.95352
62700.00000	104.86182	4748.33497	104.86182
62750.00000	104.79777	4745.08501	104.79777
62800.00000	104.68303	4742.17229	104.68303
62850.00000	104.60350	4739.27540	104.60350
62900.00000	104.46244	4736.07350	104.46244
62950.00000	104.32082	4733.44406	104.32082
63000.00000	104.16202	4730.75760	104.16202
63050.00000	104.05613	4727.96647	104.05613
63100.00000	103.91452	4725.31816	103.91452
63150.00000	103.78886	4723.13214	103.78886
63200.00000	103.62166	4721.12667	103.62166
63250.00000	103.50791	4719.12024	103.50791
63300.00000	103.45926	4716.75372	103.45926
63350.00000	103.33020	4715.17360	103.33020
63400.00000	103.27386	4713.13657	103.27386
63450.00000	103.21661	4711.42531	103.21661
63500.00000	103.24826	4709.83108	103.24826
63550.00000	103.20786	4707.84202	103.20786
63600.00000	103.26787	4705.92103	103.26787
63650.00000	103.33542	4704.05103	103.33542
63700.00000	103.44294	4702.07215	103.44294
63750.00000	103.48867	4700.16022	103.48867
63800.00000	103.59327	4697.88552	103.59327
63850.00000	103.74347	4695.21795	103.74347
63900.00000	103.86854	4692.96709	103.86854
63950.00000	103.99762	4690.23619	103.99762
64000.00000	104.12639	4686.94411	104.12639
64050.00000	104.27486	4684.28515	104.27486
64100.00000	104.43892	4680.96336	104.43892
64150.00000	104.55211	4677.33444	104.55211
64200.00000	104.68170	4673.66258	104.68170
64250.00000	104.72671	4669.95335	104.72671
64300.00000	104.82678	4666.16121	104.82678
64350.00000	104.87243	4661.90226	104.87243
64400.00000	104.91144	4657.42927	104.91144
64450.00000	104.92461	4653.57150	104.92461
64500.00000	104.86852	4649.13785	104.86852
64550.00000	104.85664	4644.56182	104.85664
64600.00000	104.76627	4639.94828	104.76627
64650.00000	104.60133	4635.48322	104.60133
64700.00000	104.44868	4630.72952	104.44868
64750.00000	104.20026	4626.77107	104.20026
64800.00000	103.91548	4622.43464	103.91548
64850.00000	103.71318	4618.47541	103.71318
64900.00000	103.41562	4615.34110	103.41562
64950.00000	103.23483	4612.27771	103.23483
65000.00000	103.13137	4608.03040	103.13137
65050.00000	102.92082	4605.01277	102.92082
65100.00000	102.81414	4600.88467	102.81414
65150.00000	102.70494	4596.20555	102.70494
65200.00000	102.38113	4591.33546	102.38113
65250.00000	102.03469	4586.02419	102.03469
65300.00000	101.57447	4580.45069	101.57447
65350.00000	100.95173	4575.71732	100.95173
65400.00000	100.14908	4571.42649	100.14908
65450.00000	99.31383	4566.94273	99.31383
65500.00000	98.36424	4565.14742	98.36424
65550.00000	97.26200	4564.75992	97.26200
65600.00000	96.35220	4565.84156	96.35220
65650.00000	95.61412	4567.85158	95.61412
65700.00000	95.13760	4570.92856	95.13760
65750.00000	94.81949	4573.84385	94.81949
65800.00000	94.87154	4576.57708	94.87154
65850.00000	94.81014	4578.64345	94.81014
65900.00000	94.95455	4580.48579	94.95455
65950.00000	95.22816	4581.31281	95.22816
66000.00000	95.47242	4581.41022	95.47242
66050.00000	95.68300	4581.40572	95.68300
66100.00000	95.95879	4580.65703	95.95879
66150.00000	96.19345	4579.43316	96.19345
66200.00000	96.54834	4579.28851	96.54834
66250.00000	97.00947	4577.16992	97.00947
66300.00000	97.26057	4574.87555	97.26057
66350.00000	97.56990	4571.40364	97.56990
66400.00000	97.89132	4567.34637	97.89132
66450.00000	97.98163	4563.33699	97.98163
66500.00000	98.15423	4558.75094	98.15423
66550.00000	98.11990	4554.38510	98.11990
66600.00000	97.98130	4550.41121	97.98130
66650.00000	97.86979	4546.55741	97.86979
66700.00000	97.65547	4542.93736	97.65547
66750.00000	97.33011	4539.49153	97.33011
66800.00000	97.11613	4537.04168	97.11613
66850.00000	96.85903	4534.57285	96.85903
66900.00000	96.63964	4532.16159	96.63964
66950.00000	96.59996	4529.63956	96.59996
67000.00000	96.33547	4527.75410	96.33547
67050.00000	96.15964	4526.18661	96.15964
67100.00000	96.14029	4523.57890	96.14029
67150.00000	95.91699	4521.96467	95.91699
67200.00000	95.79863	4519.55234	95.79863
67250.00000	95.71734	4517.42797	95.71734
67300.00000	95.65444	4515.80657	95.65444
67350.00000	95.44815	4513.54561	95.44815
67400.00000	95.31260	4512.00082	95.31260
67450.00000	95.22491	4509.76798	95.22491
67500.00000	95.09400	4508.76606	95.09400
67550.00000	95.02210	4506.10942	95.02210
67600.00000	95.05531	4504.18483	95.05531
67650.00000	94.89094	4502.53718	94.89094
67700.00000	94.83063	4499.55369	94.83063
67750.00000	94.80921	4496.97355	94.80921
67800.00000	94.62403	4494.59614	94.62403
67850.00000	94.58387	4492.41039	94.58387
67900.00000	94.47497	4489.67413	94.47497
67950.00000	94.20999	4487.97998	94.20999
68000.00000	94.06411	4485.31891	94.06411
68050.00000	93.90447	4483.59473	93.90447
68100.00000	93.61712	4481.50676	93.61712
68150.00000	93.41589	4480.67297	93.41589
68200.00000	93.31084	4479.61703	93.31084
68250.00000	93.16009	4479.13386	93.16009
68300.00000	93.05164	4477.49349	93.05164
68350.00000	92.87444	4477.06027	92.87444
68400.00000	92.90283	4476.42551	92.90283
68450.00000	92.96641	4475.78789	92.96641
68500.00000	93.00918	4474.84682	93.00918
68550.00000	93.06146	4474.02822	93.06146
68600.00000	93.17373	4473.30662	93.17373
68650.00000	93.43903	4472.67890	93.43903
68700.00000	93.63074	4470.60399	93.63074
68750.00000	93.87723	4468.95340	93.87723
68800.00000	94.06012	4467.37138	94.06012
68850.00000	94.32487	4465.68541	94.32487
68900.00000	94.60059	4462.50824	94.60059
68950.00000	94.92569	4459.32820	94.92569
69000.00000	95.15383	4456.03171	95.15383
69050.00000	95.37088	4452.33555	95.37088
69100.00000	95.61682	4448.63888	95.61682
69150.00000	95.76922	4444.04055	95.76922
69200.00000	95.88098	4439.70521	95.88098
69250.00000	95.91213	4435.28519	95.91213
69300.00000	95.91134	4430.88041	95.91134
69350.00000	95.97207	4426.10972	95.97207
69400.00000	95.89601	4421.35909	95.89601
69450.00000	95.83315	4416.58843	95.83315
69500.00000	95.75744	4411.90031	95.75744
69550.00000	95.59215	4406.67333	95.59215
69600.00000	95.38727	4401.43324	95.38727
69650.00000	95.12040	4396.80820	95.12040
69700.00000	94.81016	4391.25327	94.81016
69750.00000	94.40754	4385.80812	94.40754
69800.00000	93.95523	4380.49712	93.95523
69850.00000	93.35038	4375.85727	93.35038
69900.00000	92.71418	4371.37460	92.71418
69950.00000	91.90685	4367.48437	91.90685
70000.00000	91.20842	4363.83020	91.20842
70050.00000	90.22944	4362.99577	90.22944
70100.00000	89.20355	4360.83455	89.20355
70150.00000	88.26197	4359.52406	88.26197
70200.00000	87.49157	4361.07902	87.49157
70250.00000	86.53031	4363.42614	86.53031
70300.00000	85.65621	4367.22340	85.65621
70350.00000	85.42317	4372.11681	85.42317
70400.00000	85.13851	4376.56001	85.13851
70450.00000	85.19055	4382.02463	85.19055
70500.00000	85.53592	4385.22728	85.53592
70550.00000	85.92441	4389.26547	85.92441
70600.00000	86.37285	4390.17328	86.37285
70650.00000	87.03170	4391.37776	87.03170
70700.00000	87.41642	4391.14951	87.41642
70750.00000	88.04675	4390.38603	88.04675
70800.00000	88.53930	4389.45827	88.53930
70850.00000	88.85067	4388.81446	88.85067
70900.00000	89.33431	4385.81657	89.33431
70950.00000	89.80852	4384.12489	89.80852
71000.00000	90.15621	4383.05916	90.15621
71050.00000	90.69985	4379.72171	90.69985
71100.00000	91.10624	4378.55915	91.10624
71150.00000	91.51940	4375.40431	91.51940
71200.00000	92.09780	4371.55196	92.09780
71250.00000	92.55257	4368.12796	92.55257
71300.00000	93.14126	4362.32361	93.14126
71350.00000	93.51614	4357.17892	93.51614
71400.00000	93.75460	4351.00428	93.75460
71450.00000	94.06478	4345.07918	94.06478
71500.00000	94.10327	4339.54995	94.10327
71550.00000	94.21229	4333.35566	94.21229
71600.00000	94.37444	4327.72024	94.37444
71650.00000	94.22105	4321.82675	94.22105
71700.00000	94.10736	4314.11072	94.10736
71750.00000	94.13261	4309.53071	94.13261
71800.00000	93.78329	4303.84342	93.78329
71850.00000	93.50170	4297.27206	93.50170
71900.00000	93.11758	4292.09512	93.11758
71950.00000	92.72495	4285.42367	92.72495
72000.00000	92.43829	4282.21250	92.43829
72050.00000	91.93152	4279.27593	91.93152
72100.00000	91.42794	4275.10997	91.42794
72150.00000	91.50809	4272.69252	91.50809
72200.00000	91.46158	4268.63483	91.46158
72250.00000	91.28730	4263.47293	91.28730
72300.00000	91.27698	4259.65818	91.27698
72350.00000	90.95607	4253.95696	90.95607
72400.00000	90.99323	4246.50097	90.99323
72450.00000	90.60912	4242.12655	90.60912
72500.00000	90.16829	4234.29756	90.16829
72550.00000	89.99425	4226.87320	89.99425
72600.00000	89.47037	4222.32343	89.47037
72650.00000	88.88665	4212.66804	88.88665
72700.00000	88.41110	4204.58933	88.41110
72750.00000	87.42235	4198.61777	87.42235
72800.00000	86.64432	4187.26282	86.64432
72850.00000	85.52900	4178.97749	85.52900
72900.00000	83.90818	4170.38083	83.90818
72950.00000	82.79869	4158.75463	82.79869
73000.00000	80.50667	4148.19381	80.50667
73050.00000	77.91734	4132.84210	77.91734
73100.00000	75.25558	4116.80763	75.25558
73150.00000	68.64406	4082.88619	68.64406
73200.00000	69.48145	4037.54063	69.48145
73250.00000	68.75843	3978.04279	68.75843
73300.00000	73.40012	3958.21992	73.40012
73350.00000	74.93208	3947.23783	74.93208
73400.00000	75.73215	3933.80145	75.73215
73450.00000	77.66788	3922.87898	77.66788
73500.00000	78.28776	3913.98352	78.28776
73550.00000	79.33829	3911.99867	79.33829
73600.00000	79.56351	3908.51156	79.56351
73650.00000	80.01892	3897.56991	80.01892
73700.00000	80.84356	3897.57679	80.84356
73750.00000	80.71317	3892.18680	80.71317
73800.00000	81.37166	3883.07734	81.37166
73850.00000	81.62270	3880.59025	81.62270
73900.00000	81.65009	3872.58029	81.65009
73950.00000	82.36035	3863.92355	82.36035
74000.00000	82.36230	3858.75184	82.36230
74050.00000	82.52156	3847.60737	82.52156
74100.00000	83.12546	3838.95042	83.12546
74150.00000	82.71854	3825.72722	82.71854
74200.00000	82.77326	3816.88028	82.77326
74250.00000	82.38043	3804.00368	82.38043
74300.00000	82.59996	3777.50043	82.59996
74350.00000	82.32101	3763.92894	82.32101
74400.00000	80.15014	3701.75891	80.15014
74450.00000	76.49573	3528.00446	76.49573
74500.00000	81.16410	3452.21175	81.16410
74550.00000	79.58628	3414.60167	79.58628
74600.00000	79.46214	3389.60462	79.46214
74650.00000	81.09687	3370.15181	81.09687
74700.00000	80.33512	3352.73081	80.33512
74750.00000	80.91604	3337.26003	80.91604
74800.00000	82.04017	3321.90068	82.04017
74850.00000	82.13232	3307.65879	82.13232
74900.00000	82.98999	3295.75894	82.98999
74950.00000	83.19003	3283.63262	83.19003
75000.00000	84.23901	3272.66777	84.23901
75050.00000	84.32462	3260.51037	84.32462
75100.00000	85.08749	3253.33931	85.08749
75150.00000	85.01502	3246.36211	85.01502
75200.00000	85.48132	3233.99216	85.48132
75250.00000	85.49883	3226.88711	85.49883
75300.00000	85.72524	3217.65718	85.72524
75350.00000	86.33831	3216.05617	86.33831
75400.00000	86.09394	3208.15602	86.09394
75450.00000	86.14546	3201.24229	86.14546
75500.00000	86.41822	3196.01642	86.41822
75550.00000	86.32817	3191.10961	86.32817
75600.00000	86.77784	3187.31389	86.77784
75650.00000	86.46994	3180.50778	86.46994
75700.00000	86.89209	3174.75195	86.89209
75750.00000	86.85825	3173.01329	86.85825
75800.00000	86.72445	3165.90435	86.72445
75850.00000	87.22794	3162.34466	87.22794
75900.00000	86.66619	3160.44328	86.66619
75950.00000	87.09692	3156.74700	87.09692
76000.00000	87.33375	3152.23764	87.33375
76050.00000	86.80805	3147.89847	86.80805
76100.00000	87.43747	3143.91720	87.43747
76150.00000	87.38942	3140.61500	87.38942
76200.00000	87.33253	3135.93766	87.33253
76250.00000	87.67575	3134.64553	87.67575
76300.00000	87.05645	3132.43660	87.05645
76350.00000	87.45596	3125.50913	87.45596
76400.00000	87.72030	3126.00440	87.72030
76450.00000	87.24547	3120.99631	87.24547
76500.00000	88.16477	3116.92798	88.16477
76550.00000	87.88507	3117.26410	87.88507
76600.00000	87.60521	3109.55320	87.60521
76650.00000	88.24254	3107.87230	88.24254
76700.00000	87.39462	3106.51976	87.39462
76750.00000	87.88129	3098.93273	87.88129
76800.00000	87.93569	3098.58942	87.93569
76850.00000	87.86125	3093.33666	87.86125
76900.00000	88.44601	3090.14956	88.44601
76950.00000	87.74238	3089.32648	87.74238
77000.00000	87.84595	3081.59053	87.84595
77050.00000	88.48676	3080.09622	88.48676
77100.00000	87.80322	3076.93377	87.80322
77150.00000	88.32352	3070.36048	88.32352
77200.00000	88.30711	3071.72349	88.30711
77250.00000	87.70214	3063.29506	87.70214
77300.00000	88.20899	3062.17305	88.20899
77350.00000	87.10152	3058.36488	87.10152
77400.00000	88.04274	3049.43167	88.04274
77450.00000	87.86464	3053.28442	87.86464
77500.00000	87.06107	3046.63280	87.06107
77550.00000	87.93815	3043.23629	87.93815
77600.00000	87.00252	3046.54314	87.00252
77650.00000	86.66809	3033.97219	86.66809
77700.00000	87.43227	3036.92451	87.43227
77750.00000	85.95339	3033.97644	85.95339
77800.00000	86.97062	3025.45138	86.97062
77850.00000	86.79499	3031.47027	86.79499
77900.00000	85.71719	3021.50565	85.71719
77950.00000	86.63346	3021.01356	86.63346
78000.00000	85.58736	3023.42783	85.58736
78050.00000	85.52911	3011.93232	85.52911
78100.00000	86.15118	3015.41772	86.15118
78150.00000	84.90473	3011.96805	84.90473
78200.00000	85.99992	3005.75603	85.99992
78250.00000	85.47615	3007.48959	85.47615
78300.00000	84.71956	2999.13538	84.71956
78350.00000	85.60481	3001.41035	85.60481
78400.00000	84.63501	3001.16167	84.63501
78450.00000	85.35346	2992.48772	85.35346
78500.00000	85.11754	2995.27700	85.11754
78550.00000	84.13964	2989.57211	84.13964
78600.00000	84.99549	2986.77498	84.99549
78650.00000	84.20413	2988.80846	84.20413
78700.00000	84.09794	2979.80549	84.09794
78750.00000	84.61852	2982.78898	84.61852
78800.00000	83.14241	2980.00823	83.14241
78850.00000	84.02042	2972.83919	84.02042
78900.00000	83.63948	2975.97159	83.63948
78950.00000	82.95300	2967.33585	82.95300
79000.00000	83.70692	2968.60720	83.70692
79050.00000	82.82401	2968.76845	82.82401
79100.00000	83.31968	2961.57428	83.31968
79150.00000	83.27821	2966.00757	83.27821
79200.00000	82.50994	2958.72470	82.50994
79250.00000	83.09384	2958.86884	83.09384
79300.00000	82.51157	2958.43312	82.51157
79350.00000	82.57825	2951.91824	82.57825
79400.00000	82.62626	2954.65552	82.62626
79450.00000	81.94022	2948.39968	81.94022
79500.00000	82.49967	2946.70958	82.49967
79550.00000	81.92649	2949.40844	81.92649
79600.00000	82.05447	2942.26869	82.05447
79650.00000	82.32645	2943.22397	82.32645
79700.00000	81.44074	2938.80744	81.44074
79750.00000	82.31817	2936.29720	82.31817
79800.00000	81.82340	2935.10480	81.82340
79850.00000	81.50381	2931.74320	81.50381
79900.00000	81.83774	2932.56112	81.83774
79950.00000	81.13452	2928.06540	81.13452
80000.00000	81.81684	2925.25556	81.81684
80050.00000	81.23502	2926.37212	81.23502
80100.00000	80.71409	2919.22203	80.71409
80150.00000	80.90162	2917.62128	80.90162
80200.00000	80.56168	2916.47435	80.56168
80250.00000	80.61034	2911.66736	80.61034
80300.00000	79.98376	2912.25551	79.98376
80350.00000	79.44865	2905.74131	79.44865
80400.00000	79.12851	2906.98600	79.12851
80450.00000	78.30382	2907.60398	78.30382
80500.00000	78.42078	2907.25909	78.42078
80550.00000	77.96312	2909.61063	77.96312
80600.00000	77.85277	2904.98969	77.85277
80650.00000	77.85950	2908.55637	77.85950
80700.00000	77.45195	2908.13200	77.45195
80750.00000	78.10000	2906.40188	78.10000
80800.00000	77.76467	2910.24469	77.76467
80850.00000	77.83258	2907.61157	77.83258
80900.00000	77.88609	2908.75336	77.88609
80950.00000	77.81371	2906.55414	77.81371
81000.00000	78.14784	2906.65582	78.14784
81050.00000	78.43733	2907.93969	78.43733
81100.00000	78.07619	2903.87185	78.07619
81150.00000	78.84946	2901.77539	78.84946
81200.00000	78.40605	2900.06414	78.40605
81250.00000	78.60082	2895.95026	78.60082
81300.00000	78.11198	2896.48023	78.11198
81350.00000	77.96142	2892.50824	77.96142
81400.00000	77.78111	2894.80842	77.78111
81450.00000	77.32666	2893.12379	77.32666
81500.00000	77.52457	2896.85336	77.52457
81550.00000	77.27706	2896.01239	77.27706
81600.00000	77.21402	2897.39361	77.21402
81650.00000	77.73102	2899.76535	77.73102
81700.00000	77.84825	2901.48768	77.84825
81750.00000	77.99416	2901.43008	77.99416
81800.00000	78.13693	2902.73479	78.13693
81850.00000	78.51248	2901.82615	78.51248
81900.00000	79.14652	2899.05191	79.14652
81950.00000	79.31476	2896.24780	79.31476
82000.00000	79.61366	2895.85136	79.61366
82050.00000	79.80011	2895.10045	79.80011
82100.00000	80.34247	2893.05302	80.34247
82150.00000	80.52758	2891.83860	80.52758
82200.00000	80.58921	2889.14091	80.58921
82250.00000	80.80816	2886.94151	80.80816
82300.00000	80.67648	2884.81950	80.67648
82350.00000	80.79947	2883.41397	80.79947
82400.00000	80.46889	2883.09685	80.46889
82450.00000	80.71479	2880.66616	80.71479
82500.00000	80.48254	2879.93034	80.48254
82550.00000	80.25039	2880.34230	80.25039
82600.00000	80.08082	2883.76290	80.08082
82650.00000	80.36711	2887.20636	80.36711
82700.00000	80.92175	2893.74867	80.92175
82750.00000	82.43267	2896.34786	82.43267
82800.00000	83.66161	2896.53972	83.66161
82850.00000	85.19698	2892.21466	85.19698
82900.00000	86.27905	2885.99997	86.27905
82950.00000	87.24168	2879.82390	87.24168
83000.00000	87.93039	2873.55505	87.93039
83050.00000	88.41759	2868.19666	88.41759
83100.00000	89.20293	2862.56911	89.20293
83150.00000	89.61028	2857.90077	89.61028
83200.00000	90.08600	2853.27754	90.08600
83250.00000	90.57933	2849.11843	90.57933
83300.00000	91.05439	2843.84055	91.05439
83350.00000	91.36461	2839.91118	91.36461
83400.00000	91.78489	2835.12292	91.78489
83450.00000	92.14599	2830.66217	92.14599
83500.00000	92.47158	2826.08853	92.47158
83550.00000	92.79481	2819.95616	92.79481
83600.00000	93.23531	2815.47732	93.23531
83650.00000	93.33140	2809.95880	93.33140
83700.00000	93.67917	2804.51421	93.67917
83750.00000	93.92127	2797.97048	93.92127
83800.00000	94.12229	2792.24328	94.12229
83850.00000	94.20513	2785.91931	94.20513
83900.00000	94.34238	2778.95766	94.34238
83950.00000	94.41694	2772.75408	94.41694
84000.00000	94.37138	2765.03609	94.37138
84050.00000	94.20518	2758.37751	94.20518
84100.00000	94.00168	2751.34442	94.00168
84150.00000	93.64337	2744.65295	93.64337
84200.00000	93.27057	2738.35212	93.27057
84250.00000	92.70531	2732.44512	92.70531
84300.00000	92.02029	2727.32172	92.02029
84350.00000	91.41967	2723.89060	91.41967
84400.00000	90.73613	2721.16682	90.73613
84450.00000	90.28764	2720.29885	90.28764
84500.00000	89.98560	2720.75291	89.98560
84550.00000	89.97149	2721.11882	89.97149
84600.00000	90.07142	2720.41429	90.07142
84650.00000	90.35174	2718.57258	90.35174
84700.00000	90.78620	2716.16892	90.78620
84750.00000	91.15176	2712.38731	91.15176
84800.00000	91.43749	2706.93355	91.43749
84850.00000	91.73537	2701.72404	91.73537
84900.00000	91.84786	2696.41995	91.84786
84950.00000	91.96536	2689.47937	91.96536
85000.00000	91.80257	2684.33230	91.80257
85050.00000	91.75481	2677.46079	91.75481
85100.00000	91.61165	2671.26601	91.61165
85150.00000	91.42279	2665.14625	91.42279
85200.00000	91.14307	2659.95669	91.14307
85250.00000	91.24719	2653.77552	91.24719
85300.00000	90.48234	2648.88308	90.48234
85350.00000	90.02758	2643.43758	90.02758
85400.00000	89.72612	2638.12093	89.72612
85450.00000	89.13923	2633.44780	89.13923
85500.00000	88.80602	2628.66592	88.80602
85550.00000	88.31154	2624.05521	88.31154
85600.00000	87.73635	2618.92182	87.73635
85650.00000	87.33196	2614.95864	87.33196
85700.00000	86.80109	2611.03822	86.80109
85750.00000	86.20081	2608.09469	86.20081
85800.00000	85.86308	2605.89919	85.86308
85850.00000	85.13128	2602.28365	85.13128
85900.00000	84.35180	2598.30499	84.35180
85950.00000	84.13068	2595.99490	84.13068
86000.00000	83.56768	2595.40804	83.56768
86050.00000	83.10296	2592.66895	83.10296
86100.00000	82.98477	2591.13341	82.98477
86150.00000	82.34853	2587.52241	82.34853
86200.00000	82.06160	2586.24042	82.06160
86250.00000	81.59982	2584.66936	81.59982
86300.00000	80.73347	2581.91680	80.73347
86350.00000	80.69869	2580.01667	80.69869
86400.00000	79.73203	2575.35882	79.73203
86450.00000	79.40328	2576.76612	79.40328
86500.00000	78.83740	2579.22197	78.83740
86550.00000	78.58949	2577.66032	78.58949
86600.00000	78.35433	2573.64564	78.35433
86650.00000	77.98868	2573.68946	77.98868
86700.00000	77.63841	2571.66393	77.63841
86750.00000	77.38568	2573.89107	77.38568
86800.00000	77.32016	2570.93970	77.32016
86850.00000	77.38168	2567.23341	77.38168
86900.00000	76.88486	2569.68273	76.88486
86950.00000	76.80403	2570.26459	76.80403
87000.00000	76.06521	2568.20085	76.06521
87050.00000	76.03097	2561.86170	76.03097
87100.00000	75.91195	2560.72886	75.91195
87150.00000	75.74203	2562.67853	75.74203
87200.00000	75.26098	2559.32744	75.26098
87250.00000	75.24129	2561.71569	75.24129
87300.00000	74.74605	2556.72240	74.74605
87350.00000	74.28403	2555.03913	74.28403
87400.00000	73.72391	2558.62338	73.72391
87450.00000	74.04940	2551.03106	74.04940
87500.00000	72.99603	2551.29739	72.99603
87550.00000	72.82785	2557.10715	72.82785
87600.00000	72.90164	2550.51872	72.90164
87650.00000	72.70886	2550.23778	72.70886
87700.00000	72.25938	2551.75582	72.25938
87750.00000	71.81580	2551.97798	71.81580
87800.00000	71.60732	2549.86048	71.60732
87850.00000	71.24265	2550.33610	71.24265
87900.00000	70.14499	2550.03876	70.14499
87950.00000	71.41346	2553.71178	71.41346
88000.00000	70.87260	2554.47155	70.87260
88050.00000	70.40496	2562.18635	70.40496
88100.00000	69.93006	2556.27150	69.93006
88150.00000	70.34109	2557.96992	70.34109
88200.00000	70.34006	2554.66960	70.34006
88250.00000	70.32752	2556.45967	70.32752
88300.00000	70.77778	2557.02961	70.77778
88350.00000	70.80483	2560.44574	70.80483
88400.00000	70.59145	2560.37707	70.59145
88450.00000	70.91117	2557.80575	70.91117
88500.00000	70.57507	2559.37917	70.57507
88550.00000	70.20324	2556.85607	70.20324
88600.00000	70.77498	2558.51519	70.77498
88650.00000	70.90314	2559.06379	70.90314
88700.00000	70.78007	2564.05936	70.78007
88750.00000	71.53258	2565.41392	71.53258
88800.00000	71.63995	2558.07195	71.63995
88850.00000	72.06855	2559.94851	72.06855
88900.00000	72.19465	2559.67358	72.19465
88950.00000	73.03932	2558.35570	73.03932
89000.00000	72.37483	2561.06448	72.37483
89050.00000	73.19067	2554.22869	73.19067
89100.00000	73.79559	2554.00938	73.79559
89150.00000	73.70907	2548.54824	73.70907
89200.00000	73.97874	2553.34952	73.97874
89250.00000	74.18392	2552.03803	74.18392
89300.00000	74.71702	2547.87794	74.71702
89350.00000	74.76198	2543.62784	74.76198
89400.00000	75.46972	2540.17249	75.46972
89450.00000	75.55265	2540.63072	75.55265
89500.00000	75.61505	2536.16844	75.61505
89550.00000	75.93926	2533.63655	75.93926
89600.00000	75.80829	2529.52226	75.80829
89650.00000	76.05086	2527.06392	76.05086
89700.00000	75.98911	2524.83635	75.98911
89750.00000	76.20966	2522.30341	76.20966
89800.00000	76.10861	2521.24399	76.10861
89850.00000	76.16440	2519.07634	76.16440
89900.00000	76.04839	2517.75949	76.04839
89950.00000	76.61328	2517.78582	76.61328
90000.00000	76.57882	2523.80670	76.57882
90050.00000	77.12744	2526.42149	77.12744
90100.00000	79.64591	2523.94909	79.64591
90150.00000	80.87228	2523.53851	80.87228
90200.00000	83.09908	2513.56909	83.09908
90250.00000	84.44257	2489.93730	84.44257
90300.00000	84.12106	2468.60371	84.12106
90350.00000	82.23072	2455.79087	82.23072
90400.00000	80.79858	2452.27464	80.79858
90450.00000	80.12032	2444.88967	80.12032
90500.00000	79.00252	2440.79695	79.00252
90550.00000	78.00987	2436.37912	78.00987
90600.00000	77.26258	2434.01839	77.26258
90650.00000	76.60116	2429.66556	76.60116
90700.00000	75.74314	2429.65921	75.74314
90750.00000	75.00058	2434.22141	75.00058
90800.00000	74.09690	2434.94524	74.09690
90850.00000	74.09219	2434.07314	74.09219
90900.00000	73.85531	2430.73297	73.85531
90950.00000	73.54741	2437.43385	73.54741
91000.00000	73.31908	2436.84944	73.31908
91050.00000	73.16763	2442.48868	73.16763
91100.00000	73.54349	2441.63046	73.54349
91150.00000	73.70432	2441.30748	73.70432
91200.00000	73.96370	2440.64743	73.96370
91250.00000	73.89318	2443.15803	73.89318
91300.00000	74.34651	2443.22016	74.34651
91350.00000	74.56243	2444.44571	74.56243
91400.00000	75.64912	2440.89475	75.64912
91450.00000	75.69499	2438.93242	75.69499
91500.00000	76.25223	2436.73143	76.25223
91550.00000	76.64545	2436.90742	76.64545
91600.00000	77.06719	2430.99865	77.06719
91650.00000	77.51481	2428.37827	77.51481
91700.00000	78.03927	2427.25678	78.03927
91750.00000	77.97232	2422.69926	77.97232
91800.00000	78.13415	2418.01337	78.13415
91850.00000	78.50306	2414.95221	78.50306
91900.00000	78.94608	2411.48917	78.94608
91950.00000	78.70591	2410.23069	78.70591
92000.00000	79.18713	2407.07086	79.18713
92050.00000	79.05509	2399.94688	79.05509
92100.00000	79.81380	2396.01448	79.81380
92150.00000	79.54115	2392.46980	79.54115
92200.00000	79.40897	2387.77809	79.40897
92250.00000	79.79958	2386.77103	79.79958
92300.00000	79.82258	2383.16601	79.82258
92350.00000	80.13638	2378.31248	80.13638
92400.00000	80.28150	2372.82299	80.28150
92450.00000	80.31563	2370.63270	80.31563
92500.00000	79.87874	2365.20462	79.87874
92550.00000	80.21388	2359.78522	80.21388
92600.00000	80.28078	2358.54682	80.28078
92650.00000	80.19681	2352.70766	80.19681
92700.00000	80.22199	2348.82639	80.22199
92750.00000	80.07323	2346.82396	80.07323
92800.00000	80.17818	2342.62673	80.17818
92850.00000	80.26486	2336.76882	80.26486
92900.00000	80.44502	2333.37386	80.44502
92950.00000	80.19660	2331.66322	80.19660
93000.00000	80.26350	2324.25165	80.26350
93050.00000	79.98336	2319.95162	79.98336
93100.00000	79.80396	2315.73783	79.80396
93150.00000	80.08444	2309.49322	80.08444
93200.00000	79.90417	2305.93545	79.90417
93250.00000	79.52552	2304.45940	79.52552
93300.00000	79.86910	2298.71328	79.86910
93350.00000	79.30626	2292.95580	79.30626
93400.00000	79.35697	2289.69465	79.35697
93450.00000	79.55066	2283.00032	79.55066
93500.00000	79.32708	2279.47399	79.32708
93550.00000	79.09339	2272.33469	79.09339
93600.00000	78.96025	2267.14171	78.96025
93650.00000	78.48813	2262.66211	78.48813
93700.00000	78.35968	2261.09805	78.35968
93750.00000	77.89335	2254.50684	77.89335
93800.00000	77.92465	2247.79103	77.92465
93850.00000	77.42542	2244.25091	77.42542
93900.00000	76.55789	2234.88441	76.55789
93950.00000	76.93366	2235.10232	76.93366
94000.00000	76.46468	2227.36047	76.46468
94050.00000	75.95219	2224.13177	75.95219
94100.00000	75.07913	2221.39949	75.07913
94150.00000	75.33261	2218.91564	75.33261
94200.00000	74.70250	2217.16420	74.70250
94250.00000	74.49944	2210.71958	74.49944
94300.00000	74.46596	2209.27061	74.46596
94350.00000	73.86111	2202.30151	73.86111
94400.00000	74.06601	2200.22882	74.06601
94450.00000	73.49982	2195.48540	73.49982
94500.00000	74.04039	2193.85875	74.04039
94550.00000	73.78206	2188.12386	73.78206
94600.00000	73.26041	2185.17096	73.26041
94650.00000	72.95221	2177.16971	72.95221
94700.00000	72.84696	2175.89448	72.84696
94750.00000	72.75373	2171.97727	72.75373
94800.00000	71.92402	2162.74620	71.92402
94850.00000	72.76069	2155.86234	72.76069
94900.00000	71.80305	2151.55522	71.80305
94950.00000	71.95262	2153.44230	71.95262
95000.00000	72.15214	2134.68705	72.15214
95050.00000	69.92348	2140.97494	69.92348
95100.00000	70.51453	2137.71190	70.51453
95150.00000	70.90275	2120.99351	70.90275
95200.00000	69.93562	2120.64611	69.93562
95250.00000	69.52735	2111.07163	69.52735
95300.00000	69.23323	2120.42239	69.23323
95350.00000	68.56839	2101.82677	68.56839
95400.00000	69.23562	2100.61764	69.23562
95450.00000	67.84919	2093.52177	67.84919
95500.00000	68.42651	2083.04408	68.42651
95550.00000	65.69828	2086.15046	65.69828
95600.00000	68.12318	2072.91458	68.12318
95650.00000	65.49371	2086.86153	65.49371
95700.00000	66.43905	2083.93441	66.43905
95750.00000	65.25307	2073.81644	65.25307
95800.00000	64.88266	2072.26375	64.88266
95850.00000	67.61895	2066.40755	67.61895
95900.00000	64.44790	2082.70324	64.44790
95950.00000	66.34438	2074.80093	66.34438
96000.00000	64.79538	2054.80602	64.79538
96050.00000	66.83237	2051.22160	66.83237
96100.00000	63.83235	2040.63892	63.83235
96150.00000	67.50070	2022.18228	67.50070
96200.00000	65.46490	2032.35453	65.46490
96250.00000	66.16315	2002.34833	66.16315
96300.00000	64.26906	1985.83684	64.26906
96350.00000	68.02530	1982.55238	68.02530
96400.00000	67.42782	1967.29918	67.42782
96450.00000	66.78698	1992.86494	66.78698
96500.00000	68.82067	1949.72402	68.82067
96550.00000	66.22970	1930.00474	66.22970
96600.00000	67.76805	1943.24419	67.76805
96650.00000	64.25022	1955.66302	64.25022
96700.00000	63.21242	1927.12112	63.21242
96750.00000	69.58698	1897.01715	69.58698
96800.00000	68.81030	1899.92514	68.81030
96850.00000	64.90170	1895.60129	64.90170
96900.00000	69.07011	1875.39743	69.07011
96950.00000	67.89868	1894.30181	67.89868
97000.00000	68.25517	1864.61353	68.25517
97050.00000	68.02241	1847.10689	68.02241
97100.00000	73.16251	1871.24568	73.16251
97150.00000	71.26423	1873.96653	71.26423
97200.00000	73.43609	1839.11378	73.43609
97250.00000	69.27222	1822.30277	69.27222
97300.00000	72.19030	1788.13434	72.19030
97350.00000	68.83443	1766.27196	68.83443
97400.00000	68.79716	1772.69169	68.79716
97450.00000	65.88832	1782.48608	65.88832
97500.00000	63.92800	1795.84316	63.92800
97550.00000	63.04428	1796.34782	63.04428
97600.00000	61.82779	1807.60929	61.82779
97650.00000	63.11530	1789.61903	63.11530
97700.00000	63.91835	1801.44378	63.91835
97750.00000	59.58635	1790.85508	59.58635
97800.00000	61.42841	1772.47175	61.42841
97850.00000	59.07543	1789.01523	59.07543
97900.00000	60.12651	1786.88183	60.12651
97950.00000	57.32311	1778.31395	57.32311
98000.00000	64.09940	1785.26415	64.09940
98050.00000	60.29423	1789.60163	60.29423
98100.00000	59.69903	1810.21972	59.69903
98150.00000	58.62817	1798.99228	58.62817
98200.00000	60.48856	1765.33609	60.48856
98250.00000	55.91181	1816.42742	55.91181
98300.00000	61.11212	1778.88188	61.11212
98350.00000	59.67290	1821.78879	59.67290
98400.00000	57.46207	1784.32338	57.46207
98450.00000	59.76255	1755.15589	59.76255
98500.00000	59.35314	1789.10264	59.35314
98550.00000	57.13525	1802.69627	57.13525
98600.00000	56.49158	1815.12879	56.49158
98650.00000	59.90965	1789.27231	59.90965
98700.00000	52.87106	1733.49213	52.87106
98750.00000	55.59617	1732.97155	55.59617
98800.00000	57.14091	1783.91059	57.14091
98850.00000	45.62529	1835.54203	45.62529
98900.00000	54.15941	1797.08124	54.15941
98950.00000	51.31098	1780.41083	51.31098
99000.00000	53.69193	1833.97508	53.69193
99050.00000	51.76286	1713.79124	51.76286
99100.00000	52.61996	1793.62439	52.61996
99150.00000	50.92021	1832.54594	50.92021
99200.00000	46.37533	1749.18387	46.37533
99250.00000	53.40424	1782.72376	53.40424
99300.00000	52.04288	1724.52906	52.04288
99350.00000	54.69210	1779.84885	54.69210
99400.00000	57.53575	1760.63887	57.53575
99450.00000	53.68566	1837.03089	53.68566
99500.00000	50.46396	1807.32936	50.46396
99550.00000	47.65405	1820.54370	47.65405
99600.00000	53.63201	1790.43372	53.63201
99650.00000	49.92198	1684.04433	49.92198
99700.00000	57.84710	1794.78659	57.84710
99750.00000	46.92299	1750.75839	46.92299
99800.00000	55.23098	1714.67967	55.23098
99850.00000	42.84386	1608.70002	42.84386
99900.00000	44.38159	1513.06227	44.38159
99950.00000	32.85315	1428.10371	32.85315
