---ACOUSTIC CALIBRATION---
Filename: C:\Data\CL0809 DATA\CL08095\RightSecondary.calib
Date: 8/9/2019 4:10:59 PM
Format: 4
Probe Tube Correction File: C:\Data\Probe Tube Calibrations\74_ProbeTube.calib
Experiment VIs: 2128
EPL_CFTS.exe V15.0.1f5 (2015)
DAQmx V15.1

Attenuation (dB): 40.000000
Min Freq (Hz): 50.000000
Max Freq (Hz): 99950.000000
Freq Step (Hz): 50.000000
Sample Rate (Hz): 200000.000000
[Smoothing]
Method=None
MA.Iterations=0
MA.Length=0
Loess.Length=0
Loess.Type=Linear
Loess.Robust=FALSE


Freq(Hz)	Mag(dB)	Phase(deg)	Unsmoothed(dB)

50.00000	84.53340	258.52459	84.53340
100.00000	70.57691	344.53543	70.57691
150.00000	75.64878	355.87082	75.64878
200.00000	69.76356	476.11812	69.76356
250.00000	58.60079	587.41444	58.60079
300.00000	66.95525	831.92347	66.95525
350.00000	68.33894	990.44708	68.33894
400.00000	65.60381	1062.43216	65.60381
450.00000	70.86436	1107.73223	70.86436
500.00000	76.40996	1216.03524	76.40996
550.00000	80.68127	1153.17689	80.68127
600.00000	81.12522	1118.36154	81.12522
650.00000	86.73667	1103.28159	86.73667
700.00000	85.79607	1101.21875	85.79607
750.00000	90.79722	1064.83674	90.79722
800.00000	91.64898	1045.71417	91.64898
850.00000	90.45502	1035.73320	90.45502
900.00000	91.17850	1029.40111	91.17850
950.00000	92.37851	1012.50177	92.37851
1000.00000	91.95703	1004.89996	91.95703
1050.00000	91.96524	990.76740	91.96524
1100.00000	90.88990	979.96236	90.88990
1150.00000	89.51002	983.19066	89.51002
1200.00000	90.09402	989.65963	90.09402
1250.00000	90.83395	988.87294	90.83395
1300.00000	91.83553	993.17087	91.83553
1350.00000	93.13949	986.98275	93.13949
1400.00000	93.32478	988.43271	93.32478
1450.00000	95.15972	988.86976	95.15972
1500.00000	96.41891	982.98433	96.41891
1550.00000	97.56940	978.83668	97.56940
1600.00000	99.12427	973.15903	99.12427
1650.00000	99.98611	967.60709	99.98611
1700.00000	104.04047	952.23131	104.04047
1750.00000	101.17777	930.79974	101.17777
1800.00000	100.69764	925.27171	100.69764
1850.00000	100.38873	918.03535	100.38873
1900.00000	100.16556	911.00573	100.16556
1950.00000	99.37085	905.53970	99.37085
2000.00000	98.61200	901.73219	98.61200
2050.00000	97.72063	903.09167	97.72063
2100.00000	98.52946	908.59882	98.52946
2150.00000	99.59760	902.85143	99.59760
2200.00000	99.81138	894.03746	99.81138
2250.00000	99.29659	887.84968	99.29659
2300.00000	98.87175	886.62882	98.87175
2350.00000	98.94955	884.28140	98.94955
2400.00000	99.02412	881.02487	99.02412
2450.00000	98.53275	877.46192	98.53275
2500.00000	98.18412	878.66281	98.18412
2550.00000	98.28718	877.51249	98.28718
2600.00000	98.26540	877.77055	98.26540
2650.00000	98.50548	877.34421	98.50548
2700.00000	98.59941	875.00665	98.59941
2750.00000	98.75686	875.22860	98.75686
2800.00000	99.18364	872.74108	99.18364
2850.00000	99.39913	870.44765	99.39913
2900.00000	99.74401	868.56908	99.74401
2950.00000	100.10900	865.74904	100.10900
3000.00000	100.29403	863.47853	100.29403
3050.00000	100.56350	860.88726	100.56350
3100.00000	100.80250	857.75694	100.80250
3150.00000	100.78726	855.46884	100.78726
3200.00000	100.95413	852.90532	100.95413
3250.00000	101.18551	850.94640	101.18551
3300.00000	101.21616	848.79290	101.21616
3350.00000	101.45710	847.33449	101.45710
3400.00000	101.56954	845.54104	101.56954
3450.00000	101.77842	844.57479	101.77842
3500.00000	101.99715	843.68194	101.99715
3550.00000	102.73905	841.39516	102.73905
3600.00000	102.81914	837.24160	102.81914
3650.00000	103.07279	836.38867	103.07279
3700.00000	103.27545	834.74109	103.27545
3750.00000	103.72451	831.85122	103.72451
3800.00000	104.46531	830.41145	104.46531
3850.00000	104.98276	821.90329	104.98276
3900.00000	105.34344	814.79794	105.34344
3950.00000	104.50538	812.35410	104.50538
4000.00000	104.20287	814.59245	104.20287
4050.00000	104.67763	816.24685	104.67763
4100.00000	105.42441	816.35703	105.42441
4150.00000	107.05057	813.46492	107.05057
4200.00000	108.02522	808.71426	108.02522
4250.00000	108.13066	796.05126	108.13066
4300.00000	108.23683	792.99452	108.23683
4350.00000	108.64600	788.26816	108.64600
4400.00000	109.00774	782.16829	109.00774
4450.00000	109.09515	774.98015	109.09515
4500.00000	109.18719	768.87353	109.18719
4550.00000	109.06878	763.51796	109.06878
4600.00000	109.09147	758.22156	109.09147
4650.00000	109.10408	753.44274	109.10408
4700.00000	109.06987	748.61134	109.06987
4750.00000	109.04424	744.01963	109.04424
4800.00000	109.05642	739.69875	109.05642
4850.00000	109.06731	735.03491	109.06731
4900.00000	109.08518	729.71825	109.08518
4950.00000	109.05866	724.64833	109.05866
5000.00000	108.98501	719.10985	108.98501
5050.00000	108.85568	713.49572	108.85568
5100.00000	108.64342	707.77633	108.64342
5150.00000	108.28792	702.08083	108.28792
5200.00000	107.68504	696.94014	107.68504
5250.00000	106.84998	696.90448	106.84998
5300.00000	107.37296	697.16804	107.37296
5350.00000	107.59995	691.07402	107.59995
5400.00000	107.40391	685.27683	107.40391
5450.00000	107.07245	680.49224	107.07245
5500.00000	106.75770	676.17120	106.75770
5550.00000	106.45940	672.27140	106.45940
5600.00000	106.12846	668.01002	106.12846
5650.00000	105.69094	664.57263	105.69094
5700.00000	105.30246	661.33835	105.30246
5750.00000	104.95232	658.32625	104.95232
5800.00000	104.58822	655.82355	104.58822
5850.00000	104.23124	653.30351	104.23124
5900.00000	103.87242	650.65469	103.87242
5950.00000	103.53794	648.41505	103.53794
6000.00000	103.22867	646.17992	103.22867
6050.00000	102.91667	643.84962	102.91667
6100.00000	102.61467	641.61197	102.61467
6150.00000	102.26703	639.41609	102.26703
6200.00000	101.91604	637.77455	101.91604
6250.00000	101.60950	636.21622	101.60950
6300.00000	101.32155	634.57306	101.32155
6350.00000	100.96326	633.44950	100.96326
6400.00000	100.66811	632.38775	100.66811
6450.00000	100.40088	631.44989	100.40088
6500.00000	100.11230	630.82486	100.11230
6550.00000	99.94339	630.65365	99.94339
6600.00000	99.87405	630.30935	99.87405
6650.00000	99.83675	629.64972	99.83675
6700.00000	99.89529	629.18443	99.89529
6750.00000	100.02277	627.65505	100.02277
6800.00000	100.05698	625.50107	100.05698
6850.00000	100.00335	623.06481	100.00335
6900.00000	99.93504	620.17356	99.93504
6950.00000	99.75627	617.62170	99.75627
7000.00000	99.52449	615.16233	99.52449
7050.00000	99.32868	613.15026	99.32868
7100.00000	99.08209	611.09492	99.08209
7150.00000	98.82001	609.30590	98.82001
7200.00000	98.52021	608.23763	98.52021
7250.00000	98.19806	607.10738	98.19806
7300.00000	97.90158	606.49942	97.90158
7350.00000	97.56894	606.16915	97.56894
7400.00000	97.29534	606.47804	97.29534
7450.00000	97.09434	606.96085	97.09434
7500.00000	96.96620	607.73703	96.96620
7550.00000	96.93768	608.48586	96.93768
7600.00000	97.03949	609.61186	97.03949
7650.00000	97.22844	610.15405	97.22844
7700.00000	97.37916	610.54442	97.37916
7750.00000	97.60312	610.63203	97.60312
7800.00000	97.88089	609.99880	97.88089
7850.00000	98.04648	608.69259	98.04648
7900.00000	98.19604	607.58757	98.19604
7950.00000	98.46567	606.17894	98.46567
8000.00000	98.65605	604.24473	98.65605
8050.00000	98.79283	602.94172	98.79283
8100.00000	99.03486	601.49123	99.03486
8150.00000	99.21274	599.64851	99.21274
8200.00000	99.29157	597.78784	99.29157
8250.00000	99.45617	596.33183	99.45617
8300.00000	99.63195	594.31311	99.63195
8350.00000	99.78536	592.04635	99.78536
8400.00000	99.91769	590.00533	99.91769
8450.00000	100.11495	587.87631	100.11495
8500.00000	100.28248	585.82647	100.28248
8550.00000	100.39788	583.84182	100.39788
8600.00000	100.58222	581.85468	100.58222
8650.00000	100.71398	579.68637	100.71398
8700.00000	100.84155	577.03630	100.84155
8750.00000	101.00656	574.72130	101.00656
8800.00000	101.16558	572.15237	101.16558
8850.00000	101.35853	569.44336	101.35853
8900.00000	101.49146	566.79089	101.49146
8950.00000	101.63344	564.21255	101.63344
9000.00000	101.71036	561.46650	101.71036
9050.00000	101.82900	558.45489	101.82900
9100.00000	101.89993	555.04540	101.89993
9150.00000	101.96292	551.70994	101.96292
9200.00000	102.05122	548.61480	102.05122
9250.00000	102.10597	545.25717	102.10597
9300.00000	102.14894	541.45965	102.14894
9350.00000	102.06449	537.99316	102.06449
9400.00000	102.04431	534.38879	102.04431
9450.00000	101.97964	530.62483	101.97964
9500.00000	101.83566	526.99290	101.83566
9550.00000	101.72389	523.46979	101.72389
9600.00000	101.61198	520.26864	101.61198
9650.00000	101.44556	517.03389	101.44556
9700.00000	101.24772	514.04632	101.24772
9750.00000	101.04869	511.27702	101.04869
9800.00000	100.77890	508.66187	100.77890
9850.00000	100.52733	506.16660	100.52733
9900.00000	100.31551	504.40313	100.31551
9950.00000	100.10039	502.51989	100.10039
10000.00000	99.96568	501.37947	99.96568
10050.00000	99.81332	499.59666	99.81332
10100.00000	99.64802	498.44085	99.64802
10150.00000	99.41874	497.04379	99.41874
10200.00000	99.25415	495.93745	99.25415
10250.00000	99.10925	495.12932	99.10925
10300.00000	99.05060	494.16982	99.05060
10350.00000	98.98283	493.31832	98.98283
10400.00000	98.93120	492.45163	98.93120
10450.00000	98.92978	491.43705	98.92978
10500.00000	98.93752	490.27690	98.93752
10550.00000	98.99148	489.21879	98.99148
10600.00000	99.14504	487.41683	99.14504
10650.00000	99.20676	485.70132	99.20676
10700.00000	99.33728	483.68515	99.33728
10750.00000	99.47439	481.92999	99.47439
10800.00000	99.62535	479.35765	99.62535
10850.00000	99.73459	476.98572	99.73459
10900.00000	99.87454	474.64051	99.87454
10950.00000	99.97689	471.85488	99.97689
11000.00000	100.10470	468.91407	100.10470
11050.00000	100.14467	465.91725	100.14467
11100.00000	100.21386	463.27565	100.21386
11150.00000	100.24641	460.15948	100.24641
11200.00000	100.23857	457.07716	100.23857
11250.00000	100.17708	453.76549	100.17708
11300.00000	100.10562	450.65903	100.10562
11350.00000	100.02752	447.24379	100.02752
11400.00000	99.88459	443.81169	99.88459
11450.00000	99.73258	440.60735	99.73258
11500.00000	99.58102	437.25267	99.58102
11550.00000	99.36058	433.77812	99.36058
11600.00000	99.17174	430.67071	99.17174
11650.00000	98.96736	427.59858	98.96736
11700.00000	98.75970	424.42425	98.75970
11750.00000	98.49551	421.76549	98.49551
11800.00000	98.29262	419.49521	98.29262
11850.00000	98.07649	416.99819	98.07649
11900.00000	97.83078	415.13487	97.83078
11950.00000	97.61509	413.22699	97.61509
12000.00000	97.41269	411.92881	97.41269
12050.00000	97.16387	410.99337	97.16387
12100.00000	96.86692	409.75920	96.86692
12150.00000	96.60563	408.75988	96.60563
12200.00000	96.38421	407.39439	96.38421
12250.00000	96.17319	406.71123	96.17319
12300.00000	95.81806	405.38579	95.81806
12350.00000	95.63660	404.54188	95.63660
12400.00000	95.33286	402.87625	95.33286
12450.00000	95.22811	401.77143	95.22811
12500.00000	95.05002	401.10506	95.05002
12550.00000	94.90556	399.92346	94.90556
12600.00000	94.83913	398.13435	94.83913
12650.00000	94.82307	397.72268	94.82307
12700.00000	94.62349	396.26760	94.62349
12750.00000	94.50764	395.60175	94.50764
12800.00000	94.49340	394.25835	94.49340
12850.00000	94.29148	393.89071	94.29148
12900.00000	94.18375	391.99374	94.18375
12950.00000	94.21002	389.98430	94.21002
13000.00000	94.05420	387.74515	94.05420
13050.00000	93.99940	385.18543	93.99940
13100.00000	93.96947	382.27250	93.96947
13150.00000	94.15986	379.92715	94.15986
13200.00000	94.41228	375.09560	94.41228
13250.00000	94.96368	369.78863	94.96368
13300.00000	95.69738	369.44535	95.69738
13350.00000	96.65270	367.67399	96.65270
13400.00000	97.69437	370.57673	97.69437
13450.00000	98.33218	379.72187	98.33218
13500.00000	97.84874	392.98471	97.84874
13550.00000	96.62079	398.38951	96.62079
13600.00000	94.82902	400.56693	94.82902
13650.00000	93.12104	397.71436	93.12104
13700.00000	91.75440	392.09874	91.75440
13750.00000	90.87427	382.97377	90.87427
13800.00000	90.38807	374.24598	90.38807
13850.00000	90.37457	364.82569	90.37457
13900.00000	90.52831	354.88083	90.52831
13950.00000	91.31485	347.97568	91.31485
14000.00000	92.40389	342.79045	92.40389
14050.00000	94.05080	342.41222	94.05080
14100.00000	95.82376	345.51655	95.82376
14150.00000	96.99833	358.37561	96.99833
14200.00000	96.70888	373.78088	96.70888
14250.00000	95.28445	386.31548	95.28445
14300.00000	93.56145	390.11579	93.56145
14350.00000	92.08069	389.01674	92.08069
14400.00000	91.07976	387.37104	91.07976
14450.00000	90.45867	383.18221	90.45867
14500.00000	89.88308	378.09755	89.88308
14550.00000	89.94018	372.13194	89.94018
14600.00000	89.99755	368.05006	89.99755
14650.00000	90.47528	363.30616	90.47528
14700.00000	91.01977	359.02317	91.01977
14750.00000	91.75113	356.04410	91.75113
14800.00000	92.56564	355.25118	92.56564
14850.00000	93.53081	355.51692	93.53081
14900.00000	94.45605	358.09724	94.45605
14950.00000	94.96811	363.16037	94.96811
15000.00000	95.09875	368.15724	95.09875
15050.00000	94.96879	371.52055	94.96879
15100.00000	94.70476	373.65390	94.70476
15150.00000	94.25005	372.93507	94.25005
15200.00000	93.86122	371.24258	93.86122
15250.00000	93.62208	369.23669	93.62208
15300.00000	93.69411	365.47167	93.69411
15350.00000	93.92717	362.78346	93.92717
15400.00000	94.18712	358.18191	94.18712
15450.00000	94.60094	352.86691	94.60094
15500.00000	95.15756	350.80863	95.15756
15550.00000	95.68921	348.07916	95.68921
15600.00000	96.40709	346.56339	96.40709
15650.00000	96.83591	346.16688	96.83591
15700.00000	97.02579	346.09770	97.02579
15750.00000	97.44210	346.42534	97.44210
15800.00000	97.33480	345.79027	97.33480
15850.00000	97.27222	345.44615	97.27222
15900.00000	97.13846	343.87635	97.13846
15950.00000	97.03580	341.30800	97.03580
16000.00000	96.92272	339.18704	96.92272
16050.00000	97.00022	336.21407	97.00022
16100.00000	97.10001	334.14199	97.10001
16150.00000	97.37748	330.85042	97.37748
16200.00000	97.65952	328.78075	97.65952
16250.00000	97.95122	326.36631	97.95122
16300.00000	98.28428	324.59316	98.28428
16350.00000	98.66671	323.00583	98.66671
16400.00000	98.91366	321.90742	98.91366
16450.00000	99.12530	320.71833	99.12530
16500.00000	99.27448	319.04465	99.27448
16550.00000	99.48257	317.80316	99.48257
16600.00000	99.56847	315.29350	99.56847
16650.00000	99.59282	312.75344	99.59282
16700.00000	99.65885	310.00235	99.65885
16750.00000	99.75162	307.17701	99.75162
16800.00000	99.81555	304.47758	99.81555
16850.00000	99.93184	301.59850	99.93184
16900.00000	100.17640	299.40992	100.17640
16950.00000	100.29679	297.20260	100.29679
17000.00000	100.48428	295.25384	100.48428
17050.00000	100.64447	293.58345	100.64447
17100.00000	100.71908	291.80435	100.71908
17150.00000	100.81540	289.86108	100.81540
17200.00000	100.86616	288.15658	100.86616
17250.00000	100.93444	285.78225	100.93444
17300.00000	101.00330	283.18579	101.00330
17350.00000	101.07215	280.83212	101.07215
17400.00000	101.17704	278.48189	101.17704
17450.00000	101.30460	276.22272	101.30460
17500.00000	101.46024	273.79379	101.46024
17550.00000	101.54862	271.50977	101.54862
17600.00000	101.69359	269.26696	101.69359
17650.00000	101.87651	267.65188	101.87651
17700.00000	102.03661	265.50336	102.03661
17750.00000	102.14282	263.44871	102.14282
17800.00000	102.23545	261.18938	102.23545
17850.00000	102.30800	259.22197	102.30800
17900.00000	102.46322	257.14175	102.46322
17950.00000	102.54181	255.10800	102.54181
18000.00000	102.71213	253.01739	102.71213
18050.00000	102.83818	250.52959	102.83818
18100.00000	102.94763	248.02067	102.94763
18150.00000	103.12519	245.45882	103.12519
18200.00000	103.22577	242.99789	103.22577
18250.00000	103.38196	240.25234	103.38196
18300.00000	103.46447	237.68984	103.46447
18350.00000	103.58418	235.08462	103.58418
18400.00000	103.67610	232.33500	103.67610
18450.00000	103.79033	229.86909	103.79033
18500.00000	103.90687	227.56454	103.90687
18550.00000	104.00687	224.66980	104.00687
18600.00000	104.08570	222.14169	104.08570
18650.00000	104.22722	219.24423	104.22722
18700.00000	104.29735	216.89405	104.29735
18750.00000	104.33874	214.20261	104.33874
18800.00000	104.41817	211.46908	104.41817
18850.00000	104.47755	209.00358	104.47755
18900.00000	104.50723	206.34640	104.50723
18950.00000	104.56438	203.50158	104.56438
19000.00000	104.58559	200.90712	104.58559
19050.00000	104.63092	198.29270	104.63092
19100.00000	104.66349	195.68746	104.66349
19150.00000	104.74190	193.32227	104.74190
19200.00000	104.79740	190.53178	104.79740
19250.00000	104.81832	188.19161	104.81832
19300.00000	104.87634	185.81753	104.87634
19350.00000	104.94107	183.16129	104.94107
19400.00000	104.94397	180.71422	104.94397
19450.00000	104.98378	177.95051	104.98378
19500.00000	105.03104	175.73441	105.03104
19550.00000	105.06922	173.26050	105.06922
19600.00000	105.09812	170.75645	105.09812
19650.00000	105.13915	168.28120	105.13915
19700.00000	105.20369	165.80451	105.20369
19750.00000	105.24276	163.43406	105.24276
19800.00000	105.30185	161.19818	105.30185
19850.00000	105.35073	158.58803	105.35073
19900.00000	105.39957	156.04471	105.39957
19950.00000	105.42237	153.74226	105.42237
20000.00000	105.48225	150.95347	105.48225
20050.00000	105.53602	148.59250	105.53602
20100.00000	105.59769	145.92791	105.59769
20150.00000	105.65768	143.34516	105.65768
20200.00000	105.71314	140.65089	105.71314
20250.00000	105.77386	138.31498	105.77386
20300.00000	105.83679	135.52378	105.83679
20350.00000	105.86839	132.79489	105.86839
20400.00000	105.90142	130.28384	105.90142
20450.00000	105.94660	127.59762	105.94660
20500.00000	105.98126	124.81044	105.98126
20550.00000	106.01270	121.97377	106.01270
20600.00000	106.04487	119.29607	106.04487
20650.00000	106.10346	116.38391	106.10346
20700.00000	106.14390	113.79750	106.14390
20750.00000	106.12562	110.97044	106.12562
20800.00000	106.13823	108.22045	106.13823
20850.00000	106.14284	105.15465	106.14284
20900.00000	106.13379	102.34114	106.13379
20950.00000	106.13582	99.47728	106.13582
21000.00000	106.18891	96.47963	106.18891
21050.00000	106.14777	93.72140	106.14777
21100.00000	106.14267	90.77540	106.14267
21150.00000	106.12860	88.16886	106.12860
21200.00000	106.08897	85.26306	106.08897
21250.00000	106.03268	82.39311	106.03268
21300.00000	105.98209	79.30629	105.98209
21350.00000	105.91806	76.63088	105.91806
21400.00000	105.86770	73.59937	105.86770
21450.00000	105.86385	70.80433	105.86385
21500.00000	105.82532	68.18294	105.82532
21550.00000	105.76838	65.78057	105.76838
21600.00000	105.68402	62.70512	105.68402
21650.00000	105.61768	60.21877	105.61768
21700.00000	105.50261	57.31850	105.50261
21750.00000	105.42324	54.67772	105.42324
21800.00000	105.32388	51.94545	105.32388
21850.00000	105.25241	49.35865	105.25241
21900.00000	105.13907	46.94850	105.13907
21950.00000	105.04241	44.49021	105.04241
22000.00000	104.89812	42.16482	104.89812
22050.00000	104.78643	40.15438	104.78643
22100.00000	104.71910	38.26396	104.71910
22150.00000	104.60546	36.19728	104.60546
22200.00000	104.54973	33.72358	104.54973
22250.00000	104.50626	31.78625	104.50626
22300.00000	104.45854	29.54844	104.45854
22350.00000	104.39030	27.30988	104.39030
22400.00000	104.35038	24.85971	104.35038
22450.00000	104.30047	22.90823	104.30047
22500.00000	104.27406	20.76103	104.27406
22550.00000	104.24166	18.62841	104.24166
22600.00000	104.15642	16.70850	104.15642
22650.00000	104.12454	14.31570	104.12454
22700.00000	104.08341	12.12993	104.08341
22750.00000	104.04193	 9.72336	104.04193
22800.00000	104.02848	 7.34841	104.02848
22850.00000	103.98395	 5.10633	103.98395
22900.00000	103.98286	 3.17942	103.98286
22950.00000	103.98321	 0.79812	103.98321
23000.00000	103.90747	-1.42383	103.90747
23050.00000	103.82438	-3.85952	103.82438
23100.00000	103.78818	-6.28234	103.78818
23150.00000	103.70730	-8.56395	103.70730
23200.00000	103.65667	-11.42239	103.65667
23250.00000	103.66747	-13.83011	103.66747
23300.00000	103.67237	-16.36574	103.67237
23350.00000	103.56414	-18.66156	103.56414
23400.00000	103.51944	-20.61725	103.51944
23450.00000	103.45356	-22.88615	103.45356
23500.00000	103.43657	-25.02031	103.43657
23550.00000	103.32423	-27.62305	103.32423
23600.00000	103.28036	-30.13167	103.28036
23650.00000	103.13969	-32.33925	103.13969
23700.00000	103.12415	-34.41621	103.12415
23750.00000	103.05645	-36.78756	103.05645
23800.00000	102.96718	-39.09664	102.96718
23850.00000	102.92408	-41.73892	102.92408
23900.00000	102.86608	-43.88690	102.86608
23950.00000	102.76540	-45.88377	102.76540
24000.00000	102.74121	-48.54527	102.74121
24050.00000	102.61459	-51.05411	102.61459
24100.00000	102.50676	-53.56528	102.50676
24150.00000	102.40760	-55.71743	102.40760
24200.00000	102.34710	-58.58728	102.34710
24250.00000	102.27489	-60.57657	102.27489
24300.00000	102.20881	-62.93621	102.20881
24350.00000	102.10867	-64.68279	102.10867
24400.00000	102.05169	-67.49571	102.05169
24450.00000	101.86005	-69.16776	101.86005
24500.00000	101.78153	-72.44977	101.78153
24550.00000	101.64370	-74.91641	101.64370
24600.00000	101.54652	-77.03942	101.54652
24650.00000	101.43400	-79.53896	101.43400
24700.00000	101.30697	-81.33487	101.30697
24750.00000	101.20602	-83.93247	101.20602
24800.00000	100.98770	-85.45194	100.98770
24850.00000	100.90891	-87.64274	100.90891
24900.00000	100.70338	-89.40960	100.70338
24950.00000	100.62788	-91.41099	100.62788
25000.00000	100.42307	-93.61570	100.42307
25050.00000	100.35710	-95.14338	100.35710
25100.00000	100.25349	-96.43528	100.25349
25150.00000	100.06309	-98.26194	100.06309
25200.00000	100.01688	-100.04324	100.01688
25250.00000	99.84825	-102.26396	99.84825
25300.00000	99.68914	-103.78067	99.68914
25350.00000	99.63718	-106.04360	99.63718
25400.00000	99.54025	-107.61032	99.54025
25450.00000	99.48289	-110.03085	99.48289
25500.00000	99.35961	-111.16124	99.35961
25550.00000	99.25983	-112.76689	99.25983
25600.00000	99.13112	-113.83759	99.13112
25650.00000	99.07111	-116.41941	99.07111
25700.00000	99.02431	-117.83587	99.02431
25750.00000	98.99245	-119.90065	98.99245
25800.00000	98.90359	-121.02281	98.90359
25850.00000	98.85038	-123.10420	98.85038
25900.00000	98.70511	-125.08532	98.70511
25950.00000	98.64262	-126.48131	98.64262
26000.00000	98.57604	-127.97001	98.57604
26050.00000	98.59050	-130.28610	98.59050
26100.00000	98.55321	-132.21944	98.55321
26150.00000	98.43169	-134.56932	98.43169
26200.00000	98.33458	-136.09864	98.33458
26250.00000	98.32245	-138.31548	98.32245
26300.00000	98.19885	-140.40882	98.19885
26350.00000	98.14087	-142.72160	98.14087
26400.00000	98.11193	-144.96777	98.11193
26450.00000	97.96488	-147.57782	97.96488
26500.00000	97.88567	-149.45730	97.88567
26550.00000	97.78205	-150.84096	97.78205
26600.00000	97.69223	-153.04105	97.69223
26650.00000	97.58700	-155.80257	97.58700
26700.00000	97.48344	-157.81864	97.48344
26750.00000	97.24524	-159.78848	97.24524
26800.00000	97.12918	-162.19513	97.12918
26850.00000	96.93361	-163.73361	96.93361
26900.00000	96.76978	-166.15994	96.76978
26950.00000	96.55798	-168.33232	96.55798
27000.00000	96.35126	-170.05854	96.35126
27050.00000	96.23710	-171.73776	96.23710
27100.00000	96.01904	-173.97613	96.01904
27150.00000	95.78253	-175.82178	95.78253
27200.00000	95.62417	-177.91152	95.62417
27250.00000	95.37856	-179.42994	95.37856
27300.00000	95.14811	-181.10323	95.14811
27350.00000	94.89496	-182.38052	94.89496
27400.00000	94.70683	-183.73891	94.70683
27450.00000	94.56850	-185.78770	94.56850
27500.00000	94.24564	-186.84653	94.24564
27550.00000	94.00121	-187.89265	94.00121
27600.00000	93.80964	-189.04337	93.80964
27650.00000	93.55858	-190.23963	93.55858
27700.00000	93.24928	-191.29571	93.24928
27750.00000	93.02004	-191.91635	93.02004
27800.00000	92.81052	-193.01354	92.81052
27850.00000	92.57437	-193.44015	92.57437
27900.00000	92.38803	-193.86077	92.38803
27950.00000	92.11712	-194.08414	92.11712
28000.00000	91.94543	-194.86782	91.94543
28050.00000	91.76452	-195.00838	91.76452
28100.00000	91.54932	-195.05022	91.54932
28150.00000	91.38336	-195.24331	91.38336
28200.00000	91.21069	-195.90171	91.21069
28250.00000	91.04686	-195.72670	91.04686
28300.00000	90.88023	-195.71267	90.88023
28350.00000	90.84316	-195.24105	90.84316
28400.00000	90.62712	-195.99106	90.62712
28450.00000	90.51011	-195.51217	90.51011
28500.00000	90.45346	-196.00082	90.45346
28550.00000	90.34941	-195.62608	90.34941
28600.00000	90.41107	-195.61034	90.41107
28650.00000	90.23488	-194.74487	90.23488
28700.00000	90.16689	-194.68993	90.16689
28750.00000	90.13483	-194.24588	90.13483
28800.00000	90.00315	-194.58161	90.00315
28850.00000	90.04932	-194.23388	90.04932
28900.00000	90.02330	-193.74739	90.02330
28950.00000	90.01185	-193.20693	90.01185
29000.00000	90.15586	-192.90400	90.15586
29050.00000	90.20148	-192.96376	90.20148
29100.00000	90.15361	-192.88370	90.15361
29150.00000	90.25705	-193.21416	90.25705
29200.00000	90.32200	-192.55137	90.32200
29250.00000	90.36137	-191.89172	90.36137
29300.00000	90.45100	-191.66676	90.45100
29350.00000	90.54158	-191.44697	90.54158
29400.00000	90.65247	-191.38519	90.65247
29450.00000	90.83865	-191.18523	90.83865
29500.00000	90.98862	-191.56442	90.98862
29550.00000	91.13937	-191.13796	91.13937
29600.00000	91.22325	-191.51878	91.22325
29650.00000	91.50881	-191.24698	91.50881
29700.00000	91.62983	-191.29254	91.62983
29750.00000	91.81119	-191.94202	91.81119
29800.00000	91.98917	-192.18233	91.98917
29850.00000	92.23691	-191.98039	92.23691
29900.00000	92.38593	-192.71522	92.38593
29950.00000	92.53303	-192.84620	92.53303
30000.00000	92.77264	-193.79627	92.77264
30050.00000	92.98903	-193.68305	92.98903
30100.00000	93.26610	-194.56367	93.26610
30150.00000	93.47699	-194.59436	93.47699
30200.00000	93.67765	-195.44411	93.67765
30250.00000	93.91571	-196.10143	93.91571
30300.00000	94.10089	-196.87948	94.10089
30350.00000	94.42083	-197.41215	94.42083
30400.00000	94.67708	-198.68381	94.67708
30450.00000	94.95782	-199.40068	94.95782
30500.00000	95.19413	-200.29198	95.19413
30550.00000	95.41365	-201.20463	95.41365
30600.00000	95.69321	-202.34914	95.69321
30650.00000	95.94950	-203.22900	95.94950
30700.00000	96.20615	-204.46141	96.20615
30750.00000	96.47239	-205.74423	96.47239
30800.00000	96.66532	-206.84890	96.66532
30850.00000	96.97698	-207.97300	96.97698
30900.00000	97.23686	-209.36212	97.23686
30950.00000	97.49080	-210.58201	97.49080
31000.00000	97.78879	-212.25684	97.78879
31050.00000	98.01412	-213.52860	98.01412
31100.00000	98.29881	-215.01175	98.29881
31150.00000	98.57005	-216.51960	98.57005
31200.00000	98.81820	-218.30734	98.81820
31250.00000	99.11617	-219.86867	99.11617
31300.00000	99.38028	-221.69189	99.38028
31350.00000	99.62609	-223.06865	99.62609
31400.00000	99.92208	-224.95443	99.92208
31450.00000	100.19610	-226.69534	100.19610
31500.00000	100.43358	-228.75950	100.43358
31550.00000	100.71420	-230.84308	100.71420
31600.00000	100.99549	-232.91687	100.99549
31650.00000	101.26424	-235.17200	101.26424
31700.00000	101.47154	-237.36447	101.47154
31750.00000	101.71123	-239.48209	101.71123
31800.00000	101.93809	-241.93519	101.93809
31850.00000	102.17523	-243.99341	102.17523
31900.00000	102.36515	-246.48748	102.36515
31950.00000	102.60457	-248.86241	102.60457
32000.00000	102.80690	-251.25014	102.80690
32050.00000	102.99651	-253.75086	102.99651
32100.00000	103.20229	-256.27825	103.20229
32150.00000	103.34290	-258.80930	103.34290
32200.00000	103.51969	-261.30769	103.51969
32250.00000	103.69933	-263.82890	103.69933
32300.00000	103.82906	-266.32184	103.82906
32350.00000	103.97332	-268.82173	103.97332
32400.00000	104.10682	-271.29661	104.10682
32450.00000	104.23174	-273.98497	104.23174
32500.00000	104.33605	-276.32893	104.33605
32550.00000	104.46485	-278.71989	104.46485
32600.00000	104.58184	-281.14863	104.58184
32650.00000	104.66653	-283.69650	104.66653
32700.00000	104.75756	-285.92937	104.75756
32750.00000	104.83316	-288.26812	104.83316
32800.00000	104.91218	-290.59959	104.91218
32850.00000	105.02522	-293.03570	105.02522
32900.00000	105.07360	-295.07792	105.07360
32950.00000	105.15427	-297.33527	105.15427
33000.00000	105.22493	-299.56610	105.22493
33050.00000	105.28512	-301.72468	105.28512
33100.00000	105.34296	-303.79983	105.34296
33150.00000	105.40515	-305.84756	105.40515
33200.00000	105.46463	-307.73687	105.46463
33250.00000	105.50012	-309.69459	105.50012
33300.00000	105.56396	-311.40641	105.56396
33350.00000	105.67565	-313.50078	105.67565
33400.00000	105.70908	-315.46185	105.70908
33450.00000	105.75936	-317.35268	105.75936
33500.00000	105.82146	-318.71803	105.82146
33550.00000	105.90490	-320.58909	105.90490
33600.00000	105.97732	-322.16943	105.97732
33650.00000	106.05045	-323.83752	106.05045
33700.00000	106.09479	-325.55060	106.09479
33750.00000	106.16822	-327.14935	106.16822
33800.00000	106.26242	-328.55337	106.26242
33850.00000	106.37013	-329.98129	106.37013
33900.00000	106.45098	-331.42906	106.45098
33950.00000	106.58741	-332.72232	106.58741
34000.00000	106.69863	-333.90945	106.69863
34050.00000	106.80807	-335.12195	106.80807
34100.00000	106.96516	-336.46652	106.96516
34150.00000	107.12883	-337.72222	107.12883
34200.00000	107.29795	-338.97100	107.29795
34250.00000	107.48277	-340.24867	107.48277
34300.00000	107.67672	-341.47812	107.67672
34350.00000	107.89934	-342.94709	107.89934
34400.00000	108.11251	-344.30823	108.11251
34450.00000	108.33978	-345.83246	108.33978
34500.00000	108.55810	-347.11832	108.55810
34550.00000	108.83796	-348.58805	108.83796
34600.00000	109.09607	-350.12389	109.09607
34650.00000	109.36701	-351.88771	109.36701
34700.00000	109.61796	-353.62221	109.61796
34750.00000	109.90948	-355.44086	109.90948
34800.00000	110.18147	-357.39221	110.18147
34850.00000	110.48369	-359.47053	110.48369
34900.00000	110.77605	-361.59263	110.77605
34950.00000	111.02967	-364.09964	111.02967
35000.00000	111.26105	-366.32818	111.26105
35050.00000	111.47699	-368.47824	111.47699
35100.00000	111.68132	-370.44251	111.68132
35150.00000	111.94479	-372.21222	111.94479
35200.00000	112.23977	-374.16948	112.23977
35250.00000	112.54896	-376.22147	112.54896
35300.00000	112.84767	-378.49240	112.84767
35350.00000	113.16167	-380.68543	113.16167
35400.00000	113.47445	-383.20484	113.47445
35450.00000	113.78669	-385.85043	113.78669
35500.00000	114.08462	-388.49777	114.08462
35550.00000	114.36651	-391.12361	114.36651
35600.00000	114.67320	-393.82984	114.67320
35650.00000	114.98637	-396.61094	114.98637
35700.00000	115.26414	-399.51828	115.26414
35750.00000	115.54534	-402.39688	115.54534
35800.00000	115.82697	-405.48375	115.82697
35850.00000	116.11552	-408.48457	116.11552
35900.00000	116.39772	-411.49664	116.39772
35950.00000	116.66250	-414.58113	116.66250
36000.00000	116.92538	-417.64395	116.92538
36050.00000	117.18009	-420.96742	117.18009
36100.00000	117.43933	-424.11785	117.43933
36150.00000	117.69248	-427.55646	117.69248
36200.00000	117.93801	-430.84554	117.93801
36250.00000	118.16924	-434.22332	118.16924
36300.00000	118.40446	-437.57389	118.40446
36350.00000	118.63500	-441.04394	118.63500
36400.00000	118.85237	-444.48317	118.85237
36450.00000	119.06233	-447.95747	119.06233
36500.00000	119.28193	-451.34337	119.28193
36550.00000	119.49476	-454.92374	119.49476
36600.00000	119.67959	-458.36197	119.67959
36650.00000	119.88216	-461.84953	119.88216
36700.00000	120.09148	-465.29769	120.09148
36750.00000	120.28593	-468.84254	120.28593
36800.00000	120.49237	-472.49510	120.49237
36850.00000	120.68346	-476.03261	120.68346
36900.00000	120.87159	-479.61705	120.87159
36950.00000	121.06187	-483.23509	121.06187
37000.00000	121.25252	-486.78639	121.25252
37050.00000	121.45774	-490.39778	121.45774
37100.00000	121.65111	-494.12512	121.65111
37150.00000	121.85478	-497.83601	121.85478
37200.00000	122.05266	-501.58520	122.05266
37250.00000	122.26789	-505.47862	122.26789
37300.00000	122.46140	-509.35377	122.46140
37350.00000	122.66927	-513.26875	122.66927
37400.00000	122.89238	-517.38056	122.89238
37450.00000	123.11013	-521.58609	123.11013
37500.00000	123.31706	-525.94823	123.31706
37550.00000	123.52349	-530.45799	123.52349
37600.00000	123.72407	-535.02909	123.72407
37650.00000	123.92799	-539.82396	123.92799
37700.00000	124.10928	-544.68644	124.10928
37750.00000	124.28272	-549.92805	124.28272
37800.00000	124.40472	-555.34882	124.40472
37850.00000	124.50829	-560.75110	124.50829
37900.00000	124.56272	-566.44812	124.56272
37950.00000	124.55914	-572.11140	124.55914
38000.00000	124.53062	-577.77383	124.53062
38050.00000	124.42551	-583.52859	124.42551
38100.00000	124.27634	-588.95732	124.27634
38150.00000	124.09945	-594.18405	124.09945
38200.00000	123.88825	-599.30076	123.88825
38250.00000	123.63527	-603.98377	123.63527
38300.00000	123.40564	-608.49302	123.40564
38350.00000	123.17417	-612.82410	123.17417
38400.00000	122.93313	-616.95642	122.93313
38450.00000	122.69100	-620.88400	122.69100
38500.00000	122.46688	-624.53243	122.46688
38550.00000	122.26833	-628.25251	122.26833
38600.00000	122.07814	-631.82854	122.07814
38650.00000	121.90112	-635.44118	121.90112
38700.00000	121.72309	-639.02567	121.72309
38750.00000	121.55019	-642.61198	121.55019
38800.00000	121.35905	-646.21801	121.35905
38850.00000	121.19044	-649.74803	121.19044
38900.00000	121.02756	-653.29700	121.02756
38950.00000	120.85146	-656.83724	120.85146
39000.00000	120.67222	-660.44103	120.67222
39050.00000	120.48320	-664.13100	120.48320
39100.00000	120.28674	-667.79676	120.28674
39150.00000	120.06852	-671.34449	120.06852
39200.00000	119.84264	-674.85590	119.84264
39250.00000	119.60773	-678.26384	119.60773
39300.00000	119.34981	-681.62399	119.34981
39350.00000	119.09848	-684.74964	119.09848
39400.00000	118.88058	-687.90377	118.88058
39450.00000	118.65447	-691.01208	118.65447
39500.00000	118.41186	-694.05559	118.41186
39550.00000	118.17664	-697.08000	118.17664
39600.00000	117.93531	-700.16650	117.93531
39650.00000	117.69645	-703.14933	117.69645
39700.00000	117.45164	-706.03799	117.45164
39750.00000	117.19086	-708.84377	117.19086
39800.00000	116.92623	-711.59262	116.92623
39850.00000	116.65955	-714.26854	116.65955
39900.00000	116.39210	-716.90219	116.39210
39950.00000	116.13642	-719.25648	116.13642
40000.00000	115.89802	-721.54187	115.89802
40050.00000	115.66646	-723.94285	115.66646
40100.00000	115.44416	-726.26447	115.44416
40150.00000	115.22656	-728.54185	115.22656
40200.00000	115.01286	-730.81139	115.01286
40250.00000	114.79867	-733.07047	114.79867
40300.00000	114.59482	-735.23893	114.59482
40350.00000	114.38782	-737.47583	114.38782
40400.00000	114.17759	-739.72250	114.17759
40450.00000	113.99344	-741.96484	113.99344
40500.00000	113.79461	-744.11443	113.79461
40550.00000	113.58592	-746.41731	113.58592
40600.00000	113.38392	-748.42595	113.38392
40650.00000	113.17482	-750.68955	113.17482
40700.00000	112.96658	-752.89354	112.96658
40750.00000	112.76805	-754.94345	112.76805
40800.00000	112.54707	-757.15655	112.54707
40850.00000	112.30912	-759.11100	112.30912
40900.00000	112.10563	-761.12882	112.10563
40950.00000	111.85768	-763.11257	111.85768
41000.00000	111.64536	-764.98541	111.64536
41050.00000	111.39634	-766.75968	111.39634
41100.00000	111.17632	-768.50348	111.17632
41150.00000	110.94756	-770.23565	110.94756
41200.00000	110.71394	-771.69108	110.71394
41250.00000	110.51612	-773.22704	110.51612
41300.00000	110.28294	-774.62578	110.28294
41350.00000	110.06637	-775.96038	110.06637
41400.00000	109.86014	-777.18135	109.86014
41450.00000	109.67326	-778.37100	109.67326
41500.00000	109.46139	-779.33874	109.46139
41550.00000	109.25268	-780.31824	109.25268
41600.00000	109.09457	-781.33411	109.09457
41650.00000	108.88194	-782.09933	108.88194
41700.00000	108.73951	-782.85780	108.73951
41750.00000	108.59115	-783.29557	108.59115
41800.00000	108.49006	-783.86577	108.49006
41850.00000	108.36252	-784.25604	108.36252
41900.00000	108.30387	-784.75598	108.30387
41950.00000	108.26000	-785.09432	108.26000
42000.00000	108.22334	-785.52555	108.22334
42050.00000	108.21614	-786.03572	108.21614
42100.00000	108.24861	-786.46474	108.24861
42150.00000	108.30029	-787.04982	108.30029
42200.00000	108.40129	-787.73000	108.40129
42250.00000	108.45166	-788.25030	108.45166
42300.00000	108.57511	-788.92536	108.57511
42350.00000	108.69916	-790.19851	108.69916
42400.00000	108.81901	-791.08563	108.81901
42450.00000	108.93944	-792.36376	108.93944
42500.00000	109.03880	-793.65038	109.03880
42550.00000	109.19762	-795.00984	109.19762
42600.00000	109.31567	-796.61034	109.31567
42650.00000	109.46177	-798.18613	109.46177
42700.00000	109.58304	-799.78910	109.58304
42750.00000	109.73845	-801.55024	109.73845
42800.00000	109.85635	-803.50744	109.85635
42850.00000	110.00136	-805.41882	110.00136
42900.00000	110.12842	-807.35621	110.12842
42950.00000	110.22603	-809.40466	110.22603
43000.00000	110.35026	-811.43314	110.35026
43050.00000	110.46912	-813.55890	110.46912
43100.00000	110.59907	-815.86624	110.59907
43150.00000	110.71111	-817.71659	110.71111
43200.00000	110.82273	-820.17662	110.82273
43250.00000	110.94894	-822.11783	110.94894
43300.00000	111.07683	-824.62587	111.07683
43350.00000	111.14616	-826.72365	111.14616
43400.00000	111.25654	-829.21738	111.25654
43450.00000	111.38544	-831.84811	111.38544
43500.00000	111.45796	-834.16895	111.45796
43550.00000	111.58892	-836.88509	111.58892
43600.00000	111.60499	-839.43444	111.60499
43650.00000	111.70798	-842.00186	111.70798
43700.00000	111.80110	-844.79248	111.80110
43750.00000	111.85539	-847.95745	111.85539
43800.00000	111.94382	-850.80505	111.94382
43850.00000	111.94124	-853.62155	111.94124
43900.00000	112.00027	-856.70948	112.00027
43950.00000	112.01093	-859.88476	112.01093
44000.00000	112.01724	-862.67137	112.01724
44050.00000	112.04526	-865.36118	112.04526
44100.00000	111.99737	-868.59693	111.99737
44150.00000	112.00718	-871.45935	112.00718
44200.00000	111.94462	-874.71598	111.94462
44250.00000	111.87773	-877.32669	111.87773
44300.00000	111.87173	-880.67251	111.87173
44350.00000	111.78184	-883.26945	111.78184
44400.00000	111.71784	-886.03028	111.71784
44450.00000	111.59504	-888.84605	111.59504
44500.00000	111.52096	-891.17841	111.52096
44550.00000	111.35128	-893.65212	111.35128
44600.00000	111.27541	-896.25257	111.27541
44650.00000	111.09064	-898.86257	111.09064
44700.00000	111.00994	-901.00894	111.00994
44750.00000	110.82250	-903.44345	110.82250
44800.00000	110.71900	-905.53726	110.71900
44850.00000	110.63671	-907.70364	110.63671
44900.00000	110.46076	-909.72062	110.46076
44950.00000	110.34584	-911.85164	110.34584
45000.00000	110.21977	-913.63691	110.21977
45050.00000	110.13783	-915.65147	110.13783
45100.00000	110.05422	-917.57484	110.05422
45150.00000	109.97163	-919.00048	109.97163
45200.00000	109.86117	-920.31767	109.86117
45250.00000	109.80654	-922.40184	109.80654
45300.00000	109.75041	-924.31461	109.75041
45350.00000	109.71982	-925.02306	109.71982
45400.00000	109.59702	-926.93539	109.59702
45450.00000	109.61225	-928.61497	109.61225
45500.00000	109.52068	-929.59583	109.52068
45550.00000	109.58045	-931.31122	109.58045
45600.00000	109.60558	-933.14750	109.60558
45650.00000	109.62066	-934.93943	109.62066
45700.00000	109.67935	-936.90585	109.67935
45750.00000	109.66259	-938.73428	109.66259
45800.00000	109.58603	-940.96580	109.58603
45850.00000	109.60450	-942.93686	109.60450
45900.00000	109.58376	-944.32534	109.58376
45950.00000	109.54276	-946.09806	109.54276
46000.00000	109.54546	-947.89737	109.54546
46050.00000	109.63737	-949.85883	109.63737
46100.00000	109.71627	-952.03642	109.71627
46150.00000	109.77127	-954.32557	109.77127
46200.00000	109.79604	-957.32607	109.79604
46250.00000	109.71739	-959.33518	109.71739
46300.00000	109.66619	-961.84253	109.66619
46350.00000	109.51119	-964.36595	109.51119
46400.00000	109.41808	-966.34225	109.41808
46450.00000	109.33720	-968.41743	109.33720
46500.00000	109.25235	-970.35794	109.25235
46550.00000	109.11566	-972.53356	109.11566
46600.00000	108.96305	-973.76745	108.96305
46650.00000	108.82782	-974.90561	108.82782
46700.00000	108.72102	-976.56094	108.72102
46750.00000	108.66412	-977.61301	108.66412
46800.00000	108.52371	-978.81508	108.52371
46850.00000	108.43780	-979.71696	108.43780
46900.00000	108.44401	-980.47896	108.44401
46950.00000	108.53475	-980.97632	108.53475
47000.00000	108.42421	-981.99739	108.42421
47050.00000	108.50931	-983.08468	108.50931
47100.00000	108.60012	-983.44597	108.60012
47150.00000	108.62284	-984.21919	108.62284
47200.00000	108.67004	-984.95944	108.67004
47250.00000	108.80879	-986.01832	108.80879
47300.00000	108.97904	-986.90184	108.97904
47350.00000	109.14056	-987.73190	109.14056
47400.00000	109.29638	-988.82537	109.29638
47450.00000	109.44304	-989.88870	109.44304
47500.00000	109.66725	-990.98360	109.66725
47550.00000	109.92604	-992.31931	109.92604
47600.00000	110.08819	-993.89174	110.08819
47650.00000	110.24785	-994.99598	110.24785
47700.00000	110.54520	-996.89542	110.54520
47750.00000	110.70868	-998.61301	110.70868
47800.00000	111.05220	-1000.41434	111.05220
47850.00000	111.26575	-1002.45602	111.26575
47900.00000	111.59474	-1003.80047	111.59474
47950.00000	111.83471	-1006.24632	111.83471
48000.00000	112.04790	-1008.76283	112.04790
48050.00000	112.38209	-1010.50537	112.38209
48100.00000	112.60463	-1013.54761	112.60463
48150.00000	112.92317	-1016.35372	112.92317
48200.00000	113.12461	-1019.20994	113.12461
48250.00000	113.33699	-1021.17267	113.33699
48300.00000	113.66232	-1024.32978	113.66232
48350.00000	113.91681	-1027.30524	113.91681
48400.00000	114.04351	-1030.65277	114.04351
48450.00000	114.31910	-1033.80098	114.31910
48500.00000	114.53400	-1036.99398	114.53400
48550.00000	114.73014	-1040.04261	114.73014
48600.00000	114.90955	-1044.48465	114.90955
48650.00000	115.11517	-1047.45590	115.11517
48700.00000	115.22358	-1050.57657	115.22358
48750.00000	115.45018	-1054.72476	115.45018
48800.00000	115.52784	-1057.68396	115.52784
48850.00000	115.59224	-702.31702	115.59224
48900.00000	115.84255	-345.57040	115.84255
48950.00000	115.83012	10.67708	115.83012
49000.00000	115.98509	366.57895	115.98509
49050.00000	116.07284	722.20280	116.07284
49100.00000	116.14172	1079.23185	116.14172
49150.00000	116.24238	1434.70444	116.24238
49200.00000	116.11880	1791.62799	116.11880
49250.00000	116.28077	2147.93189	116.28077
49300.00000	116.33296	2504.51444	116.33296
49350.00000	116.23414	2860.77037	116.23414
49400.00000	116.11492	3216.07746	116.11492
49450.00000	116.18309	3572.98032	116.18309
49500.00000	116.12924	3929.94731	116.12924
49550.00000	116.06144	4286.09787	116.06144
49600.00000	116.02736	4642.63339	116.02736
49650.00000	116.02907	4997.93257	116.02907
49700.00000	115.78163	5354.88120	115.78163
49750.00000	115.74115	5712.10695	115.74115
49800.00000	115.63823	5709.46876	115.63823
49850.00000	115.60826	6424.27462	115.60826
49900.00000	115.58915	6421.85339	115.58915
49950.00000	115.36376	6779.12022	115.36376
50000.00000	115.39553	6775.93657	115.39553
50050.00000	115.21237	6772.91845	115.21237
50100.00000	115.05145	6769.57660	115.05145
50150.00000	115.07378	6766.64280	115.07378
50200.00000	114.93930	6763.59684	114.93930
50250.00000	114.71970	6761.01477	114.71970
50300.00000	114.69765	6758.43434	114.69765
50350.00000	114.57600	6756.26040	114.57600
50400.00000	114.57887	6753.07807	114.57887
50450.00000	114.35366	6750.21972	114.35366
50500.00000	114.24226	6748.90999	114.24226
50550.00000	114.10900	6745.62134	114.10900
50600.00000	114.10045	6742.87242	114.10045
50650.00000	114.06175	6741.03371	114.06175
50700.00000	113.85598	6737.84949	113.85598
50750.00000	113.75877	6735.53177	113.75877
50800.00000	113.72138	6732.92801	113.72138
50850.00000	113.70773	6730.87562	113.70773
50900.00000	113.55131	6727.83680	113.55131
50950.00000	113.58222	6725.53573	113.58222
51000.00000	113.66665	6722.47965	113.66665
51050.00000	113.59922	6720.66910	113.59922
51100.00000	113.50609	6717.33720	113.50609
51150.00000	113.43946	6714.57278	113.43946
51200.00000	113.37498	6711.77873	113.37498
51250.00000	113.37135	6709.37113	113.37135
51300.00000	113.38910	6705.76752	113.38910
51350.00000	113.33339	6704.32981	113.33339
51400.00000	113.26525	6699.92350	113.26525
51450.00000	113.08109	6697.82586	113.08109
51500.00000	113.05050	6694.75409	113.05050
51550.00000	112.97275	6691.43780	112.97275
51600.00000	112.82873	6688.19251	112.82873
51650.00000	112.51760	6685.23144	112.51760
51700.00000	112.46019	6681.64232	112.46019
51750.00000	112.24604	6679.28137	112.24604
51800.00000	112.06001	6676.05973	112.06001
51850.00000	111.90750	6672.40737	111.90750
51900.00000	111.58571	6669.92633	111.58571
51950.00000	111.10091	6667.38823	111.10091
52000.00000	110.79510	6665.37942	110.79510
52050.00000	110.63994	6663.11747	110.63994
52100.00000	110.28042	6661.85159	110.28042
52150.00000	109.86306	6660.52590	109.86306
52200.00000	109.58158	6658.98918	109.58158
52250.00000	109.32346	6657.68663	109.32346
52300.00000	108.81164	6658.75328	108.81164
52350.00000	108.80166	6657.64239	108.80166
52400.00000	108.56933	6656.73630	108.56933
52450.00000	108.44506	6656.14136	108.44506
52500.00000	108.29782	6656.14680	108.29782
52550.00000	108.18841	6657.15229	108.18841
52600.00000	108.04046	6656.33483	108.04046
52650.00000	108.11948	6656.92755	108.11948
52700.00000	108.18930	6657.00576	108.18930
52750.00000	108.24540	6656.90955	108.24540
52800.00000	108.44243	6656.21070	108.44243
52850.00000	108.42092	6655.63880	108.42092
52900.00000	108.67021	6654.80198	108.67021
52950.00000	108.86054	6654.06579	108.86054
53000.00000	108.99964	6653.03150	108.99964
53050.00000	109.18058	6651.89941	109.18058
53100.00000	109.47647	6650.77920	109.47647
53150.00000	109.71752	6649.97891	109.71752
53200.00000	109.85338	6647.86426	109.85338
53250.00000	110.13082	6646.93999	110.13082
53300.00000	110.39427	6643.96533	110.39427
53350.00000	110.46055	6642.72954	110.46055
53400.00000	110.80158	6640.94668	110.80158
53450.00000	111.00858	6638.39023	111.00858
53500.00000	111.20770	6636.55329	111.20770
53550.00000	111.54105	6633.85195	111.54105
53600.00000	111.65938	6630.81345	111.65938
53650.00000	111.96172	6628.28657	111.96172
53700.00000	112.15920	6625.46440	112.15920
53750.00000	112.37267	6622.16659	112.37267
53800.00000	112.55545	6619.79294	112.55545
53850.00000	112.75257	6616.33051	112.75257
53900.00000	112.90664	6613.94030	112.90664
53950.00000	113.04861	6610.07987	113.04861
54000.00000	113.19110	6606.72969	113.19110
54050.00000	113.35921	6603.25102	113.35921
54100.00000	113.53061	6599.85008	113.53061
54150.00000	113.63953	6595.87610	113.63953
54200.00000	113.59542	6592.96991	113.59542
54250.00000	113.74089	6588.47452	113.74089
54300.00000	113.80263	6584.80223	113.80263
54350.00000	113.89607	6581.44304	113.89607
54400.00000	114.04912	6578.24143	114.04912
54450.00000	114.00944	6574.03000	114.00944
54500.00000	113.94387	6570.60179	113.94387
54550.00000	113.87651	6567.00880	113.87651
54600.00000	113.92314	6563.73134	113.92314
54650.00000	113.93966	6559.40670	113.93966
54700.00000	113.86321	6556.23888	113.86321
54750.00000	113.92671	6552.71097	113.92671
54800.00000	113.77279	6549.17317	113.77279
54850.00000	113.64779	6545.75560	113.64779
54900.00000	113.69553	6542.05243	113.69553
54950.00000	113.59749	6539.24125	113.59749
55000.00000	113.66403	6535.71862	113.66403
55050.00000	113.49883	6532.10656	113.49883
55100.00000	113.46818	6528.96014	113.46818
55150.00000	113.43859	6525.57665	113.43859
55200.00000	113.30337	6522.04043	113.30337
55250.00000	113.23121	6518.96025	113.23121
55300.00000	113.24772	6515.60927	113.24772
55350.00000	113.13821	6512.66546	113.13821
55400.00000	113.09371	6509.00272	113.09371
55450.00000	112.99249	6505.84019	112.99249
55500.00000	112.95402	6502.26547	112.95402
55550.00000	112.90467	6498.98195	112.90467
55600.00000	112.78902	6495.59069	112.78902
55650.00000	112.74679	6491.98927	112.74679
55700.00000	112.62679	6488.25865	112.62679
55750.00000	112.54895	6484.82006	112.54895
55800.00000	112.46388	6481.25606	112.46388
55850.00000	112.37322	6477.53532	112.37322
55900.00000	112.23324	6474.03874	112.23324
55950.00000	112.10131	6470.41386	112.10131
56000.00000	111.97195	6466.53871	111.97195
56050.00000	111.81776	6463.41090	111.81776
56100.00000	111.62755	6459.32036	111.62755
56150.00000	111.44314	6455.87502	111.44314
56200.00000	111.24367	6452.10737	111.24367
56250.00000	111.00726	6448.40231	111.00726
56300.00000	110.79817	6444.85746	110.79817
56350.00000	110.51074	6441.58025	110.51074
56400.00000	110.29043	6438.46266	110.29043
56450.00000	109.99408	6434.83992	109.99408
56500.00000	109.69395	6431.76222	109.69395
56550.00000	109.38249	6428.50484	109.38249
56600.00000	109.12645	6425.46643	109.12645
56650.00000	108.82423	6422.64728	108.82423
56700.00000	108.48740	6419.84426	108.48740
56750.00000	108.19501	6417.25628	108.19501
56800.00000	107.87745	6414.97834	107.87745
56850.00000	107.58052	6412.38352	107.58052
56900.00000	107.26966	6409.83964	107.26966
56950.00000	106.97108	6407.91368	106.97108
57000.00000	106.64691	6405.62037	106.64691
57050.00000	106.33273	6403.53005	106.33273
57100.00000	106.05293	6401.42389	106.05293
57150.00000	105.75945	6399.38710	105.75945
57200.00000	105.51043	6397.17061	105.51043
57250.00000	105.26790	6395.82329	105.26790
57300.00000	105.02782	6393.91313	105.02782
57350.00000	104.74308	6392.36887	104.74308
57400.00000	104.53824	6390.48611	104.53824
57450.00000	104.22122	6388.51792	104.22122
57500.00000	103.97240	6386.86576	103.97240
57550.00000	103.73168	6384.85824	103.73168
57600.00000	103.45440	6383.55000	103.45440
57650.00000	103.20400	6381.90113	103.20400
57700.00000	102.92114	6380.61153	102.92114
57750.00000	102.66649	6379.47959	102.66649
57800.00000	102.43486	6378.41087	102.43486
57850.00000	102.25170	6377.06218	102.25170
57900.00000	102.02349	6376.07790	102.02349
57950.00000	101.75852	6374.89108	101.75852
58000.00000	101.57699	6373.96686	101.57699
58050.00000	101.40214	6372.88290	101.40214
58100.00000	101.22972	6371.83547	101.22972
58150.00000	101.06382	6371.67036	101.06382
58200.00000	100.91354	6370.71353	100.91354
58250.00000	100.72928	6370.01928	100.72928
58300.00000	100.56704	6368.82563	100.56704
58350.00000	100.41214	6367.96927	100.41214
58400.00000	100.30662	6367.10515	100.30662
58450.00000	100.19650	6366.51017	100.19650
58500.00000	100.08604	6365.43328	100.08604
58550.00000	99.96498	6364.48774	99.96498
58600.00000	99.78916	6364.76740	99.78916
58650.00000	99.65695	6364.06974	99.65695
58700.00000	99.58176	6363.37203	99.58176
58750.00000	99.51193	6363.01104	99.51193
58800.00000	99.36532	6362.82751	99.36532
58850.00000	99.35480	6363.00711	99.35480
58900.00000	99.26069	6363.22952	99.26069
58950.00000	99.23229	6362.92567	99.23229
59000.00000	99.27522	6363.15393	99.27522
59050.00000	99.25077	6363.35780	99.25077
59100.00000	99.36365	6363.64814	99.36365
59150.00000	99.47393	6364.02378	99.47393
59200.00000	99.63336	6364.11854	99.63336
59250.00000	99.81838	6364.50347	99.81838
59300.00000	100.04071	6364.27608	100.04071
59350.00000	100.24407	6364.28083	100.24407
59400.00000	100.54094	6363.99712	100.54094
59450.00000	100.83319	6363.85516	100.83319
59500.00000	101.16422	6363.31812	101.16422
59550.00000	101.57158	6362.94994	101.57158
59600.00000	101.99857	6361.85514	101.99857
59650.00000	102.51302	6360.54974	102.51302
59700.00000	102.95952	6358.97368	102.95952
59750.00000	103.44221	6356.82431	103.44221
59800.00000	103.94990	6354.55654	103.94990
59850.00000	104.45099	6351.56420	104.45099
59900.00000	104.92887	6348.17235	104.92887
59950.00000	105.39070	6344.63050	105.39070
60000.00000	105.83443	6340.26017	105.83443
60050.00000	106.17501	6335.50125	106.17501
60100.00000	106.44020	6330.56166	106.44020
60150.00000	106.64125	6325.61211	106.64125
60200.00000	106.81622	6320.37855	106.81622
60250.00000	106.88670	6315.22475	106.88670
60300.00000	106.90232	6310.27970	106.90232
60350.00000	106.83951	6305.46247	106.83951
60400.00000	106.76916	6300.78149	106.76916
60450.00000	106.65165	6296.54398	106.65165
60500.00000	106.48721	6292.32493	106.48721
60550.00000	106.33331	6288.34015	106.33331
60600.00000	106.14951	6284.87768	106.14951
60650.00000	105.94533	6281.09876	105.94533
60700.00000	105.77721	6277.86368	105.77721
60750.00000	105.55873	6274.43256	105.55873
60800.00000	105.34819	6271.56007	105.34819
60850.00000	105.13906	6268.65413	105.13906
60900.00000	104.94107	6266.04503	104.94107
60950.00000	104.73968	6263.53957	104.73968
61000.00000	104.52533	6261.16228	104.52533
61050.00000	104.35933	6258.83791	104.35933
61100.00000	104.21349	6256.65838	104.21349
61150.00000	104.01868	6254.67209	104.01868
61200.00000	103.88359	6252.67310	103.88359
61250.00000	103.74973	6250.79626	103.74973
61300.00000	103.62321	6248.97231	103.62321
61350.00000	103.50000	6246.93047	103.50000
61400.00000	103.39360	6245.26238	103.39360
61450.00000	103.32571	6243.58296	103.32571
61500.00000	103.20584	6242.06002	103.20584
61550.00000	103.17321	6240.35463	103.17321
61600.00000	103.13066	6238.68839	103.13066
61650.00000	103.09050	6237.26574	103.09050
61700.00000	103.08401	6235.44692	103.08401
61750.00000	103.05344	6234.07439	103.05344
61800.00000	103.02794	6232.67855	103.02794
61850.00000	103.12084	6231.25706	103.12084
61900.00000	103.18567	6229.80255	103.18567
61950.00000	103.26746	6228.34613	103.26746
62000.00000	103.38321	6226.32213	103.38321
62050.00000	103.55048	6224.67903	103.55048
62100.00000	103.66801	6222.43307	103.66801
62150.00000	103.85186	6220.19503	103.85186
62200.00000	104.01482	6217.91927	104.01482
62250.00000	104.14931	6214.94456	104.14931
62300.00000	104.28161	6212.04228	104.28161
62350.00000	104.36873	6209.22108	104.36873
62400.00000	104.47067	6206.10425	104.47067
62450.00000	104.57757	6202.78263	104.57757
62500.00000	104.62968	6199.63922	104.62968
62550.00000	104.68084	6196.29465	104.68084
62600.00000	104.70739	6193.09389	104.70739
62650.00000	104.74540	6189.88874	104.74540
62700.00000	104.72209	6186.60519	104.72209
62750.00000	104.66312	6183.20682	104.66312
62800.00000	104.67872	6180.15580	104.67872
62850.00000	104.68616	6177.02059	104.68616
62900.00000	104.61697	6173.91773	104.61697
62950.00000	104.55409	6170.47857	104.55409
63000.00000	104.50858	6167.84618	104.50858
63050.00000	104.44136	6164.78012	104.44136
63100.00000	104.35349	6161.44814	104.35349
63150.00000	104.29418	6158.75743	104.29418
63200.00000	104.23331	6156.10214	104.23331
63250.00000	104.15600	6153.46675	104.15600
63300.00000	104.10188	6150.31858	104.10188
63350.00000	104.01848	6147.98517	104.01848
63400.00000	103.94390	6145.67149	103.94390
63450.00000	103.86318	6142.74736	103.86318
63500.00000	103.82840	6140.31174	103.82840
63550.00000	103.76367	6137.40067	103.76367
63600.00000	103.73285	6134.84871	103.73285
63650.00000	103.68926	6132.40494	103.68926
63700.00000	103.64629	6130.11514	103.64629
63750.00000	103.69382	6127.52337	103.69382
63800.00000	103.69225	6124.91578	103.69225
63850.00000	103.68216	6122.54845	103.68216
63900.00000	103.72531	6119.60154	103.72531
63950.00000	103.86219	6116.82695	103.86219
64000.00000	103.92187	6113.69764	103.92187
64050.00000	103.93488	6109.91191	103.93488
64100.00000	104.01934	6106.22468	104.01934
64150.00000	104.03890	6102.27052	104.03890
64200.00000	103.91727	6097.78997	103.91727
64250.00000	103.77179	6093.28977	103.77179
64300.00000	103.54789	6088.70437	103.54789
64350.00000	103.17368	6085.29298	103.17368
64400.00000	102.85625	6081.91119	102.85625
64450.00000	102.47447	6079.53922	102.47447
64500.00000	102.17555	6077.18780	102.17555
64550.00000	101.84270	6075.48340	101.84270
64600.00000	101.66478	6074.44456	101.66478
64650.00000	101.46976	6072.99510	101.46976
64700.00000	101.37334	6071.84150	101.37334
64750.00000	101.32004	6070.72275	101.32004
64800.00000	101.24999	6068.90431	101.24999
64850.00000	101.29438	6067.08815	101.29438
64900.00000	101.36825	6065.34042	101.36825
64950.00000	101.41899	6063.32937	101.41899
65000.00000	101.54168	6060.72802	101.54168
65050.00000	101.61473	6058.42480	101.61473
65100.00000	101.64096	6055.45167	101.64096
65150.00000	101.66818	6053.10636	101.66818
65200.00000	101.71136	6050.36093	101.71136
65250.00000	101.69906	6047.21794	101.69906
65300.00000	101.79897	6043.99309	101.79897
65350.00000	101.79942	6040.15417	101.79942
65400.00000	101.77164	6036.97178	101.77164
65450.00000	101.75492	6032.95440	101.75492
65500.00000	101.78604	6029.59378	101.78604
65550.00000	101.68685	6025.78810	101.68685
65600.00000	101.59105	6021.73422	101.59105
65650.00000	101.54098	6018.42531	101.54098
65700.00000	101.35923	6014.45845	101.35923
65750.00000	101.18542	6010.61633	101.18542
65800.00000	101.01563	6006.86809	101.01563
65850.00000	100.78731	6003.28210	100.78731
65900.00000	100.50246	5999.87291	100.50246
65950.00000	100.33913	5996.71215	100.33913
66000.00000	100.06635	5993.66562	100.06635
66050.00000	99.81286	5990.26888	99.81286
66100.00000	99.53977	5987.30954	99.53977
66150.00000	99.24186	5983.75823	99.24186
66200.00000	98.97663	5981.42394	98.97663
66250.00000	98.73530	5978.25261	98.73530
66300.00000	98.38791	5976.16302	98.38791
66350.00000	98.01765	5973.29948	98.01765
66400.00000	97.79539	5970.47497	97.79539
66450.00000	97.48031	5969.14827	97.48031
66500.00000	97.29153	5966.14484	97.29153
66550.00000	96.89670	5963.84474	96.89670
66600.00000	96.70280	5962.88622	96.70280
66650.00000	96.36539	5960.32713	96.36539
66700.00000	96.16402	5958.86240	96.16402
66750.00000	95.74297	5957.31230	95.74297
66800.00000	95.54554	5955.85748	95.54554
66850.00000	95.38128	5954.84520	95.38128
66900.00000	95.25316	5953.03853	95.25316
66950.00000	95.00104	5951.76119	95.00104
67000.00000	94.86576	5950.14514	94.86576
67050.00000	94.67955	5948.79047	94.67955
67100.00000	94.47219	5946.69780	94.47219
67150.00000	94.37296	5945.05288	94.37296
67200.00000	94.05538	5943.40435	94.05538
67250.00000	93.98425	5941.65028	93.98425
67300.00000	93.79892	5941.21470	93.79892
67350.00000	93.60466	5939.84942	93.60466
67400.00000	93.36027	5939.01075	93.36027
67450.00000	93.22260	5938.15798	93.22260
67500.00000	93.18097	5937.70152	93.18097
67550.00000	93.04027	5936.10406	93.04027
67600.00000	93.18348	5935.61098	93.18348
67650.00000	93.07465	5934.34743	93.07465
67700.00000	93.15319	5933.29077	93.15319
67750.00000	93.13383	5932.08993	93.13383
67800.00000	93.21749	5930.67168	93.21749
67850.00000	93.22482	5928.41804	93.22482
67900.00000	93.20693	5926.27737	93.20693
67950.00000	93.22206	5925.53272	93.22206
68000.00000	93.20125	5922.42611	93.20125
68050.00000	93.31301	5920.86201	93.31301
68100.00000	93.18423	5919.27092	93.18423
68150.00000	93.12593	5917.16252	93.12593
68200.00000	93.15325	5915.37851	93.15325
68250.00000	93.21653	5913.70986	93.21653
68300.00000	93.19376	5912.15745	93.19376
68350.00000	93.18269	5910.10551	93.18269
68400.00000	93.21380	5908.58939	93.21380
68450.00000	93.27043	5906.65545	93.27043
68500.00000	93.37760	5904.30760	93.37760
68550.00000	93.34733	5903.26012	93.34733
68600.00000	93.45467	5900.36883	93.45467
68650.00000	93.51355	5898.29485	93.51355
68700.00000	93.55741	5896.33244	93.55741
68750.00000	93.65978	5894.41275	93.65978
68800.00000	93.67885	5892.57569	93.67885
68850.00000	93.79631	5890.23094	93.79631
68900.00000	93.74387	5887.18922	93.74387
68950.00000	93.91743	5885.34747	93.91743
69000.00000	94.03171	5883.09063	94.03171
69050.00000	94.11970	5880.44269	94.11970
69100.00000	94.27476	5877.68951	94.27476
69150.00000	94.34842	5874.71049	94.34842
69200.00000	94.48979	5872.32821	94.48979
69250.00000	94.62439	5869.52146	94.62439
69300.00000	94.72868	5866.34264	94.72868
69350.00000	94.95549	5862.73085	94.95549
69400.00000	95.05831	5859.63499	95.05831
69450.00000	95.24382	5856.02243	95.24382
69500.00000	95.39172	5851.50569	95.39172
69550.00000	95.42394	5847.42895	95.42394
69600.00000	95.46978	5843.04263	95.46978
69650.00000	95.54626	5838.54566	95.54626
69700.00000	95.50593	5834.12739	95.50593
69750.00000	95.52953	5828.86305	95.52953
69800.00000	95.42392	5824.20318	95.42392
69850.00000	95.26868	5819.34573	95.26868
69900.00000	95.10947	5814.91410	95.10947
69950.00000	94.98385	5809.53728	94.98385
70000.00000	94.74006	5805.67357	94.74006
70050.00000	94.51684	5801.06362	94.51684
70100.00000	94.18135	5796.51533	94.18135
70150.00000	93.97316	5792.16197	93.97316
70200.00000	93.74553	5788.49776	93.74553
70250.00000	93.32225	5783.73785	93.32225
70300.00000	92.96220	5779.96258	92.96220
70350.00000	92.54863	5776.70372	92.54863
70400.00000	92.19480	5772.08114	92.19480
70450.00000	91.90165	5768.63633	91.90165
70500.00000	91.46732	5765.45373	91.46732
70550.00000	91.13615	5761.64891	91.13615
70600.00000	90.64636	5759.45747	90.64636
70650.00000	90.06563	5756.59545	90.06563
70700.00000	89.60453	5753.83618	89.60453
70750.00000	89.20465	5753.07744	89.20465
70800.00000	88.64547	5751.83474	88.64547
70850.00000	88.49455	5751.20448	88.49455
70900.00000	88.56317	5751.24618	88.56317
70950.00000	88.63850	5749.43724	88.63850
71000.00000	88.97549	5746.94857	88.97549
71050.00000	89.24493	5743.17228	89.24493
71100.00000	89.17667	5735.98446	89.17667
71150.00000	89.18287	5730.27354	89.18287
71200.00000	88.65667	5726.19586	88.65667
71250.00000	88.41050	5717.96470	88.41050
71300.00000	88.10174	5713.80110	88.10174
71350.00000	87.36156	5710.36739	87.36156
71400.00000	87.10379	5703.12465	87.10379
71450.00000	86.65664	5701.00607	86.65664
71500.00000	86.01245	5693.66996	86.01245
71550.00000	85.70694	5688.43749	85.70694
71600.00000	85.32388	5683.02582	85.32388
71650.00000	83.99157	5677.02579	83.99157
71700.00000	83.73562	5670.37895	83.73562
71750.00000	82.05152	5667.20282	82.05152
71800.00000	81.40892	5657.84678	81.40892
71850.00000	80.51290	5656.49497	80.51290
71900.00000	78.51287	5653.53563	78.51287
71950.00000	78.00567	5646.18362	78.00567
72000.00000	76.41695	5650.39738	76.41695
72050.00000	74.01479	5647.65461	74.01479
72100.00000	74.27795	5642.96414	74.27795
72150.00000	73.01066	5641.79974	73.01066
72200.00000	70.22781	5631.74358	70.22781
72250.00000	70.65131	5621.57309	70.65131
72300.00000	67.97940	5618.68292	67.97940
72350.00000	67.94056	5584.90390	67.94056
72400.00000	67.43332	5575.74586	67.43332
72450.00000	65.84025	5507.63414	65.84025
72500.00000	67.16932	5505.69391	67.16932
72550.00000	65.15383	5476.41929	65.15383
72600.00000	71.28671	5470.48912	71.28671
72650.00000	71.08952	5468.58944	71.08952
72700.00000	72.42298	5438.40935	72.42298
72750.00000	73.50256	5439.27273	73.50256
72800.00000	71.79130	5430.12614	71.79130
72850.00000	74.77575	5419.50288	74.77575
72900.00000	74.26149	5425.99863	74.26149
72950.00000	72.15579	5409.51304	72.15579
73000.00000	75.38668	5409.31353	75.38668
73050.00000	74.05228	5418.78626	74.05228
73100.00000	74.12578	5396.91947	74.12578
73150.00000	75.15801	5407.24843	75.15801
73200.00000	74.27232	5410.13749	74.27232
73250.00000	74.06606	5401.03729	74.06606
73300.00000	76.19880	5411.12960	76.19880
73350.00000	72.91929	5410.00681	72.91929
73400.00000	75.62497	5400.15030	75.62497
73450.00000	76.51265	5414.88914	76.51265
73500.00000	74.74175	5417.13715	74.74175
73550.00000	78.14820	5402.25864	78.14820
73600.00000	78.41104	5415.13093	78.41104
73650.00000	77.69221	5408.33009	77.69221
73700.00000	80.17189	5403.98065	80.17189
73750.00000	80.01707	5407.83950	80.01707
73800.00000	80.67046	5394.48067	80.67046
73850.00000	82.59954	5392.67894	82.59954
73900.00000	80.98335	5391.24779	80.98335
73950.00000	82.09389	5382.55511	82.09389
74000.00000	82.86533	5387.47901	82.86533
74050.00000	81.85196	5374.78718	81.85196
74100.00000	83.85186	5370.08965	83.85186
74150.00000	83.84875	5368.95957	83.84875
74200.00000	83.59397	5356.79434	83.59397
74250.00000	84.33196	5353.34696	84.33196
74300.00000	84.23621	5338.71417	84.23621
74350.00000	85.29532	5322.46262	85.29532
74400.00000	84.07464	5279.35232	84.07464
74450.00000	79.10355	5110.74844	79.10355
74500.00000	85.57981	5037.85616	85.57981
74550.00000	85.04486	5023.51899	85.04486
74600.00000	83.42641	4994.78854	83.42641
74650.00000	86.22953	4990.32613	86.22953
74700.00000	83.58227	4989.86940	83.58227
74750.00000	85.11462	4969.27844	85.11462
74800.00000	86.01922	4978.85783	86.01922
74850.00000	83.56776	4967.14291	83.56776
74900.00000	85.57706	4954.57605	85.57706
74950.00000	84.23807	4962.99488	84.23807
75000.00000	83.19104	4942.54226	83.19104
75050.00000	85.67381	4946.60901	85.67381
75100.00000	82.44927	4952.08642	82.44927
75150.00000	83.02322	4930.76300	83.02322
75200.00000	84.09528	4941.56127	84.09528
75250.00000	80.56176	4936.31503	80.56176
75300.00000	83.11972	4922.01425	83.11972
75350.00000	82.88572	4942.50707	82.88572
75400.00000	79.41269	4919.98753	79.41269
75450.00000	83.15753	4924.29436	83.15753
75500.00000	80.55047	4940.69914	80.55047
75550.00000	80.20225	4907.41650	80.20225
75600.00000	82.59314	4929.13734	82.59314
75650.00000	78.95854	4933.49742	78.95854
75700.00000	81.86611	4910.32566	81.86611
75750.00000	82.32459	4934.97683	82.32459
75800.00000	77.94764	4918.83914	77.94764
75850.00000	82.74001	4912.13383	82.74001
75900.00000	80.49379	4937.93463	80.49379
75950.00000	78.92587	4905.51703	78.92587
76000.00000	83.16837	4917.30096	83.16837
76050.00000	79.69571	4929.72946	79.69571
76100.00000	81.35432	4899.23371	81.35432
76150.00000	83.36254	4921.03925	83.36254
76200.00000	78.09450	4918.66952	78.09450
76250.00000	83.23560	4898.33501	83.23560
76300.00000	82.67160	4925.51526	82.67160
76350.00000	79.63619	4898.35598	79.63619
76400.00000	84.26247	4903.07809	84.26247
76450.00000	81.44190	4919.52584	81.44190
76500.00000	82.52379	4885.59254	82.52379
76550.00000	84.07709	4903.82547	84.07709
76600.00000	80.13780	4894.09749	80.13780
76650.00000	84.27788	4880.71822	84.27788
76700.00000	83.54806	4905.45076	83.54806
76750.00000	80.80196	4880.06939	80.80196
76800.00000	85.25834	4881.19075	85.25834
76850.00000	81.90827	4895.12997	81.90827
76900.00000	83.45577	4863.17561	83.45577
76950.00000	84.97341	4882.36095	84.97341
77000.00000	81.07680	4872.93976	81.07680
77050.00000	85.00853	4858.66880	85.00853
77100.00000	83.92134	4876.52162	83.92134
77150.00000	82.27438	4850.89486	82.27438
77200.00000	85.74361	4856.54935	85.74361
77250.00000	82.44908	4862.26335	82.44908
77300.00000	83.79095	4837.89861	83.79095
77350.00000	84.38169	4855.45682	84.38169
77400.00000	81.80655	4837.17588	81.80655
77450.00000	84.32426	4835.53956	84.32426
77500.00000	82.52548	4849.04538	82.52548
77550.00000	81.58147	4818.43573	81.58147
77600.00000	84.27966	4830.61684	84.27966
77650.00000	80.32740	4832.56474	80.32740
77700.00000	82.70643	4813.37979	82.70643
77750.00000	82.64686	4830.31989	82.64686
77800.00000	79.71724	4811.04767	79.71724
77850.00000	82.47997	4812.41789	82.47997
77900.00000	79.97918	4825.13599	79.97918
77950.00000	80.61716	4793.69367	80.61716
78000.00000	81.65131	4813.37491	81.65131
78050.00000	77.90403	4803.88745	77.90403
78100.00000	81.15681	4794.79338	81.15681
78150.00000	79.25116	4815.35514	79.25116
78200.00000	77.59435	4790.03844	77.59435
78250.00000	80.10429	4799.13469	80.10429
78300.00000	77.07203	4804.21160	77.07203
78350.00000	77.93168	4783.79016	77.93168
78400.00000	77.97182	4808.64293	77.97182
78450.00000	75.22882	4792.72799	75.22882
78500.00000	78.48695	4789.89641	78.48695
78550.00000	76.82875	4810.06470	76.82875
78600.00000	76.52935	4788.43460	76.52935
78650.00000	78.21736	4798.93096	78.21736
78700.00000	75.69323	4804.54842	75.69323
78750.00000	77.51416	4794.78786	77.51416
78800.00000	77.69482	4805.82655	77.69482
78850.00000	75.96650	4796.71321	75.96650
78900.00000	78.27899	4799.79859	78.27899
78950.00000	77.39521	4802.95244	77.39521
79000.00000	77.62351	4794.58804	77.62351
79050.00000	78.93965	4801.82801	78.93965
79100.00000	77.77324	4797.21862	77.77324
79150.00000	79.23494	4791.60100	79.23494
79200.00000	78.83663	4796.37958	78.83663
79250.00000	79.14194	4789.72667	79.14194
79300.00000	79.88119	4792.11936	79.88119
79350.00000	79.23097	4787.87521	79.23097
79400.00000	80.26692	4784.68896	80.26692
79450.00000	80.26442	4785.23712	80.26442
79500.00000	80.70799	4779.46008	80.70799
79550.00000	81.06956	4778.32056	81.06956
79600.00000	80.94138	4775.54123	80.94138
79650.00000	81.49020	4770.25570	81.49020
79700.00000	81.33855	4768.39051	81.33855
79750.00000	81.72825	4763.60743	81.72825
79800.00000	82.14647	4757.78685	82.14647
79850.00000	81.86268	4757.36678	81.86268
79900.00000	82.03979	4751.03219	82.03979
79950.00000	81.99413	4747.51352	81.99413
80000.00000	82.20884	4744.72672	82.20884
80050.00000	82.18195	4741.82276	82.18195
80100.00000	81.51918	4735.54570	81.51918
80150.00000	81.58604	4730.34399	81.58604
80200.00000	81.54589	4728.32277	81.54589
80250.00000	81.53173	4724.56387	81.53173
80300.00000	81.07535	4723.36563	81.07535
80350.00000	80.96521	4717.38328	80.96521
80400.00000	80.89742	4715.58165	80.89742
80450.00000	80.86687	4712.81280	80.86687
80500.00000	80.59181	4708.79131	80.59181
80550.00000	80.21330	4705.17421	80.21330
80600.00000	80.23231	4701.93940	80.23231
80650.00000	79.65463	4702.81747	79.65463
80700.00000	79.40535	4697.87531	79.40535
80750.00000	79.43181	4696.97635	79.43181
80800.00000	79.02067	4693.51474	79.02067
80850.00000	78.89982	4693.13117	78.89982
80900.00000	78.77319	4692.42520	78.77319
80950.00000	78.27991	4691.56559	78.27991
81000.00000	78.02370	4688.22566	78.02370
81050.00000	78.15054	4689.39890	78.15054
81100.00000	77.80599	4686.64646	77.80599
81150.00000	78.16685	4687.13529	78.16685
81200.00000	78.10002	4683.63516	78.10002
81250.00000	78.40783	4680.41769	78.40783
81300.00000	78.36850	4679.75876	78.36850
81350.00000	78.30764	4677.23149	78.30764
81400.00000	78.03174	4675.17502	78.03174
81450.00000	78.15937	4670.88241	78.15937
81500.00000	78.49835	4667.39623	78.49835
81550.00000	78.30862	4661.97533	78.30862
81600.00000	78.09932	4655.17503	78.09932
81650.00000	77.72854	4648.78877	77.72854
81700.00000	77.35659	4643.96405	77.35659
81750.00000	77.09846	4637.14927	77.09846
81800.00000	75.94553	4625.82105	75.94553
81850.00000	74.76640	4614.97945	74.76640
81900.00000	73.11059	4603.30921	73.11059
81950.00000	70.11578	4579.51751	70.11578
82000.00000	65.97980	4542.78183	65.97980
82050.00000	64.67317	4483.73366	64.67317
82100.00000	69.34694	4434.43799	69.34694
82150.00000	72.62802	4409.24182	72.62802
82200.00000	75.51034	4395.14679	75.51034
82250.00000	77.26817	4381.20283	77.26817
82300.00000	78.72311	4368.50132	78.72311
82350.00000	79.68759	4360.15519	79.68759
82400.00000	80.29774	4351.90519	80.29774
82450.00000	80.94834	4343.67755	80.94834
82500.00000	81.37264	4335.47109	81.37264
82550.00000	81.94324	4329.20042	81.94324
82600.00000	82.33328	4321.72828	82.33328
82650.00000	82.68765	4315.27249	82.68765
82700.00000	82.95127	4309.47514	82.95127
82750.00000	83.11808	4302.33221	83.11808
82800.00000	83.08541	4294.32656	83.08541
82850.00000	83.38218	4288.09300	83.38218
82900.00000	83.09458	4280.28349	83.09458
82950.00000	83.16573	4273.76189	83.16573
83000.00000	83.12348	4268.98273	83.12348
83050.00000	82.75355	4263.18581	82.75355
83100.00000	82.86389	4259.56419	82.86389
83150.00000	82.42324	4254.94986	82.42324
83200.00000	82.21073	4253.91284	82.21073
83250.00000	82.02131	4249.43834	82.02131
83300.00000	81.95039	4246.27922	81.95039
83350.00000	81.49569	4245.66279	81.49569
83400.00000	81.69012	4244.08169	81.69012
83450.00000	81.47217	4243.34962	81.47217
83500.00000	81.31980	4239.71763	81.31980
83550.00000	81.25676	4239.26983	81.25676
83600.00000	80.99769	4238.14156	80.99769
83650.00000	81.00855	4235.28649	81.00855
83700.00000	81.30011	4234.04584	81.30011
83750.00000	81.11134	4232.99102	81.11134
83800.00000	81.27338	4230.77439	81.27338
83850.00000	81.43874	4231.33353	81.43874
83900.00000	81.30748	4228.77953	81.30748
83950.00000	81.80372	4226.42680	81.80372
84000.00000	81.99248	4226.45814	81.99248
84050.00000	82.11013	4223.69839	82.11013
84100.00000	82.02163	4223.84059	82.02163
84150.00000	82.91609	4220.36779	82.91609
84200.00000	82.95727	4218.40486	82.95727
84250.00000	83.22226	4213.71891	83.22226
84300.00000	83.73027	4211.22601	83.73027
84350.00000	84.18763	4207.36611	84.18763
84400.00000	84.30847	4203.51720	84.30847
84450.00000	84.70493	4199.48609	84.70493
84500.00000	84.90453	4195.09351	84.90453
84550.00000	85.35795	4191.35443	85.35795
84600.00000	85.52837	4186.69636	85.52837
84650.00000	85.94549	4181.37011	85.94549
84700.00000	85.92285	4176.89111	85.92285
84750.00000	86.24916	4171.46449	86.24916
84800.00000	86.30085	4164.64236	86.30085
84850.00000	86.61127	4160.13734	86.61127
84900.00000	86.78155	4155.05098	86.78155
84950.00000	86.58867	4150.12344	86.58867
85000.00000	86.89197	4143.91515	86.89197
85050.00000	87.07594	4137.88309	87.07594
85100.00000	87.18121	4131.43961	87.18121
85150.00000	87.14355	4125.73402	87.14355
85200.00000	87.01611	4119.81541	87.01611
85250.00000	87.50009	4112.35180	87.50009
85300.00000	86.99317	4107.11682	86.99317
85350.00000	86.92121	4100.43869	86.92121
85400.00000	86.84248	4093.89742	86.84248
85450.00000	86.57801	4087.30613	86.57801
85500.00000	86.46163	4081.79536	86.46163
85550.00000	86.23757	4074.30470	86.23757
85600.00000	85.81832	4068.12463	85.81832
85650.00000	85.65028	4062.38507	85.65028
85700.00000	85.23622	4054.30995	85.23622
85750.00000	84.99497	4049.03657	84.99497
85800.00000	84.71004	4043.26188	84.71004
85850.00000	84.27728	4037.09053	84.27728
85900.00000	84.02558	4029.64298	84.02558
85950.00000	83.38466	4024.28241	83.38466
86000.00000	83.13731	4019.19211	83.13731
86050.00000	82.74455	4013.50871	82.74455
86100.00000	82.49553	4007.55876	82.49553
86150.00000	81.86169	4001.49830	81.86169
86200.00000	81.75019	3994.56848	81.75019
86250.00000	81.54887	3992.32506	81.54887
86300.00000	80.69372	3984.62870	80.69372
86350.00000	80.26497	3974.92190	80.26497
86400.00000	78.94887	3965.12997	78.94887
86450.00000	78.59699	3963.71253	78.59699
86500.00000	78.37783	3959.31430	78.37783
86550.00000	78.08272	3950.80308	78.08272
86600.00000	77.35115	3944.43339	77.35115
86650.00000	76.85285	3942.22676	76.85285
86700.00000	76.84957	3937.74244	76.84957
86750.00000	76.45928	3932.99954	76.45928
86800.00000	76.01741	3925.38314	76.01741
86850.00000	75.54173	3920.78619	75.54173
86900.00000	75.76078	3914.52760	75.76078
86950.00000	74.76578	3907.80624	74.76578
87000.00000	75.03950	3903.21247	75.03950
87050.00000	74.66959	3897.20190	74.66959
87100.00000	74.89560	3886.80796	74.89560
87150.00000	74.97053	3883.77938	74.97053
87200.00000	75.21548	3878.24991	75.21548
87250.00000	73.88848	3871.97962	73.88848
87300.00000	73.93034	3859.53845	73.93034
87350.00000	74.25791	3858.43340	74.25791
87400.00000	73.27267	3851.91876	73.27267
87450.00000	73.68983	3845.23184	73.68983
87500.00000	73.74204	3841.87522	73.74204
87550.00000	73.93825	3837.34103	73.93825
87600.00000	73.34309	3828.20683	73.34309
87650.00000	73.47483	3823.65084	73.47483
87700.00000	73.68450	3819.66063	73.68450
87750.00000	73.02506	3814.73100	73.02506
87800.00000	72.73512	3809.07091	72.73512
87850.00000	72.27661	3802.77636	72.27661
87900.00000	72.08784	3797.32145	72.08784
87950.00000	72.50792	3794.55666	72.50792
88000.00000	72.26964	3790.20699	72.26964
88050.00000	71.62766	3781.17489	71.62766
88100.00000	72.35514	3780.13320	72.35514
88150.00000	71.28163	3771.88587	71.28163
88200.00000	71.21729	3773.72265	71.21729
88250.00000	70.49199	3768.68137	70.49199
88300.00000	69.65795	3765.89811	69.65795
88350.00000	70.17354	3767.31477	70.17354
88400.00000	69.56398	3767.08298	69.56398
88450.00000	69.49675	3764.52207	69.49675
88500.00000	69.39323	3763.44571	69.39323
88550.00000	69.21825	3765.94399	69.21825
88600.00000	70.01784	3761.50229	70.01784
88650.00000	68.11992	3764.61939	68.11992
88700.00000	68.99666	3762.90860	68.99666
88750.00000	69.16910	3759.79146	69.16910
88800.00000	69.31302	3762.94786	69.31302
88850.00000	70.28427	3757.73745	70.28427
88900.00000	70.07257	3765.71574	70.07257
88950.00000	69.08824	3759.44539	69.08824
89000.00000	69.42066	3760.77525	69.42066
89050.00000	69.90479	3757.60271	69.90479
89100.00000	69.66225	3754.75029	69.66225
89150.00000	69.66659	3752.34882	69.66659
89200.00000	70.35597	3753.68979	70.35597
89250.00000	69.92229	3751.92347	69.92229
89300.00000	70.16227	3747.72053	70.16227
89350.00000	70.17811	3748.17699	70.17811
89400.00000	71.20489	3748.96753	71.20489
89450.00000	71.16678	3748.96976	71.16678
89500.00000	71.81140	3744.30955	71.81140
89550.00000	71.36363	3744.45180	71.36363
89600.00000	71.84860	3742.49979	71.84860
89650.00000	72.24019	3737.40996	72.24019
89700.00000	72.39065	3741.03949	72.39065
89750.00000	72.66282	3736.39117	72.66282
89800.00000	72.39222	3738.11813	72.39222
89850.00000	72.53211	3735.59074	72.53211
89900.00000	72.75987	3733.50602	72.75987
89950.00000	73.74955	3735.47126	73.74955
90000.00000	74.07879	3742.76354	74.07879
90050.00000	74.92893	3746.18452	74.92893
90100.00000	77.43068	3744.98845	77.43068
90150.00000	78.54724	3742.67976	78.54724
90200.00000	81.19176	3735.21035	81.19176
90250.00000	83.02818	3709.22046	83.02818
90300.00000	83.00131	3690.18338	83.00131
90350.00000	81.42732	3676.59801	81.42732
90400.00000	80.71718	3673.06929	80.71718
90450.00000	80.15237	3668.03047	80.15237
90500.00000	79.46103	3662.79329	79.46103
90550.00000	79.08182	3657.73932	79.08182
90600.00000	78.64153	3658.57489	78.64153
90650.00000	78.95598	3650.76056	78.95598
90700.00000	78.54723	3645.48102	78.54723
90750.00000	78.42615	3645.47196	78.42615
90800.00000	78.57323	3642.22349	78.57323
90850.00000	78.38765	3636.25039	78.38765
90900.00000	78.49979	3631.48933	78.49979
90950.00000	78.64779	3628.28783	78.64779
91000.00000	78.23782	3623.73621	78.23782
91050.00000	78.29745	3619.03750	78.29745
91100.00000	78.29598	3615.36136	78.29598
91150.00000	77.78482	3613.76206	77.78482
91200.00000	78.03766	3608.71444	78.03766
91250.00000	78.09740	3604.20954	78.09740
91300.00000	77.52493	3600.18788	77.52493
91350.00000	77.56331	3598.06484	77.56331
91400.00000	77.81863	3591.68581	77.81863
91450.00000	77.25811	3591.64623	77.25811
91500.00000	76.88066	3585.19605	76.88066
91550.00000	76.80972	3580.97606	76.80972
91600.00000	76.51716	3576.88217	76.51716
91650.00000	76.14886	3576.19692	76.14886
91700.00000	75.85242	3571.72049	75.85242
91750.00000	75.48467	3567.98558	75.48467
91800.00000	75.30380	3565.42974	75.30380
91850.00000	74.86811	3564.37331	74.86811
91900.00000	74.63606	3561.94371	74.63606
91950.00000	74.14101	3560.23467	74.14101
92000.00000	74.20955	3558.40982	74.20955
92050.00000	73.85753	3551.44871	73.85753
92100.00000	73.33423	3556.14641	73.33423
92150.00000	72.78593	3552.05491	72.78593
92200.00000	73.21523	3550.99137	73.21523
92250.00000	72.67671	3545.98871	72.67671
92300.00000	72.17463	3551.58733	72.17463
92350.00000	71.62670	3557.99936	71.62670
92400.00000	71.82077	3553.35815	71.82077
92450.00000	70.37351	3551.94494	70.37351
92500.00000	71.48768	3549.12328	71.48768
92550.00000	71.40160	3550.78844	71.40160
92600.00000	71.27425	3553.68681	71.27425
92650.00000	70.77637	3555.12687	70.77637
92700.00000	71.64214	3556.55162	71.64214
92750.00000	72.35429	3555.16645	72.35429
92800.00000	72.14191	3558.97707	72.14191
92850.00000	73.21350	3559.21364	73.21350
92900.00000	72.53066	3554.20718	72.53066
92950.00000	73.17691	3556.10057	73.17691
93000.00000	72.97785	3553.11951	72.97785
93050.00000	73.35582	3551.69000	73.35582
93100.00000	73.26182	3552.22459	73.26182
93150.00000	73.46203	3548.76649	73.46203
93200.00000	73.79666	3548.70445	73.79666
93250.00000	74.07695	3547.69361	74.07695
93300.00000	73.82545	3544.16651	73.82545
93350.00000	74.53940	3546.43239	74.53940
93400.00000	74.50111	3542.23113	74.50111
93450.00000	74.54787	3540.89826	74.54787
93500.00000	75.28695	3537.67783	75.28695
93550.00000	74.69565	3533.30312	74.69565
93600.00000	75.10720	3532.06179	75.10720
93650.00000	74.84837	3532.23752	74.84837
93700.00000	75.51591	3528.00081	75.51591
93750.00000	75.51323	3529.46470	75.51323
93800.00000	75.36508	3525.78140	75.36508
93850.00000	75.53578	3522.18944	75.53578
93900.00000	75.45723	3518.75464	75.45723
93950.00000	75.21472	3519.45406	75.21472
94000.00000	75.59901	3517.38900	75.59901
94050.00000	75.93085	3517.48219	75.93085
94100.00000	76.02716	3511.60476	76.02716
94150.00000	74.94891	3509.57332	74.94891
94200.00000	75.43055	3506.27345	75.43055
94250.00000	76.05950	3503.83714	76.05950
94300.00000	76.29843	3499.51313	76.29843
94350.00000	76.50595	3500.19410	76.50595
94400.00000	76.16356	3497.51088	76.16356
94450.00000	76.59166	3494.51986	76.59166
94500.00000	76.35961	3493.75137	76.35961
94550.00000	75.93908	3489.59984	75.93908
94600.00000	76.20935	3488.21227	76.20935
94650.00000	76.69382	3486.12717	76.69382
94700.00000	76.47765	3480.24224	76.47765
94750.00000	75.89844	3478.84751	75.89844
94800.00000	76.50331	3472.45101	76.50331
94850.00000	76.55989	3472.05835	76.55989
94900.00000	76.46217	3467.57269	76.46217
94950.00000	75.62294	3463.53445	75.62294
95000.00000	76.19907	3465.53973	76.19907
95050.00000	76.13574	3460.99642	76.13574
95100.00000	76.89898	3464.48573	76.89898
95150.00000	76.58803	3458.08208	76.58803
95200.00000	76.93027	3454.42168	76.93027
95250.00000	76.88231	3448.65639	76.88231
95300.00000	77.75012	3447.45464	77.75012
95350.00000	77.36161	3442.73220	77.36161
95400.00000	77.39084	3434.35059	77.39084
95450.00000	77.40446	3436.42632	77.40446
95500.00000	77.03471	3430.97334	77.03471
95550.00000	76.94099	3429.01564	76.94099
95600.00000	77.30512	3423.75752	77.30512
95650.00000	77.41033	3417.93132	77.41033
95700.00000	77.93760	3417.10858	77.93760
95750.00000	76.80682	3414.66976	76.80682
95800.00000	76.82409	3411.53574	76.82409
95850.00000	76.99844	3412.38949	76.99844
95900.00000	77.22707	3404.25479	77.22707
95950.00000	77.80361	3407.85262	77.80361
96000.00000	77.43049	3398.85861	77.43049
96050.00000	78.03930	3396.62359	78.03930
96100.00000	79.60505	3389.62660	79.60505
96150.00000	78.12611	3382.99976	78.12611
96200.00000	78.78455	3380.41511	78.78455
96250.00000	79.49271	3370.35444	79.49271
96300.00000	79.36939	3370.65576	79.36939
96350.00000	79.85349	3356.86074	79.85349
96400.00000	78.67480	3361.73827	78.67480
96450.00000	78.72044	3356.09102	78.72044
96500.00000	79.82247	3358.88525	79.82247
96550.00000	78.32959	3351.90667	78.32959
96600.00000	78.59591	3351.91938	78.59591
96650.00000	79.94909	3339.99982	79.94909
96700.00000	78.37334	3346.50643	78.37334
96750.00000	80.12530	3334.08508	80.12530
96800.00000	79.38857	3337.50523	79.38857
96850.00000	79.03868	3321.18763	79.03868
96900.00000	81.03949	3318.05565	81.03949
96950.00000	82.36252	3319.89303	82.36252
97000.00000	82.05546	3315.11141	82.05546
97050.00000	81.25913	3325.27366	81.25913
97100.00000	82.37292	3314.06591	82.37292
97150.00000	83.97959	3304.67641	83.97959
97200.00000	84.55840	3303.39802	84.55840
97250.00000	83.58932	3272.73101	83.58932
97300.00000	84.21928	3258.36512	84.21928
97350.00000	81.56473	3242.84491	81.56473
97400.00000	81.41255	3231.51392	81.41255
97450.00000	77.30794	3237.80793	77.30794
97500.00000	75.14061	3246.75303	75.14061
97550.00000	74.25509	3257.73856	74.25509
97600.00000	75.09782	3242.56290	75.09782
97650.00000	73.30696	3243.26039	73.30696
97700.00000	75.93917	3246.11910	75.93917
97750.00000	72.49066	3244.54003	72.49066
97800.00000	72.95689	3246.57083	72.95689
97850.00000	73.73249	3245.79103	73.73249
97900.00000	73.40353	3236.99856	73.40353
97950.00000	72.15968	3244.96553	72.15968
98000.00000	73.49211	3236.46570	73.49211
98050.00000	72.48235	3231.38948	72.48235
98100.00000	72.83680	3243.71945	72.83680
98150.00000	72.95997	3236.57908	72.95997
98200.00000	70.76079	3226.64275	70.76079
98250.00000	71.17212	3228.41193	71.17212
98300.00000	71.10137	3226.14111	71.10137
98350.00000	69.84500	3228.98310	69.84500
98400.00000	68.84824	3222.99179	68.84824
98450.00000	69.78063	3228.62347	69.78063
98500.00000	69.54048	3212.48922	69.54048
98550.00000	70.27839	3206.23336	70.27839
98600.00000	69.41990	3206.26266	69.41990
98650.00000	67.50250	3203.47916	67.50250
98700.00000	67.04929	3210.05044	67.04929
98750.00000	68.30198	3206.69463	68.30198
98800.00000	65.80311	3190.35235	65.80311
98850.00000	65.49674	3188.69202	65.49674
98900.00000	62.44515	3196.05261	62.44515
98950.00000	64.65568	3199.15666	64.65568
99000.00000	65.17493	3185.70694	65.17493
99050.00000	60.58257	3186.16393	60.58257
99100.00000	61.76246	3172.76647	61.76246
99150.00000	62.12258	3186.23996	62.12258
99200.00000	63.07929	3180.55229	63.07929
99250.00000	58.11805	3182.90518	58.11805
99300.00000	60.16606	3188.24238	60.16606
99350.00000	57.92821	3148.34860	57.92821
99400.00000	59.39060	3143.02413	59.39060
99450.00000	57.42886	3169.26568	57.42886
99500.00000	58.35803	3108.56656	58.35803
99550.00000	57.11769	3142.21945	57.11769
99600.00000	57.30593	3170.33550	57.30593
99650.00000	49.29869	3144.20526	49.29869
99700.00000	55.69363	3074.11494	55.69363
99750.00000	55.00613	3120.73242	55.00613
99800.00000	55.04535	3041.86675	55.04535
99850.00000	50.79849	3059.41952	50.79849
99900.00000	53.87928	3092.53613	53.87928
99950.00000	54.68897	3046.45975	54.68897
