---ACOUSTIC CALIBRATION---
Filename: C:\Data\CL0809 DATA\CL08095\RightPrimary.calib
Date: 8/9/2019 4:08:15 PM
Format: 4
Probe Tube Correction File: C:\Data\Probe Tube Calibrations\74_ProbeTube.calib
Experiment VIs: 2128
EPL_CFTS.exe V15.0.1f5 (2015)
DAQmx V15.1

Attenuation (dB): 40.000000
Min Freq (Hz): 50.000000
Max Freq (Hz): 99950.000000
Freq Step (Hz): 50.000000
Sample Rate (Hz): 200000.000000
[Smoothing]
Method=None
MA.Iterations=0
MA.Length=0
Loess.Length=0
Loess.Type=Linear
Loess.Robust=FALSE


Freq(Hz)	Mag(dB)	Phase(deg)	Unsmoothed(dB)

50.00000	102.83661	310.21469	102.83661
100.00000	72.39858	432.38371	72.39858
150.00000	68.53166	726.31676	68.53166
200.00000	67.14541	775.66811	67.14541
250.00000	67.73157	931.08728	67.73157
300.00000	68.13628	1178.19274	68.13628
350.00000	66.93271	1336.81117	66.93271
400.00000	59.86993	1423.56443	59.86993
450.00000	66.62917	1433.51663	66.62917
500.00000	64.31504	1609.17577	64.31504
550.00000	74.93920	1537.12616	74.93920
600.00000	75.12045	1521.97543	75.12045
650.00000	78.20120	1488.42998	78.20120
700.00000	81.99649	1450.43919	81.99649
750.00000	80.19389	1466.66236	80.19389
800.00000	81.98078	1445.86121	81.98078
850.00000	78.75294	1434.62166	78.75294
900.00000	79.19297	1450.30907	79.19297
950.00000	82.79815	1445.78935	82.79815
1000.00000	83.96814	1445.30873	83.96814
1050.00000	88.18635	1439.05036	88.18635
1100.00000	89.98870	1416.06960	89.98870
1150.00000	90.83661	1407.56895	90.83661
1200.00000	91.82359	1394.38996	91.82359
1250.00000	92.36897	1384.44021	92.36897
1300.00000	93.35118	1380.59983	93.35118
1350.00000	95.27378	1365.34543	95.27378
1400.00000	94.53932	1351.32235	94.53932
1450.00000	95.27402	1344.06969	95.27402
1500.00000	94.86932	1333.54926	94.86932
1550.00000	95.04111	1331.28431	95.04111
1600.00000	95.96711	1326.57304	95.96711
1650.00000	96.55073	1321.09910	96.55073
1700.00000	100.25537	1308.45651	100.25537
1750.00000	97.55760	1286.29305	97.55760
1800.00000	96.47637	1280.27224	96.47637
1850.00000	96.53728	1276.05773	96.53728
1900.00000	96.32721	1268.99361	96.32721
1950.00000	95.65612	1265.11651	95.65612
2000.00000	95.66895	1264.08189	95.66895
2050.00000	95.89625	1258.49358	95.89625
2100.00000	95.99072	1255.88752	95.99072
2150.00000	96.67509	1246.45269	96.67509
2200.00000	95.89955	1236.95441	95.89955
2250.00000	95.27443	1233.15944	95.27443
2300.00000	95.08931	1230.67587	95.08931
2350.00000	94.98408	1224.19332	94.98408
2400.00000	95.13568	1220.58362	95.13568
2450.00000	94.61755	1209.26226	94.61755
2500.00000	93.37361	1209.08073	93.37361
2550.00000	93.48356	1204.28824	93.48356
2600.00000	92.81668	1200.54127	92.81668
2650.00000	92.30758	1198.96082	92.30758
2700.00000	92.19125	1195.58061	92.19125
2750.00000	91.25881	1191.64092	91.25881
2800.00000	91.05737	1191.87550	91.05737
2850.00000	90.70891	1186.95794	90.70891
2900.00000	90.10124	1188.29528	90.10124
2950.00000	90.26811	1186.00536	90.26811
3000.00000	89.92466	1182.92644	89.92466
3050.00000	89.28559	1181.65174	89.28559
3100.00000	89.23314	1180.09723	89.23314
3150.00000	88.44707	1176.45247	88.44707
3200.00000	88.03704	1177.73317	88.03704
3250.00000	87.85215	1173.84369	87.85215
3300.00000	87.20017	1174.78542	87.20017
3350.00000	86.80523	1174.58410	86.80523
3400.00000	86.29399	1172.24248	86.29399
3450.00000	85.04548	1172.56670	85.04548
3500.00000	84.79230	1173.88358	84.79230
3550.00000	83.86606	1172.65871	83.86606
3600.00000	82.64478	1176.32805	82.64478
3650.00000	81.47743	1180.19717	81.47743
3700.00000	79.93570	1188.78856	79.93570
3750.00000	79.20811	1204.01684	79.20811
3800.00000	79.65031	1217.32336	79.65031
3850.00000	80.05611	1229.02859	80.05611
3900.00000	81.82873	1232.33938	81.82873
3950.00000	82.12327	1240.95999	82.12327
4000.00000	83.46943	1251.47708	83.46943
4050.00000	84.69256	1259.25234	84.69256
4100.00000	86.43518	1263.85155	86.43518
4150.00000	89.00136	1266.16651	89.00136
4200.00000	90.92386	1264.72847	90.92386
4250.00000	91.76413	1256.07081	91.76413
4300.00000	92.78657	1256.34170	92.78657
4350.00000	94.02254	1255.39770	94.02254
4400.00000	95.44188	1251.48333	95.44188
4450.00000	96.39852	1244.91779	96.39852
4500.00000	97.01854	1239.00833	97.01854
4550.00000	97.26903	1236.28838	97.26903
4600.00000	97.88031	1235.64827	97.88031
4650.00000	98.80117	1234.86708	98.80117
4700.00000	99.83095	1233.18753	99.83095
4750.00000	100.92099	1230.38931	100.92099
4800.00000	102.04357	1227.07446	102.04357
4850.00000	103.13890	1223.05552	103.13890
4900.00000	104.31176	1218.16263	104.31176
4950.00000	105.51528	1212.94246	105.51528
5000.00000	106.79045	1206.89677	106.79045
5050.00000	108.20312	1199.81253	108.20312
5100.00000	109.84418	1191.09898	109.84418
5150.00000	111.83002	1179.03331	111.83002
5200.00000	114.22945	1158.43450	114.22945
5250.00000	115.47878	1119.21445	115.47878
5300.00000	111.70421	1078.18341	111.70421
5350.00000	105.95051	1065.29758	105.95051
5400.00000	101.58631	1070.68533	101.58631
5450.00000	98.62545	1080.32682	98.62545
5500.00000	96.03334	1094.85236	96.03334
5550.00000	95.11300	1119.56055	95.11300
5600.00000	96.76886	1138.47433	96.76886
5650.00000	99.08011	1144.62841	99.08011
5700.00000	100.69074	1141.95299	100.69074
5750.00000	101.53582	1138.27963	101.53582
5800.00000	101.97444	1136.46343	101.97444
5850.00000	102.43455	1135.79291	102.43455
5900.00000	102.98378	1135.32767	102.98378
5950.00000	103.66499	1135.11964	103.66499
6000.00000	104.44259	1134.08666	104.44259
6050.00000	105.23885	1132.63058	105.23885
6100.00000	106.10480	1130.59123	106.10480
6150.00000	106.95774	1127.85459	106.95774
6200.00000	107.84854	1124.85952	107.84854
6250.00000	108.77317	1121.25668	108.77317
6300.00000	109.77604	1116.70522	109.77604
6350.00000	110.73974	1111.15474	110.73974
6400.00000	111.71020	1104.66053	111.71020
6450.00000	112.58363	1096.96115	112.58363
6500.00000	113.33900	1088.51791	113.33900
6550.00000	113.98550	1079.28194	113.98550
6600.00000	114.49088	1069.58807	114.49088
6650.00000	114.85732	1059.25669	114.85732
6700.00000	115.03026	1048.41961	115.03026
6750.00000	114.95392	1037.43132	114.95392
6800.00000	114.61417	1027.10654	114.61417
6850.00000	114.09836	1017.91769	114.09836
6900.00000	113.48273	1010.05193	113.48273
6950.00000	112.87191	1003.35726	112.87191
7000.00000	112.24017	997.47228	112.24017
7050.00000	111.67073	992.56460	111.67073
7100.00000	111.15014	987.96513	111.15014
7150.00000	110.66353	983.88507	110.66353
7200.00000	110.23712	979.96401	110.23712
7250.00000	109.84093	976.24895	109.84093
7300.00000	109.47094	972.38002	109.47094
7350.00000	109.08972	968.85428	109.08972
7400.00000	108.78739	965.26333	108.78739
7450.00000	108.44473	961.51615	108.44473
7500.00000	108.10521	958.09650	108.10521
7550.00000	107.76181	954.45283	107.76181
7600.00000	107.41064	951.00253	107.41064
7650.00000	107.00113	947.64612	107.00113
7700.00000	106.67059	944.96892	106.67059
7750.00000	106.27869	941.73362	106.27869
7800.00000	105.87201	939.65313	105.87201
7850.00000	105.54416	937.16595	105.54416
7900.00000	105.18320	935.00047	105.18320
7950.00000	104.85792	932.97579	104.85792
8000.00000	104.51747	931.45156	104.51747
8050.00000	104.28777	929.61409	104.28777
8100.00000	103.96796	927.97761	103.96796
8150.00000	103.80067	926.70259	103.80067
8200.00000	103.58790	924.92498	103.58790
8250.00000	103.46641	923.60964	103.46641
8300.00000	103.30919	922.02615	103.30919
8350.00000	103.26591	920.66878	103.26591
8400.00000	103.14471	918.54442	103.14471
8450.00000	103.03515	917.31405	103.03515
8500.00000	103.01189	915.49619	103.01189
8550.00000	102.97577	913.83471	102.97577
8600.00000	102.94559	912.01785	102.94559
8650.00000	102.93251	910.36774	102.93251
8700.00000	102.95812	908.07766	102.95812
8750.00000	102.91518	905.94724	102.91518
8800.00000	102.97333	904.06963	102.97333
8850.00000	103.00750	901.36244	103.00750
8900.00000	103.00566	899.03912	103.00566
8950.00000	103.05952	896.49422	103.05952
9000.00000	103.09241	893.80309	103.09241
9050.00000	103.15389	890.40275	103.15389
9100.00000	103.10931	888.01809	103.10931
9150.00000	103.21994	884.81767	103.21994
9200.00000	103.23004	881.46400	103.23004
9250.00000	103.21120	878.06224	103.21120
9300.00000	103.17900	874.54730	103.17900
9350.00000	103.17728	870.95091	103.17728
9400.00000	103.03247	866.80548	103.03247
9450.00000	102.90701	863.58493	102.90701
9500.00000	102.82097	859.36054	102.82097
9550.00000	102.56555	855.42572	102.56555
9600.00000	102.34276	852.02387	102.34276
9650.00000	102.13272	848.47759	102.13272
9700.00000	101.86395	844.86360	101.86395
9750.00000	101.46812	841.44043	101.46812
9800.00000	101.07127	838.95927	101.07127
9850.00000	100.60283	836.25333	100.60283
9900.00000	100.00515	835.61623	100.00515
9950.00000	99.52674	836.57166	99.52674
10000.00000	99.60531	839.92383	99.60531
10050.00000	100.17800	838.73352	100.17800
10100.00000	100.43333	834.98997	100.43333
10150.00000	100.45975	831.00230	100.45975
10200.00000	100.33494	827.42894	100.33494
10250.00000	100.16598	825.13479	100.16598
10300.00000	100.08165	822.76835	100.08165
10350.00000	99.98656	820.51062	99.98656
10400.00000	99.84665	818.16358	99.84665
10450.00000	99.79261	816.21701	99.79261
10500.00000	99.82661	813.76815	99.82661
10550.00000	99.76615	811.54162	99.76615
10600.00000	99.85754	808.86073	99.85754
10650.00000	99.87531	806.44700	99.87531
10700.00000	99.93331	803.46575	99.93331
10750.00000	99.96795	800.48601	99.96795
10800.00000	100.00800	797.12366	100.00800
10850.00000	100.11183	793.69562	100.11183
10900.00000	100.13510	790.10281	100.13510
10950.00000	100.14993	786.41682	100.14993
11000.00000	100.17695	782.56369	100.17695
11050.00000	100.13488	778.42166	100.13488
11100.00000	100.13421	774.38174	100.13421
11150.00000	100.05496	769.93305	100.05496
11200.00000	99.96839	765.78636	99.96839
11250.00000	99.80729	760.97148	99.80729
11300.00000	99.64983	756.67478	99.64983
11350.00000	99.51029	752.03660	99.51029
11400.00000	99.26012	747.24476	99.26012
11450.00000	99.01335	742.41798	99.01335
11500.00000	98.75767	737.80422	98.75767
11550.00000	98.48419	732.98684	98.48419
11600.00000	98.13505	728.32323	98.13505
11650.00000	97.79320	723.73528	97.79320
11700.00000	97.48985	718.98765	97.48985
11750.00000	97.10072	714.62513	97.10072
11800.00000	96.78132	710.28659	96.78132
11850.00000	96.42044	705.99675	96.42044
11900.00000	95.98730	701.96192	95.98730
11950.00000	95.64494	697.90554	95.64494
12000.00000	95.21589	693.99564	95.21589
12050.00000	94.78783	690.83793	94.78783
12100.00000	94.35581	686.81800	94.35581
12150.00000	93.93058	683.14566	93.93058
12200.00000	93.54396	679.31230	93.54396
12250.00000	93.12004	675.72642	93.12004
12300.00000	92.64891	671.52370	92.64891
12350.00000	92.15446	667.41981	92.15446
12400.00000	91.62442	662.88130	91.62442
12450.00000	91.37680	658.43673	91.37680
12500.00000	91.00698	654.17162	91.00698
12550.00000	90.57048	649.86715	90.57048
12600.00000	90.30826	644.53474	90.30826
12650.00000	89.97697	640.24376	89.97697
12700.00000	89.62279	634.42129	89.62279
12750.00000	89.30399	629.39343	89.30399
12800.00000	89.07846	624.49370	89.07846
12850.00000	88.77665	618.83593	88.77665
12900.00000	88.55772	612.76880	88.55772
12950.00000	88.48335	606.78465	88.48335
13000.00000	88.26376	600.01569	88.26376
13050.00000	88.27080	592.70329	88.27080
13100.00000	88.22430	585.36004	88.22430
13150.00000	88.50066	578.68183	88.50066
13200.00000	88.85520	569.73296	88.85520
13250.00000	89.60940	560.22379	89.60940
13300.00000	90.55886	554.76699	90.55886
13350.00000	91.72313	549.04017	91.72313
13400.00000	93.16672	547.57371	93.16672
13450.00000	94.27936	551.56417	94.27936
13500.00000	94.26101	561.46009	94.26101
13550.00000	93.53801	562.46430	93.53801
13600.00000	92.30055	561.30687	92.30055
13650.00000	91.15322	554.71436	91.15322
13700.00000	90.33337	545.62348	90.33337
13750.00000	89.87547	532.53637	89.87547
13800.00000	90.03010	520.27722	90.03010
13850.00000	90.53969	506.95309	90.53969
13900.00000	91.25209	492.81185	91.25209
13950.00000	92.51827	481.54703	92.51827
14000.00000	94.10368	471.95593	94.10368
14050.00000	96.11434	467.10950	96.11434
14100.00000	98.35176	465.50429	98.35176
14150.00000	99.98930	473.64338	99.98930
14200.00000	100.10202	484.42414	100.10202
14250.00000	98.95272	492.09825	98.95272
14300.00000	97.56563	492.59844	97.56563
14350.00000	96.41276	487.19117	96.41276
14400.00000	95.62531	481.47392	95.62531
14450.00000	95.04641	472.97460	95.04641
14500.00000	94.80714	464.12327	94.80714
14550.00000	94.82155	454.66252	94.82155
14600.00000	95.00311	447.19776	95.00311
14650.00000	95.38890	439.15229	95.38890
14700.00000	96.07413	430.93243	96.07413
14750.00000	96.83024	424.55538	96.83024
14800.00000	97.65230	420.28024	97.65230
14850.00000	98.71790	418.05415	98.71790
14900.00000	99.61219	417.75580	99.61219
14950.00000	100.12667	419.67322	100.12667
15000.00000	100.34492	421.36204	100.34492
15050.00000	100.15471	423.62697	100.15471
15100.00000	99.82632	423.10509	99.82632
15150.00000	99.34147	420.60252	99.34147
15200.00000	99.08261	417.17328	99.08261
15250.00000	98.75156	412.91049	98.75156
15300.00000	98.64504	407.71857	98.64504
15350.00000	98.80980	401.71803	98.80980
15400.00000	99.02456	396.01788	99.02456
15450.00000	99.31112	390.19633	99.31112
15500.00000	99.82576	385.80368	99.82576
15550.00000	100.28833	382.04026	100.28833
15600.00000	100.82227	379.07936	100.82227
15650.00000	101.37447	377.12104	101.37447
15700.00000	101.59236	375.49241	101.59236
15750.00000	101.87340	374.51815	101.87340
15800.00000	101.87682	373.23274	101.87682
15850.00000	101.87522	371.68182	101.87522
15900.00000	101.72214	368.41635	101.72214
15950.00000	101.53042	365.07774	101.53042
16000.00000	101.43605	361.17006	101.43605
16050.00000	101.46734	357.24063	101.46734
16100.00000	101.52221	353.34288	101.52221
16150.00000	101.70112	349.06675	101.70112
16200.00000	101.84558	345.52499	101.84558
16250.00000	102.09078	341.63462	102.09078
16300.00000	102.36085	338.50639	102.36085
16350.00000	102.62339	336.21234	102.62339
16400.00000	102.80694	334.07800	102.80694
16450.00000	102.99394	331.95488	102.99394
16500.00000	103.04384	329.33387	103.04384
16550.00000	103.06008	326.89248	103.06008
16600.00000	103.11310	323.83527	103.11310
16650.00000	103.12193	320.54041	103.12193
16700.00000	103.09789	316.89174	103.09789
16750.00000	103.04677	313.45105	103.04677
16800.00000	103.08316	310.20832	103.08316
16850.00000	103.20984	306.49645	103.20984
16900.00000	103.31804	303.45058	103.31804
16950.00000	103.37771	300.32206	103.37771
17000.00000	103.46435	297.41192	103.46435
17050.00000	103.53138	294.97664	103.53138
17100.00000	103.57351	292.59546	103.57351
17150.00000	103.62110	290.05896	103.62110
17200.00000	103.56121	287.34049	103.56121
17250.00000	103.53610	284.26790	103.53610
17300.00000	103.46791	281.47056	103.46791
17350.00000	103.42477	278.74769	103.42477
17400.00000	103.46189	275.88879	103.46189
17450.00000	103.51581	272.69043	103.51581
17500.00000	103.47037	270.10370	103.47037
17550.00000	103.49395	267.52729	103.49395
17600.00000	103.54304	265.36508	103.54304
17650.00000	103.64924	262.77504	103.64924
17700.00000	103.69558	260.40320	103.69558
17750.00000	103.69255	258.24707	103.69255
17800.00000	103.73647	256.02024	103.73647
17850.00000	103.72160	253.65725	103.72160
17900.00000	103.75774	251.59601	103.75774
17950.00000	103.81480	249.22842	103.81480
18000.00000	103.91755	246.86840	103.91755
18050.00000	103.94073	244.23561	103.94073
18100.00000	104.03053	241.80596	104.03053
18150.00000	104.11256	238.81173	104.11256
18200.00000	104.17705	236.12908	104.17705
18250.00000	104.28089	233.39355	104.28089
18300.00000	104.29586	230.55446	104.29586
18350.00000	104.34332	227.97563	104.34332
18400.00000	104.36927	225.22591	104.36927
18450.00000	104.43601	222.57972	104.43601
18500.00000	104.50955	220.07168	104.50955
18550.00000	104.57714	217.17594	104.57714
18600.00000	104.57320	214.26379	104.57320
18650.00000	104.62341	211.48773	104.62341
18700.00000	104.65785	208.82761	104.65785
18750.00000	104.67242	206.02882	104.67242
18800.00000	104.67215	203.29284	104.67215
18850.00000	104.68331	200.63117	104.68331
18900.00000	104.64520	197.90277	104.64520
18950.00000	104.63401	195.12302	104.63401
19000.00000	104.61588	192.39338	104.61588
19050.00000	104.60518	189.96263	104.60518
19100.00000	104.64282	187.15073	104.64282
19150.00000	104.62391	184.77207	104.62391
19200.00000	104.62551	182.17964	104.62551
19250.00000	104.61306	179.83312	104.61306
19300.00000	104.65825	177.34680	104.65825
19350.00000	104.66811	174.71751	104.66811
19400.00000	104.63438	172.23952	104.63438
19450.00000	104.63337	169.53997	104.63337
19500.00000	104.64752	167.22460	104.64752
19550.00000	104.67706	164.83846	104.67706
19600.00000	104.64249	162.22058	104.64249
19650.00000	104.66433	159.71606	104.66433
19700.00000	104.67391	157.22341	104.67391
19750.00000	104.70528	154.88640	104.70528
19800.00000	104.72231	152.53253	104.72231
19850.00000	104.71907	149.75815	104.71907
19900.00000	104.72316	147.43915	104.72316
19950.00000	104.72579	144.99825	104.72579
20000.00000	104.73032	142.09486	104.73032
20050.00000	104.74569	139.80292	104.74569
20100.00000	104.78778	137.29535	104.78778
20150.00000	104.78672	134.47182	104.78672
20200.00000	104.79605	131.86511	104.79605
20250.00000	104.83035	129.53290	104.83035
20300.00000	104.81407	127.00575	104.81407
20350.00000	104.82080	124.42743	104.82080
20400.00000	104.82114	121.87344	104.82114
20450.00000	104.83489	119.42543	104.83489
20500.00000	104.84170	116.80374	104.84170
20550.00000	104.83234	114.09555	104.83234
20600.00000	104.82885	111.46383	104.82885
20650.00000	104.85601	108.84092	104.85601
20700.00000	104.88926	106.54604	104.88926
20750.00000	104.86360	103.94528	104.86360
20800.00000	104.84517	101.31661	104.84517
20850.00000	104.82767	98.51597	104.82767
20900.00000	104.81240	95.96412	104.81240
20950.00000	104.82616	93.26824	104.82616
21000.00000	104.84671	90.61763	104.84671
21050.00000	104.83509	87.93680	104.83509
21100.00000	104.84155	85.10269	104.84155
21150.00000	104.81755	82.94609	104.81755
21200.00000	104.81780	80.39015	104.81780
21250.00000	104.76950	77.68323	104.76950
21300.00000	104.76473	74.82868	104.76473
21350.00000	104.76030	72.28711	104.76030
21400.00000	104.74865	69.29658	104.74865
21450.00000	104.76518	66.83220	104.76518
21500.00000	104.78188	64.33249	104.78188
21550.00000	104.78544	61.49581	104.78544
21600.00000	104.77350	58.67303	104.77350
21650.00000	104.76887	56.19003	104.76887
21700.00000	104.70769	52.85411	104.70769
21750.00000	104.69824	49.86279	104.69824
21800.00000	104.68109	46.88200	104.68109
21850.00000	104.64980	44.09565	104.64980
21900.00000	104.58760	41.12504	104.58760
21950.00000	104.57802	38.12899	104.57802
22000.00000	104.44382	35.27104	104.44382
22050.00000	104.37575	32.74480	104.37575
22100.00000	104.29702	29.98512	104.29702
22150.00000	104.21320	27.15302	104.21320
22200.00000	104.15659	24.08956	104.15659
22250.00000	104.13324	21.35937	104.13324
22300.00000	104.01116	18.77082	104.01116
22350.00000	103.91788	15.58427	103.91788
22400.00000	103.81865	12.88020	103.81865
22450.00000	103.73806	10.27628	103.73806
22500.00000	103.65043	 7.43683	103.65043
22550.00000	103.52426	 4.66998	103.52426
22600.00000	103.38327	 1.97306	103.38327
22650.00000	103.26719	-0.39378	103.26719
22700.00000	103.11129	-2.89769	103.11129
22750.00000	103.02061	-5.92206	103.02061
22800.00000	102.87622	-8.38135	102.87622
22850.00000	102.74726	-11.13156	102.74726
22900.00000	102.70055	-13.31548	102.70055
22950.00000	102.58868	-15.87364	102.58868
23000.00000	102.42958	-18.47311	102.42958
23050.00000	102.29987	-20.83895	102.29987
23100.00000	102.16333	-23.25257	102.16333
23150.00000	102.01672	-25.46563	102.01672
23200.00000	101.87631	-28.29808	101.87631
23250.00000	101.79742	-30.97669	101.79742
23300.00000	101.74479	-33.60761	101.74479
23350.00000	101.53462	-35.44756	101.53462
23400.00000	101.36897	-37.87820	101.36897
23450.00000	101.21634	-40.15088	101.21634
23500.00000	101.13232	-42.34775	101.13232
23550.00000	100.96265	-44.73069	100.96265
23600.00000	100.85154	-46.83812	100.85154
23650.00000	100.56967	-48.93941	100.56967
23700.00000	100.52083	-50.96368	100.52083
23750.00000	100.31690	-53.40219	100.31690
23800.00000	100.17949	-55.58880	100.17949
23850.00000	100.09332	-57.78798	100.09332
23900.00000	99.93756	-59.80502	99.93756
23950.00000	99.74893	-61.51200	99.74893
24000.00000	99.67206	-63.98638	99.67206
24050.00000	99.49893	-66.13515	99.49893
24100.00000	99.32629	-68.12536	99.32629
24150.00000	99.18964	-70.15463	99.18964
24200.00000	99.05368	-72.33925	99.05368
24250.00000	98.92986	-74.02809	98.92986
24300.00000	98.80046	-76.13063	98.80046
24350.00000	98.68190	-77.69933	98.68190
24400.00000	98.54340	-79.72949	98.54340
24450.00000	98.37761	-81.42911	98.37761
24500.00000	98.19468	-84.01187	98.19468
24550.00000	98.01698	-86.10501	98.01698
24600.00000	97.86287	-87.82952	97.86287
24650.00000	97.70054	-90.05878	97.70054
24700.00000	97.57233	-92.06806	97.57233
24750.00000	97.44575	-93.75078	97.44575
24800.00000	97.20841	-95.02421	97.20841
24850.00000	97.09509	-96.46290	97.09509
24900.00000	96.82647	-98.19192	96.82647
24950.00000	96.80447	-100.09597	96.80447
25000.00000	96.57137	-101.26022	96.57137
25050.00000	96.47397	-102.69893	96.47397
25100.00000	96.39636	-103.98186	96.39636
25150.00000	96.17183	-105.31494	96.17183
25200.00000	96.06683	-106.74797	96.06683
25250.00000	95.90579	-108.72351	95.90579
25300.00000	95.76039	-109.98372	95.76039
25350.00000	95.67743	-111.17700	95.67743
25400.00000	95.54648	-112.17503	95.54648
25450.00000	95.48906	-114.09689	95.48906
25500.00000	95.36286	-114.82157	95.36286
25550.00000	95.26612	-116.15041	95.26612
25600.00000	95.16431	-117.33113	95.16431
25650.00000	95.09039	-119.42555	95.09039
25700.00000	95.02444	-119.95305	95.02444
25750.00000	94.91562	-122.05601	94.91562
25800.00000	94.91762	-122.61188	94.91762
25850.00000	94.81643	-124.37666	94.81643
25900.00000	94.75953	-125.82387	94.75953
25950.00000	94.72820	-126.85131	94.72820
26000.00000	94.67250	-128.31665	94.67250
26050.00000	94.71365	-130.13178	94.71365
26100.00000	94.66589	-131.54344	94.66589
26150.00000	94.61433	-133.61654	94.61433
26200.00000	94.52209	-134.95125	94.52209
26250.00000	94.56675	-136.62702	94.56675
26300.00000	94.41366	-138.34937	94.41366
26350.00000	94.43388	-140.08326	94.43388
26400.00000	94.45260	-142.20419	94.45260
26450.00000	94.34946	-144.08622	94.34946
26500.00000	94.29648	-145.94808	94.29648
26550.00000	94.22369	-147.12391	94.22369
26600.00000	94.14446	-149.78200	94.14446
26650.00000	94.08468	-151.90610	94.08468
26700.00000	93.94305	-153.58449	93.94305
26750.00000	93.87664	-155.58001	93.87664
26800.00000	93.82682	-157.73513	93.82682
26850.00000	93.64783	-159.04622	93.64783
26900.00000	93.51743	-161.26235	93.51743
26950.00000	93.35597	-163.09570	93.35597
27000.00000	93.26363	-165.15209	93.26363
27050.00000	93.10841	-166.87511	93.10841
27100.00000	92.96899	-168.70522	92.96899
27150.00000	92.73710	-170.75335	92.73710
27200.00000	92.64172	-172.60214	92.64172
27250.00000	92.45858	-174.25217	92.45858
27300.00000	92.26950	-175.66958	92.26950
27350.00000	92.03519	-177.36199	92.03519
27400.00000	91.83408	-178.35538	91.83408
27450.00000	91.70016	-180.23272	91.70016
27500.00000	91.49489	-181.60975	91.49489
27550.00000	91.27638	-182.26683	91.27638
27600.00000	91.08165	-184.13357	91.08165
27650.00000	90.81287	-185.25829	90.81287
27700.00000	90.54857	-186.31258	90.54857
27750.00000	90.27253	-187.17810	90.27253
27800.00000	90.17520	-188.26929	90.17520
27850.00000	89.99479	-189.31583	89.99479
27900.00000	89.82343	-189.24997	89.82343
27950.00000	89.50357	-189.45791	89.50357
28000.00000	89.38473	-190.33311	89.38473
28050.00000	89.15286	-190.98444	89.15286
28100.00000	88.90691	-190.82061	88.90691
28150.00000	88.73017	-190.91122	88.73017
28200.00000	88.61549	-191.04761	88.61549
28250.00000	88.44868	-190.89324	88.44868
28300.00000	88.25046	-191.44480	88.25046
28350.00000	88.21950	-190.42001	88.21950
28400.00000	88.06087	-190.96725	88.06087
28450.00000	87.91335	-189.83350	87.91335
28500.00000	87.85661	-190.07743	87.85661
28550.00000	87.74420	-190.25622	87.74420
28600.00000	87.79155	-189.20489	87.79155
28650.00000	87.65681	-188.33123	87.65681
28700.00000	87.58099	-188.35189	87.58099
28750.00000	87.65345	-187.18202	87.65345
28800.00000	87.64223	-187.22851	87.64223
28850.00000	87.63140	-186.99437	87.63140
28900.00000	87.79417	-186.93518	87.79417
28950.00000	87.72072	-186.64378	87.72072
29000.00000	87.95003	-186.53871	87.95003
29050.00000	88.04895	-186.05056	88.04895
29100.00000	88.07228	-185.76656	88.07228
29150.00000	88.01511	-186.36752	88.01511
29200.00000	88.27676	-185.23717	88.27676
29250.00000	88.35053	-184.64232	88.35053
29300.00000	88.51757	-184.67521	88.51757
29350.00000	88.69212	-184.18437	88.69212
29400.00000	88.81909	-184.25001	88.81909
29450.00000	88.95961	-184.45672	88.95961
29500.00000	89.21326	-184.51619	89.21326
29550.00000	89.44724	-185.05641	89.44724
29600.00000	89.62669	-185.26055	89.62669
29650.00000	89.72785	-185.55303	89.72785
29700.00000	89.99593	-185.40816	89.99593
29750.00000	90.20420	-186.23117	90.20420
29800.00000	90.37371	-186.68638	90.37371
29850.00000	90.61140	-187.71198	90.61140
29900.00000	90.78766	-187.88426	90.78766
29950.00000	90.96069	-188.15767	90.96069
30000.00000	91.25736	-188.80928	91.25736
30050.00000	91.47655	-189.55985	91.47655
30100.00000	91.71909	-189.93522	91.71909
30150.00000	91.91116	-190.69272	91.91116
30200.00000	92.19592	-191.67870	92.19592
30250.00000	92.42691	-191.99671	92.42691
30300.00000	92.63096	-193.30827	92.63096
30350.00000	92.93400	-194.29214	92.93400
30400.00000	93.15263	-195.25733	93.15263
30450.00000	93.37419	-196.25957	93.37419
30500.00000	93.70150	-197.20939	93.70150
30550.00000	93.89777	-197.83715	93.89777
30600.00000	94.10411	-199.42379	94.10411
30650.00000	94.37248	-200.58214	94.37248
30700.00000	94.68255	-201.81927	94.68255
30750.00000	94.87177	-203.01304	94.87177
30800.00000	95.03991	-204.28956	95.03991
30850.00000	95.34777	-205.44701	95.34777
30900.00000	95.62214	-207.14144	95.62214
30950.00000	95.85100	-208.64482	95.85100
31000.00000	96.09128	-209.90663	96.09128
31050.00000	96.36237	-211.06911	96.36237
31100.00000	96.65497	-212.64987	96.65497
31150.00000	96.89729	-214.07415	96.89729
31200.00000	97.12026	-215.81243	97.12026
31250.00000	97.44763	-217.21969	97.44763
31300.00000	97.67756	-218.91091	97.67756
31350.00000	97.96846	-220.42552	97.96846
31400.00000	98.20863	-222.40544	98.20863
31450.00000	98.47989	-224.18974	98.47989
31500.00000	98.75184	-226.13604	98.75184
31550.00000	98.97655	-228.00521	98.97655
31600.00000	99.24911	-230.29464	99.24911
31650.00000	99.54137	-232.46365	99.54137
31700.00000	99.71910	-234.35740	99.71910
31750.00000	99.97674	-236.43270	99.97674
31800.00000	100.19465	-238.66390	100.19465
31850.00000	100.41831	-240.62931	100.41831
31900.00000	100.61267	-242.95754	100.61267
31950.00000	100.86101	-245.45281	100.86101
32000.00000	101.04675	-247.65057	101.04675
32050.00000	101.24753	-249.99511	101.24753
32100.00000	101.46785	-252.20264	101.46785
32150.00000	101.63996	-254.53284	101.63996
32200.00000	101.80074	-256.73259	101.80074
32250.00000	102.00424	-259.17863	102.00424
32300.00000	102.12108	-261.42553	102.12108
32350.00000	102.30430	-263.70903	102.30430
32400.00000	102.44791	-265.88950	102.44791
32450.00000	102.60724	-268.33164	102.60724
32500.00000	102.72404	-270.65524	102.72404
32550.00000	102.86385	-272.78447	102.86385
32600.00000	103.03120	-274.87606	103.03120
32650.00000	103.16027	-277.18282	103.16027
32700.00000	103.28083	-279.38691	103.28083
32750.00000	103.40659	-281.54076	103.40659
32800.00000	103.52893	-283.40296	103.52893
32850.00000	103.67890	-285.64114	103.67890
32900.00000	103.79264	-287.73674	103.79264
32950.00000	103.91779	-289.70551	103.91779
33000.00000	104.06041	-291.68174	104.06041
33050.00000	104.17538	-293.39267	104.17538
33100.00000	104.33469	-295.51688	104.33469
33150.00000	104.49969	-297.31289	104.49969
33200.00000	104.65141	-298.98728	104.65141
33250.00000	104.76087	-301.03660	104.76087
33300.00000	104.93216	-302.69560	104.93216
33350.00000	105.12318	-304.69997	105.12318
33400.00000	105.26914	-306.86546	105.26914
33450.00000	105.46560	-308.68801	105.46560
33500.00000	105.61794	-310.27947	105.61794
33550.00000	105.81770	-312.48920	105.81770
33600.00000	106.01616	-314.33204	106.01616
33650.00000	106.20119	-316.31476	106.20119
33700.00000	106.38470	-318.39225	106.38470
33750.00000	106.59906	-320.41055	106.59906
33800.00000	106.80726	-322.63323	106.80726
33850.00000	107.02169	-324.55421	107.02169
33900.00000	107.22445	-326.87608	107.22445
33950.00000	107.44456	-328.94987	107.44456
34000.00000	107.64117	-331.15201	107.64117
34050.00000	107.86280	-333.13540	107.86280
34100.00000	108.06905	-335.52283	108.06905
34150.00000	108.30919	-337.82299	108.30919
34200.00000	108.52179	-340.13683	108.52179
34250.00000	108.70988	-342.52560	108.70988
34300.00000	108.94315	-344.98374	108.94315
34350.00000	109.17309	-347.31529	109.17309
34400.00000	109.39120	-349.91404	109.39120
34450.00000	109.60967	-352.32204	109.60967
34500.00000	109.82221	-354.74291	109.82221
34550.00000	110.05743	-357.41490	110.05743
34600.00000	110.29057	-360.09780	110.29057
34650.00000	110.51422	-362.69348	110.51422
34700.00000	110.74917	-365.43761	110.74917
34750.00000	110.97358	-368.37258	110.97358
34800.00000	111.21447	-371.29005	111.21447
34850.00000	111.46115	-374.31657	111.46115
34900.00000	111.67726	-377.38153	111.67726
34950.00000	111.88570	-380.69764	111.88570
35000.00000	112.09900	-384.02600	112.09900
35050.00000	112.26058	-387.64391	112.26058
35100.00000	112.33974	-391.24124	112.33974
35150.00000	112.41057	-394.50496	112.41057
35200.00000	112.45842	-397.21078	112.45842
35250.00000	112.56193	-399.64671	112.56193
35300.00000	112.75278	-402.15408	112.75278
35350.00000	112.93010	-405.05629	112.93010
35400.00000	113.12973	-408.16731	113.12973
35450.00000	113.31192	-411.28088	113.31192
35500.00000	113.48844	-414.67261	113.48844
35550.00000	113.63274	-418.05784	113.63274
35600.00000	113.78205	-421.47433	113.78205
35650.00000	113.88991	-425.00964	113.88991
35700.00000	113.98307	-428.50102	113.98307
35750.00000	114.05392	-431.83007	114.05392
35800.00000	114.14349	-435.44036	114.14349
35850.00000	114.20682	-438.80515	114.20682
35900.00000	114.24574	-442.21847	114.24574
35950.00000	114.29469	-445.43866	114.29469
36000.00000	114.33518	-448.72418	114.33518
36050.00000	114.35233	-452.09296	114.35233
36100.00000	114.35090	-455.18635	114.35090
36150.00000	114.37307	-458.43508	114.37307
36200.00000	114.38678	-461.57163	114.38678
36250.00000	114.37135	-464.67870	114.37135
36300.00000	114.36509	-467.57740	114.36509
36350.00000	114.35198	-470.55080	114.35198
36400.00000	114.33198	-473.59240	114.33198
36450.00000	114.30509	-476.34249	114.30509
36500.00000	114.31031	-479.09952	114.31031
36550.00000	114.29623	-481.87211	114.29623
36600.00000	114.28480	-484.55296	114.28480
36650.00000	114.27727	-487.24504	114.27727
36700.00000	114.23754	-489.83537	114.23754
36750.00000	114.21978	-492.35862	114.21978
36800.00000	114.21382	-494.78577	114.21382
36850.00000	114.17724	-497.22738	114.17724
36900.00000	114.15881	-499.66967	114.15881
36950.00000	114.14898	-501.99706	114.14898
37000.00000	114.13064	-504.17859	114.13064
37050.00000	114.11708	-506.38767	114.11708
37100.00000	114.09510	-508.57048	114.09510
37150.00000	114.07944	-510.61958	114.07944
37200.00000	114.07119	-512.47883	114.07119
37250.00000	114.07857	-514.36287	114.07857
37300.00000	114.08482	-516.09280	114.08482
37350.00000	114.08516	-517.60948	114.08516
37400.00000	114.12608	-519.19933	114.12608
37450.00000	114.18688	-520.47291	114.18688
37500.00000	114.25883	-521.55664	114.25883
37550.00000	114.37312	-522.79744	114.37312
37600.00000	114.54085	-523.66795	114.54085
37650.00000	114.74630	-524.78591	114.74630
37700.00000	115.00039	-525.66183	115.00039
37750.00000	115.31522	-526.83786	115.31522
37800.00000	115.69644	-528.25756	115.69644
37850.00000	116.11456	-529.90751	116.11456
37900.00000	116.55513	-532.06762	116.55513
37950.00000	117.01586	-534.63872	117.01586
38000.00000	117.47978	-537.55953	117.47978
38050.00000	117.92436	-541.13136	117.92436
38100.00000	118.33792	-544.76301	118.33792
38150.00000	118.72310	-548.68339	118.72310
38200.00000	119.09961	-552.98037	119.09961
38250.00000	119.41681	-557.37266	119.41681
38300.00000	119.70686	-561.91025	119.70686
38350.00000	119.96596	-566.58074	119.96596
38400.00000	120.18866	-571.27122	120.18866
38450.00000	120.39561	-575.97979	120.39561
38500.00000	120.56469	-580.70009	120.56469
38550.00000	120.71300	-585.60679	120.71300
38600.00000	120.82810	-590.34840	120.82810
38650.00000	120.92344	-595.15323	120.92344
38700.00000	120.99152	-599.82832	120.99152
38750.00000	121.05621	-604.50838	121.05621
38800.00000	121.09130	-609.17128	121.09130
38850.00000	121.13764	-613.88841	121.13764
38900.00000	121.14568	-618.55272	121.14568
38950.00000	121.13247	-623.14495	121.13247
39000.00000	121.11832	-627.71018	121.11832
39050.00000	121.09949	-632.31653	121.09949
39100.00000	121.05698	-636.94219	121.05698
39150.00000	120.98089	-641.54189	120.98089
39200.00000	120.89104	-645.89033	120.89104
39250.00000	120.81921	-650.20628	120.81921
39300.00000	120.73196	-654.56648	120.73196
39350.00000	120.63059	-658.84900	120.63059
39400.00000	120.53968	-663.14546	120.53968
39450.00000	120.44837	-667.44213	120.44837
39500.00000	120.32365	-671.74523	120.32365
39550.00000	120.21031	-676.02691	120.21031
39600.00000	120.06975	-680.42642	120.06975
39650.00000	119.91194	-684.77121	119.91194
39700.00000	119.73523	-689.14826	119.73523
39750.00000	119.52559	-693.41749	119.52559
39800.00000	119.28736	-697.50586	119.28736
39850.00000	119.06566	-701.60622	119.06566
39900.00000	118.80721	-705.56338	118.80721
39950.00000	118.54901	-709.45504	118.54901
40000.00000	118.27015	-713.20764	118.27015
40050.00000	117.98815	-716.84509	117.98815
40100.00000	117.69669	-720.43017	117.69669
40150.00000	117.40842	-723.91258	117.40842
40200.00000	117.09721	-727.21441	117.09721
40250.00000	116.79177	-730.39387	116.79177
40300.00000	116.49653	-733.47491	116.49653
40350.00000	116.18471	-736.46751	116.18471
40400.00000	115.87667	-739.36803	115.87667
40450.00000	115.54742	-742.13435	115.54742
40500.00000	115.24151	-744.86350	115.24151
40550.00000	114.90242	-747.42530	114.90242
40600.00000	114.57493	-749.78348	114.57493
40650.00000	114.25439	-752.15622	114.25439
40700.00000	113.93527	-754.49035	113.93527
40750.00000	113.61936	-756.45955	113.61936
40800.00000	113.31211	-758.46386	113.31211
40850.00000	113.00554	-760.30975	113.00554
40900.00000	112.72739	-761.97396	112.72739
40950.00000	112.43255	-763.73465	112.43255
41000.00000	112.18410	-765.31636	112.18410
41050.00000	111.88964	-766.58255	111.88964
41100.00000	111.64693	-767.87153	111.64693
41150.00000	111.42363	-769.15610	111.42363
41200.00000	111.21697	-770.19772	111.21697
41250.00000	111.03661	-771.20648	111.03661
41300.00000	110.85040	-772.25722	110.85040
41350.00000	110.67237	-773.42396	110.67237
41400.00000	110.53039	-774.36162	110.53039
41450.00000	110.40762	-775.26105	110.40762
41500.00000	110.28524	-775.92816	110.28524
41550.00000	110.16310	-776.69084	110.16310
41600.00000	110.10701	-777.56718	110.10701
41650.00000	110.06311	-778.44540	110.06311
41700.00000	110.06690	-778.99696	110.06690
41750.00000	110.10253	-780.12788	110.10253
41800.00000	110.13044	-781.13817	110.13044
41850.00000	110.15720	-782.46700	110.15720
41900.00000	110.23319	-783.83850	110.23319
41950.00000	110.31420	-785.39608	110.31420
42000.00000	110.40176	-787.05576	110.40176
42050.00000	110.44950	-788.84139	110.44950
42100.00000	110.55063	-790.61900	110.55063
42150.00000	110.61327	-792.64909	110.61327
42200.00000	110.70293	-794.78895	110.70293
42250.00000	110.71349	-796.98515	110.71349
42300.00000	110.75466	-799.25045	110.75466
42350.00000	110.78326	-801.67412	110.78326
42400.00000	110.76984	-803.94877	110.76984
42450.00000	110.77031	-806.21025	110.77031
42500.00000	110.73274	-808.65071	110.73274
42550.00000	110.71622	-810.80918	110.71622
42600.00000	110.64950	-813.21882	110.64950
42650.00000	110.61991	-815.59115	110.61991
42700.00000	110.52078	-817.61585	110.52078
42750.00000	110.49298	-819.88416	110.49298
42800.00000	110.43324	-821.86987	110.43324
42850.00000	110.37516	-824.22623	110.37516
42900.00000	110.35287	-826.08029	110.35287
42950.00000	110.27181	-828.09767	110.27181
43000.00000	110.26569	-829.83585	110.26569
43050.00000	110.17327	-831.70951	110.17327
43100.00000	110.18823	-833.77857	110.18823
43150.00000	110.14701	-835.13974	110.14701
43200.00000	110.09557	-837.38734	110.09557
43250.00000	110.08391	-838.82687	110.08391
43300.00000	110.07497	-840.86673	110.07497
43350.00000	110.04687	-842.31508	110.04687
43400.00000	110.03719	-844.17496	110.03719
43450.00000	110.02206	-845.99410	110.02206
43500.00000	109.97349	-847.63018	109.97349
43550.00000	109.98437	-849.81715	109.98437
43600.00000	109.94752	-851.47008	109.94752
43650.00000	109.93940	-853.27993	109.93940
43700.00000	109.90908	-855.45660	109.90908
43750.00000	109.91279	-857.33730	109.91279
43800.00000	109.94406	-859.29542	109.94406
43850.00000	109.85691	-861.10739	109.85691
43900.00000	109.89394	-863.26618	109.89394
43950.00000	109.84948	-865.05539	109.84948
44000.00000	109.86331	-866.91917	109.86331
44050.00000	109.86952	-868.56102	109.86952
44100.00000	109.86100	-870.02411	109.86100
44150.00000	109.82875	-871.93264	109.82875
44200.00000	109.82713	-873.67152	109.82713
44250.00000	109.87684	-875.19148	109.87684
44300.00000	109.88481	-877.08003	109.88481
44350.00000	109.91312	-878.43161	109.91312
44400.00000	109.91926	-879.61450	109.91926
44450.00000	109.93646	-881.22126	109.93646
44500.00000	109.98822	-882.23373	109.98822
44550.00000	110.01954	-883.47550	110.01954
44600.00000	110.09637	-885.07625	110.09637
44650.00000	110.10472	-886.83609	110.10472
44700.00000	110.22813	-888.03583	110.22813
44750.00000	110.28384	-889.58696	110.28384
44800.00000	110.39880	-890.88614	110.39880
44850.00000	110.49497	-892.85349	110.49497
44900.00000	110.64510	-894.47882	110.64510
44950.00000	110.76111	-895.98734	110.76111
45000.00000	110.95011	-897.66761	110.95011
45050.00000	111.06982	-899.48266	111.06982
45100.00000	111.25917	-901.40930	111.25917
45150.00000	111.41948	-903.17150	111.41948
45200.00000	111.59413	-905.32096	111.59413
45250.00000	111.80013	-907.08683	111.80013
45300.00000	111.97377	-909.14837	111.97377
45350.00000	112.18346	-910.85216	112.18346
45400.00000	112.39514	-912.98628	112.39514
45450.00000	112.68209	-915.28101	112.68209
45500.00000	112.82135	-917.45899	112.82135
45550.00000	113.07814	-919.78474	113.07814
45600.00000	113.32507	-922.36379	113.32507
45650.00000	113.56507	-924.98605	113.56507
45700.00000	113.81064	-927.66052	113.81064
45750.00000	114.11884	-930.80804	114.11884
45800.00000	114.34805	-933.94600	114.34805
45850.00000	114.62280	-937.58707	114.62280
45900.00000	114.83324	-941.19937	114.83324
45950.00000	115.02493	-945.34297	115.02493
46000.00000	115.24528	-949.44890	115.24528
46050.00000	115.40018	-953.29207	115.40018
46100.00000	115.51643	-957.66936	115.51643
46150.00000	115.61043	-961.81047	115.61043
46200.00000	115.70666	-966.11781	115.70666
46250.00000	115.75710	-970.42732	115.75710
46300.00000	115.77599	-974.55247	115.77599
46350.00000	115.77130	-978.77649	115.77130
46400.00000	115.76681	-982.78877	115.76681
46450.00000	115.70432	-986.83797	115.70432
46500.00000	115.65724	-991.06490	115.65724
46550.00000	115.52320	-994.81622	115.52320
46600.00000	115.44825	-998.57016	115.44825
46650.00000	115.30609	-1001.81677	115.30609
46700.00000	115.22346	-1005.57546	115.22346
46750.00000	115.05579	-1009.02232	115.05579
46800.00000	115.00385	-1012.20329	115.00385
46850.00000	114.85826	-1015.69357	114.85826
46900.00000	114.79594	-1018.79653	114.79594
46950.00000	114.70992	-1022.05032	114.70992
47000.00000	114.58737	-1025.83793	114.58737
47050.00000	114.50253	-1029.03660	114.50253
47100.00000	114.38108	-1031.97828	114.38108
47150.00000	114.23512	-1034.95722	114.23512
47200.00000	114.16161	-1038.16641	114.16161
47250.00000	113.98586	-1041.11420	113.98586
47300.00000	113.90517	-1044.01244	113.90517
47350.00000	113.85076	-1046.79018	113.85076
47400.00000	113.66076	-1049.54756	113.66076
47450.00000	113.61151	-1052.11700	113.61151
47500.00000	113.52507	-1055.12144	113.52507
47550.00000	113.44324	-1057.85783	113.44324
47600.00000	113.28093	-1061.08966	113.28093
47650.00000	113.14552	-1063.79935	113.14552
47700.00000	113.06856	-1066.64315	113.06856
47750.00000	112.95023	-1069.46951	112.95023
47800.00000	112.87308	-1072.12871	112.87308
47850.00000	112.85107	-1074.79572	112.85107
47900.00000	112.73815	-1077.05199	112.73815
47950.00000	112.71742	-1080.44643	112.71742
48000.00000	112.59819	-1083.23032	112.59819
48050.00000	112.56569	-1086.07135	112.56569
48100.00000	112.50219	-1089.23624	112.50219
48150.00000	112.49361	-1092.21230	112.49361
48200.00000	112.38383	-1095.13756	112.38383
48250.00000	112.30133	-1098.05705	112.30133
48300.00000	112.32972	-1100.77549	112.32972
48350.00000	112.26467	-1104.04472	112.26467
48400.00000	112.09545	-1107.66433	112.09545
48450.00000	112.05735	-1110.93522	112.05735
48500.00000	111.94846	-1113.90851	111.94846
48550.00000	111.84059	-1117.42128	111.84059
48600.00000	111.71301	-1121.41379	111.71301
48650.00000	111.62624	-1124.76545	111.62624
48700.00000	111.42587	-1127.92273	111.42587
48750.00000	111.27586	-1131.99692	111.27586
48800.00000	111.03383	-1135.20573	111.03383
48850.00000	110.77482	-1139.68467	110.77482
48900.00000	110.70410	-1142.62850	110.70410
48950.00000	110.27751	-786.70843	110.27751
49000.00000	110.03382	-430.27437	110.03382
49050.00000	109.71816	-74.05099	109.71816
49100.00000	109.39722	283.43636	109.39722
49150.00000	109.02718	639.47674	109.02718
49200.00000	108.52512	638.13015	108.52512
49250.00000	108.25111	995.49511	108.25111
49300.00000	107.89520	993.88758	107.89520
49350.00000	107.45172	1351.49644	107.45172
49400.00000	106.93416	1708.78247	106.93416
49450.00000	106.64285	2067.83329	106.64285
49500.00000	106.22734	2426.48359	106.22734
49550.00000	105.90917	2425.26165	105.90917
49600.00000	105.59820	2784.19996	105.59820
49650.00000	105.28720	3142.15845	105.28720
49700.00000	104.90861	3501.67702	104.90861
49750.00000	104.78672	3861.34977	104.78672
49800.00000	104.46849	3860.89651	104.46849
49850.00000	104.32826	4578.75456	104.32826
49900.00000	104.12185	4579.44332	104.12185
49950.00000	103.85284	4938.03292	103.85284
50000.00000	103.82380	4938.41534	103.82380
50050.00000	103.60009	4937.06323	103.60009
50100.00000	103.44247	4936.70054	103.44247
50150.00000	103.46450	4936.06333	103.46450
50200.00000	103.33720	4934.91731	103.33720
50250.00000	103.23688	4934.15623	103.23688
50300.00000	103.34228	4933.53183	103.34228
50350.00000	103.22979	4933.35206	103.22979
50400.00000	103.29460	4932.23052	103.29460
50450.00000	103.16461	4930.97230	103.16461
50500.00000	103.25053	4930.58497	103.25053
50550.00000	103.12361	4928.61722	103.12361
50600.00000	103.14234	4927.10576	103.14234
50650.00000	103.30990	4926.51522	103.30990
50700.00000	103.12786	4924.97047	103.12786
50750.00000	103.16471	4923.83613	103.16471
50800.00000	103.16071	4921.68733	103.16071
50850.00000	103.17744	4920.52977	103.17744
50900.00000	103.09520	4918.20471	103.09520
50950.00000	103.29370	4916.77106	103.29370
51000.00000	103.42782	4914.06948	103.42782
51050.00000	103.41276	4913.48071	103.41276
51100.00000	103.20057	4910.63952	103.20057
51150.00000	103.23629	4908.41783	103.23629
51200.00000	103.12045	4907.15190	103.12045
51250.00000	103.18617	4905.20842	103.18617
51300.00000	103.11900	4902.00190	103.11900
51350.00000	103.17037	4901.30197	103.17037
51400.00000	103.13491	4898.13895	103.13491
51450.00000	102.89745	4897.12885	102.89745
51500.00000	102.94863	4894.82900	102.94863
51550.00000	102.94137	4893.05619	102.94137
51600.00000	102.75390	4890.44119	102.75390
51650.00000	102.62035	4889.00422	102.62035
51700.00000	102.49462	4885.71278	102.49462
51750.00000	102.33965	4884.79483	102.33965
51800.00000	102.29105	4882.66396	102.29105
51850.00000	102.05882	4880.36527	102.05882
51900.00000	101.85306	4878.99824	101.85306
51950.00000	101.57078	4878.17970	101.57078
52000.00000	101.42979	4877.17186	101.42979
52050.00000	101.26337	4875.39056	101.26337
52100.00000	101.28056	4874.73404	101.28056
52150.00000	100.98648	4875.04377	100.98648
52200.00000	100.86538	4872.98850	100.86538
52250.00000	100.63550	4872.17719	100.63550
52300.00000	100.31718	4873.73998	100.31718
52350.00000	100.59029	4872.93080	100.59029
52400.00000	100.56028	4872.03813	100.56028
52450.00000	100.53124	4871.11365	100.53124
52500.00000	100.54463	4871.19431	100.54463
52550.00000	100.47888	4872.66955	100.47888
52600.00000	100.58874	4870.44418	100.58874
52650.00000	100.67475	4869.62859	100.67475
52700.00000	100.80543	4869.89580	100.80543
52750.00000	100.96023	4869.95387	100.96023
52800.00000	100.97691	4868.30325	100.97691
52850.00000	101.09189	4867.98987	101.09189
52900.00000	101.22383	4866.50190	101.22383
52950.00000	101.59824	4865.34777	101.59824
53000.00000	101.50258	4864.19396	101.50258
53050.00000	101.77200	4862.27531	101.77200
53100.00000	102.01454	4861.00734	102.01454
53150.00000	102.16657	4860.76654	102.16657
53200.00000	102.07187	4857.90115	102.07187
53250.00000	102.35032	4858.11698	102.35032
53300.00000	102.58536	4854.67801	102.58536
53350.00000	102.58055	4853.50787	102.58055
53400.00000	102.79836	4851.23988	102.79836
53450.00000	102.93711	4849.45880	102.93711
53500.00000	103.01459	4847.86757	103.01459
53550.00000	103.36605	4845.37666	103.36605
53600.00000	103.27783	4842.64849	103.27783
53650.00000	103.62731	4840.51378	103.62731
53700.00000	103.65909	4838.56707	103.65909
53750.00000	103.81738	4835.74792	103.81738
53800.00000	103.82002	4834.68515	103.82002
53850.00000	104.01589	4831.09745	104.01589
53900.00000	103.95588	4829.75645	103.95588
53950.00000	104.07373	4826.47793	104.07373
54000.00000	104.12898	4824.18519	104.12898
54050.00000	104.18954	4821.19099	104.18954
54100.00000	104.25761	4819.40521	104.25761
54150.00000	104.29208	4817.29842	104.29208
54200.00000	104.07836	4814.65204	104.07836
54250.00000	104.21961	4811.25141	104.21961
54300.00000	104.13496	4809.08426	104.13496
54350.00000	104.15731	4807.46640	104.15731
54400.00000	104.29559	4805.76602	104.29559
54450.00000	104.16149	4803.34962	104.16149
54500.00000	104.14109	4801.29947	104.14109
54550.00000	103.92360	4799.51275	103.92360
54600.00000	104.01108	4798.22524	104.01108
54650.00000	104.05478	4795.67423	104.05478
54700.00000	103.97557	4794.29926	103.97557
54750.00000	103.98998	4792.82233	103.98998
54800.00000	103.96171	4790.72762	103.96171
54850.00000	103.84339	4789.99674	103.84339
54900.00000	104.02419	4788.52624	104.02419
54950.00000	104.05834	4787.52620	104.05834
55000.00000	104.14099	4786.18318	104.14099
55050.00000	104.16851	4785.08718	104.16851
55100.00000	104.24858	4783.21244	104.24858
55150.00000	104.37396	4781.86753	104.37396
55200.00000	104.39282	4780.70297	104.39282
55250.00000	104.57731	4779.79648	104.57731
55300.00000	104.80898	4778.11224	104.80898
55350.00000	104.90925	4777.30581	104.90925
55400.00000	105.08730	4775.08672	105.08730
55450.00000	105.23291	4773.51394	105.23291
55500.00000	105.51710	4771.72870	105.51710
55550.00000	105.73648	4770.12767	105.73648
55600.00000	105.98581	4768.51494	105.98581
55650.00000	106.19593	4766.19476	106.19593
55700.00000	106.40368	4764.57217	106.40368
55750.00000	106.72579	4762.03450	106.72579
55800.00000	106.93750	4759.89594	106.93750
55850.00000	107.26790	4757.26460	107.26790
55900.00000	107.49953	4754.90316	107.49953
55950.00000	107.78413	4752.01443	107.78413
56000.00000	108.05700	4749.16089	108.05700
56050.00000	108.28507	4746.17813	108.28507
56100.00000	108.49089	4742.97519	108.49089
56150.00000	108.76890	4739.80656	108.76890
56200.00000	108.95683	4736.31052	108.95683
56250.00000	109.18846	4732.89084	109.18846
56300.00000	109.39590	4729.05573	109.39590
56350.00000	109.57434	4725.70902	109.57434
56400.00000	109.74956	4722.24062	109.74956
56450.00000	109.86129	4718.06475	109.86129
56500.00000	110.04928	4714.39593	110.04928
56550.00000	110.15097	4710.27743	110.15097
56600.00000	110.22918	4706.36845	110.22918
56650.00000	110.33867	4702.44782	110.33867
56700.00000	110.40681	4698.60464	110.40681
56750.00000	110.46122	4694.60549	110.46122
56800.00000	110.50755	4690.45447	110.50755
56850.00000	110.52811	4686.60202	110.52811
56900.00000	110.54360	4682.51405	110.54360
56950.00000	110.51234	4678.49743	110.51234
57000.00000	110.49425	4674.52065	110.49425
57050.00000	110.41577	4670.55355	110.41577
57100.00000	110.36417	4666.70494	110.36417
57150.00000	110.28695	4662.43760	110.28695
57200.00000	110.14702	4658.87919	110.14702
57250.00000	110.11164	4654.94521	110.11164
57300.00000	109.97197	4651.08719	109.97197
57350.00000	109.80203	4647.78701	109.80203
57400.00000	109.65397	4644.55623	109.65397
57450.00000	109.45146	4640.90847	109.45146
57500.00000	109.28513	4637.60587	109.28513
57550.00000	109.12605	4634.38335	109.12605
57600.00000	108.91784	4631.70202	108.91784
57650.00000	108.73378	4628.44478	108.73378
57700.00000	108.50315	4625.94117	108.50315
57750.00000	108.36875	4623.42367	108.36875
57800.00000	108.11282	4620.86338	108.11282
57850.00000	108.00697	4618.81888	108.00697
57900.00000	107.79226	4616.39126	107.79226
57950.00000	107.65479	4614.70860	107.65479
58000.00000	107.52811	4612.65110	107.52811
58050.00000	107.45950	4611.12108	107.45950
58100.00000	107.39302	4609.11432	107.39302
58150.00000	107.34467	4607.48786	107.34467
58200.00000	107.37635	4605.50815	107.37635
58250.00000	107.40948	4603.26837	107.40948
58300.00000	107.39501	4600.81426	107.39501
58350.00000	107.43802	4598.37215	107.43802
58400.00000	107.46198	4595.96737	107.46198
58450.00000	107.45349	4593.33829	107.45349
58500.00000	107.42473	4590.45269	107.42473
58550.00000	107.38388	4587.86776	107.38388
58600.00000	107.36180	4585.20790	107.36180
58650.00000	107.29811	4582.63176	107.29811
58700.00000	107.21561	4580.02243	107.21561
58750.00000	107.18458	4577.34797	107.18458
58800.00000	107.13283	4574.82808	107.13283
58850.00000	107.10331	4572.34846	107.10331
58900.00000	107.03411	4569.72696	107.03411
58950.00000	107.00924	4567.06106	107.00924
59000.00000	106.93144	4564.37750	106.93144
59050.00000	106.85674	4561.85735	106.85674
59100.00000	106.79149	4559.04156	106.79149
59150.00000	106.70895	4556.61102	106.70895
59200.00000	106.63255	4554.09816	106.63255
59250.00000	106.50054	4551.61463	106.50054
59300.00000	106.43167	4549.33693	106.43167
59350.00000	106.33699	4546.82105	106.33699
59400.00000	106.25420	4544.68218	106.25420
59450.00000	106.14385	4542.63313	106.14385
59500.00000	106.07070	4540.62492	106.07070
59550.00000	106.03064	4538.84919	106.03064
59600.00000	105.99523	4536.70878	105.99523
59650.00000	105.98674	4534.44632	105.98674
59700.00000	105.98091	4532.64914	105.98091
59750.00000	106.02462	4530.48229	106.02462
59800.00000	106.02704	4528.38898	106.02704
59850.00000	106.07893	4526.05904	106.07893
59900.00000	106.11739	4523.43774	106.11739
59950.00000	106.15109	4521.15588	106.15109
60000.00000	106.23771	4518.28847	106.23771
60050.00000	106.27943	4515.21006	106.27943
60100.00000	106.29172	4512.17068	106.29172
60150.00000	106.28018	4508.90832	106.28018
60200.00000	106.26317	4505.42458	106.26317
60250.00000	106.21107	4501.85852	106.21107
60300.00000	106.09812	4498.49785	106.09812
60350.00000	105.91091	4495.32838	105.91091
60400.00000	105.75002	4492.08043	105.75002
60450.00000	105.49112	4489.19062	105.49112
60500.00000	105.26825	4486.75058	105.26825
60550.00000	105.01161	4484.42238	105.01161
60600.00000	104.80287	4482.68889	104.80287
60650.00000	104.61675	4481.08878	104.61675
60700.00000	104.41325	4479.39662	104.41325
60750.00000	104.28622	4478.02305	104.28622
60800.00000	104.18384	4476.79051	104.18384
60850.00000	104.13350	4475.20805	104.13350
60900.00000	104.12358	4473.90234	104.12358
60950.00000	104.08615	4472.43972	104.08615
61000.00000	104.08099	4470.76233	104.08099
61050.00000	104.10372	4469.09365	104.10372
61100.00000	104.07001	4467.30016	104.07001
61150.00000	104.12028	4465.51891	104.12028
61200.00000	104.13389	4463.70468	104.13389
61250.00000	104.11770	4461.70158	104.11770
61300.00000	104.19756	4459.93405	104.19756
61350.00000	104.18352	4457.72651	104.18352
61400.00000	104.23779	4455.85007	104.23779
61450.00000	104.27991	4453.67797	104.27991
61500.00000	104.29375	4451.94195	104.29375
61550.00000	104.39161	4449.77110	104.39161
61600.00000	104.43181	4447.67708	104.43181
61650.00000	104.51574	4445.77146	104.51574
61700.00000	104.57988	4443.19998	104.57988
61750.00000	104.67084	4440.99035	104.67084
61800.00000	104.74528	4438.62473	104.74528
61850.00000	104.83509	4436.21324	104.83509
61900.00000	104.89874	4433.55748	104.89874
61950.00000	105.02892	4430.92095	105.02892
62000.00000	105.06925	4428.08119	105.06925
62050.00000	105.13874	4425.11510	105.13874
62100.00000	105.22931	4422.26048	105.22931
62150.00000	105.27046	4419.15517	105.27046
62200.00000	105.26352	4416.21834	105.26352
62250.00000	105.32382	4413.10190	105.32382
62300.00000	105.34349	4410.08455	105.34349
62350.00000	105.36898	4406.98451	105.36898
62400.00000	105.37181	4403.83353	105.37181
62450.00000	105.36227	4400.57606	105.36227
62500.00000	105.31585	4397.52899	105.31585
62550.00000	105.27721	4394.19552	105.27721
62600.00000	105.19050	4390.80956	105.19050
62650.00000	105.16270	4387.57999	105.16270
62700.00000	105.08937	4384.32131	105.08937
62750.00000	104.97593	4381.55382	104.97593
62800.00000	104.85343	4378.42575	104.85343
62850.00000	104.78287	4375.21383	104.78287
62900.00000	104.61830	4372.65751	104.61830
62950.00000	104.46459	4369.52577	104.46459
63000.00000	104.38882	4367.19829	104.38882
63050.00000	104.22524	4364.44820	104.22524
63100.00000	104.04220	4362.03424	104.04220
63150.00000	103.92854	4359.70575	103.92854
63200.00000	103.77275	4357.75666	103.77275
63250.00000	103.67332	4355.29616	103.67332
63300.00000	103.58521	4353.56628	103.58521
63350.00000	103.47126	4351.57706	103.47126
63400.00000	103.38567	4350.09212	103.38567
63450.00000	103.36969	4348.33848	103.36969
63500.00000	103.30853	4346.61950	103.30853
63550.00000	103.30431	4344.93828	103.30431
63600.00000	103.33680	4343.18879	103.33680
63650.00000	103.40146	4341.30202	103.40146
63700.00000	103.44697	4339.51088	103.44697
63750.00000	103.58008	4337.49013	103.58008
63800.00000	103.68241	4335.42461	103.68241
63850.00000	103.76675	4333.14716	103.76675
63900.00000	103.95109	4330.67787	103.95109
63950.00000	104.13866	4327.71162	104.13866
64000.00000	104.22734	4325.22831	104.22734
64050.00000	104.44827	4322.07579	104.44827
64100.00000	104.58756	4319.01048	104.58756
64150.00000	104.71249	4315.50530	104.71249
64200.00000	104.83448	4311.73727	104.83448
64250.00000	104.94499	4307.78982	104.94499
64300.00000	105.05839	4304.16435	105.05839
64350.00000	105.10921	4299.75464	105.10921
64400.00000	105.13922	4295.66116	105.13922
64450.00000	105.12809	4291.66001	105.12809
64500.00000	105.12295	4287.12639	105.12295
64550.00000	105.01980	4282.38261	105.01980
64600.00000	104.93145	4277.88618	104.93145
64650.00000	104.77454	4273.32959	104.77454
64700.00000	104.62452	4268.79661	104.62452
64750.00000	104.39122	4264.67991	104.39122
64800.00000	104.03928	4260.60432	104.03928
64850.00000	103.78282	4257.21825	103.78282
64900.00000	103.58604	4254.54634	103.58604
64950.00000	103.29773	4251.27923	103.29773
65000.00000	103.15338	4247.87575	103.15338
65050.00000	103.06254	4245.23970	103.06254
65100.00000	102.98385	4241.10988	102.98385
65150.00000	102.78670	4237.34242	102.78670
65200.00000	102.62920	4232.90557	102.62920
65250.00000	102.42178	4227.87326	102.42178
65300.00000	102.05287	4222.83099	102.05287
65350.00000	101.60319	4218.04845	101.60319
65400.00000	101.02895	4213.16961	101.02895
65450.00000	100.31761	4208.47749	100.31761
65500.00000	99.42973	4205.65896	99.42973
65550.00000	98.47869	4203.40238	98.47869
65600.00000	97.47788	4202.62767	97.47788
65650.00000	96.74734	4204.07790	96.74734
65700.00000	96.02285	4206.12951	96.02285
65750.00000	95.49584	4209.77452	95.49584
65800.00000	95.39490	4213.43378	95.39490
65850.00000	95.36123	4216.00504	95.36123
65900.00000	95.55734	4217.32683	95.55734
65950.00000	95.77845	4218.51033	95.77845
66000.00000	96.08652	4218.52269	96.08652
66050.00000	96.34390	4218.42164	96.34390
66100.00000	96.65662	4218.18053	96.65662
66150.00000	97.02122	4216.69320	97.02122
66200.00000	97.23407	4215.30151	97.23407
66250.00000	97.67741	4212.93766	97.67741
66300.00000	97.97041	4210.05601	97.97041
66350.00000	98.18146	4206.97609	98.18146
66400.00000	98.51355	4203.20644	98.51355
66450.00000	98.56554	4198.68338	98.56554
66500.00000	98.67190	4194.08137	98.67190
66550.00000	98.58330	4190.34289	98.58330
66600.00000	98.44296	4186.33056	98.44296
66650.00000	98.32955	4182.23759	98.32955
66700.00000	98.13851	4179.31149	98.13851
66750.00000	97.79502	4175.82531	97.79502
66800.00000	97.53209	4173.11742	97.53209
66850.00000	97.40205	4170.54514	97.40205
66900.00000	97.17075	4168.67312	97.17075
66950.00000	97.01602	4166.39273	97.01602
67000.00000	96.85357	4163.89238	96.85357
67050.00000	96.72431	4161.90982	96.72431
67100.00000	96.50960	4160.00362	96.50960
67150.00000	96.42488	4157.88809	96.42488
67200.00000	96.24340	4155.88968	96.24340
67250.00000	96.04016	4153.56636	96.04016
67300.00000	96.12622	4152.67894	96.12622
67350.00000	95.96527	4150.03000	95.96527
67400.00000	95.79108	4147.97967	95.79108
67450.00000	95.64104	4146.11540	95.64104
67500.00000	95.61297	4144.13381	95.61297
67550.00000	95.46849	4142.05197	95.46849
67600.00000	95.48967	4140.62259	95.48967
67650.00000	95.50202	4137.99525	95.50202
67700.00000	95.35615	4135.65118	95.35615
67750.00000	95.27562	4133.47764	95.27562
67800.00000	95.14537	4130.75552	95.14537
67850.00000	95.06718	4128.04979	95.06718
67900.00000	94.84366	4125.73799	94.84366
67950.00000	94.67331	4123.80143	94.67331
68000.00000	94.50344	4121.54047	94.50344
68050.00000	94.25142	4119.74991	94.25142
68100.00000	94.04586	4118.38574	94.04586
68150.00000	93.84415	4116.47639	93.84415
68200.00000	93.73599	4115.12117	93.73599
68250.00000	93.63941	4114.72996	93.63941
68300.00000	93.46852	4113.52384	93.46852
68350.00000	93.37447	4112.97650	93.37447
68400.00000	93.32695	4112.81291	93.32695
68450.00000	93.46973	4111.75598	93.46973
68500.00000	93.57460	4110.72022	93.57460
68550.00000	93.54633	4110.31325	93.54633
68600.00000	93.74199	4109.20277	93.74199
68650.00000	94.00310	4107.77490	94.00310
68700.00000	94.09600	4105.94348	94.09600
68750.00000	94.40539	4104.25113	94.40539
68800.00000	94.56006	4101.96201	94.56006
68850.00000	94.76553	4099.93463	94.76553
68900.00000	95.07827	4096.95155	95.07827
68950.00000	95.32822	4094.30444	95.32822
69000.00000	95.59894	4090.54009	95.59894
69050.00000	95.74736	4086.54573	95.74736
69100.00000	95.91915	4082.93762	95.91915
69150.00000	96.08029	4078.51145	96.08029
69200.00000	96.16788	4074.35258	96.16788
69250.00000	96.18668	4070.46335	96.18668
69300.00000	96.18024	4065.44638	96.18024
69350.00000	96.17840	4060.81111	96.17840
69400.00000	96.08668	4056.45994	96.08668
69450.00000	96.08097	4051.66778	96.08097
69500.00000	96.00096	4047.23055	96.00096
69550.00000	95.84923	4041.61952	95.84923
69600.00000	95.65232	4037.06826	95.65232
69650.00000	95.47915	4032.38965	95.47915
69700.00000	95.09870	4026.63282	95.09870
69750.00000	94.70426	4021.39117	94.70426
69800.00000	94.21893	4016.42945	94.21893
69850.00000	93.71535	4011.28890	93.71535
69900.00000	93.01327	4006.62703	93.01327
69950.00000	92.29478	4003.55961	92.29478
70000.00000	91.40734	3999.46493	91.40734
70050.00000	90.53962	3997.47490	90.53962
70100.00000	89.47977	3996.19671	89.47977
70150.00000	88.62000	3995.81811	88.62000
70200.00000	87.64840	3996.23476	87.64840
70250.00000	86.59975	4000.19027	86.59975
70300.00000	85.94715	4003.84533	85.94715
70350.00000	85.68625	4009.00098	85.68625
70400.00000	85.29546	4013.78230	85.29546
70450.00000	85.42017	4018.73008	85.42017
70500.00000	86.00063	4021.87535	86.00063
70550.00000	86.40141	4024.82473	86.40141
70600.00000	86.78055	4026.36338	86.78055
70650.00000	87.58651	4027.83216	87.58651
70700.00000	87.89392	4026.96720	87.89392
70750.00000	88.44174	4026.26530	88.44174
70800.00000	89.00721	4025.06643	89.00721
70850.00000	89.34689	4023.65182	89.34689
70900.00000	89.81780	4020.95937	89.81780
70950.00000	90.31997	4019.54360	90.31997
71000.00000	90.57952	4017.34144	90.57952
71050.00000	91.22844	4015.05682	91.22844
71100.00000	91.61966	4012.01245	91.61966
71150.00000	92.13327	4008.84766	92.13327
71200.00000	92.60584	4005.13378	92.60584
71250.00000	93.03677	4001.44347	93.03677
71300.00000	93.46406	3996.46717	93.46406
71350.00000	93.96279	3991.40511	93.96279
71400.00000	94.16279	3985.10499	94.16279
71450.00000	94.48506	3978.89493	94.48506
71500.00000	94.48423	3973.62509	94.48423
71550.00000	94.55528	3967.84060	94.55528
71600.00000	94.61876	3961.16625	94.61876
71650.00000	94.45028	3955.76708	94.45028
71700.00000	94.38877	3948.35075	94.38877
71750.00000	94.42381	3943.55273	94.42381
71800.00000	94.09362	3937.50314	94.09362
71850.00000	93.81726	3930.78363	93.81726
71900.00000	93.46406	3926.50381	93.46406
71950.00000	93.08740	3918.57093	93.08740
72000.00000	92.67675	3915.62518	92.67675
72050.00000	92.13805	3913.47511	92.13805
72100.00000	91.64416	3909.57941	91.64416
72150.00000	91.77069	3905.21138	91.77069
72200.00000	91.62825	3902.18736	91.62825
72250.00000	91.44203	3896.53874	91.44203
72300.00000	91.48933	3893.44311	91.48933
72350.00000	91.00647	3887.37839	91.00647
72400.00000	91.10988	3879.74965	91.10988
72450.00000	90.69094	3874.89162	90.69094
72500.00000	90.44473	3867.99104	90.44473
72550.00000	90.29320	3860.47784	90.29320
72600.00000	89.58330	3855.40768	89.58330
72650.00000	88.82124	3846.32488	88.82124
72700.00000	88.46657	3837.83905	88.46657
72750.00000	87.44303	3831.60469	87.44303
72800.00000	86.62298	3819.13776	86.62298
72850.00000	85.62399	3811.10864	85.62399
72900.00000	83.84266	3803.63867	83.84266
72950.00000	83.04117	3791.66079	83.04117
73000.00000	80.59743	3783.80465	80.59743
73050.00000	77.90236	3766.05102	77.90236
73100.00000	75.21236	3760.94425	75.21236
73150.00000	71.48085	3722.84219	71.48085
73200.00000	68.59063	3680.48209	68.59063
73250.00000	69.92668	3622.62974	69.92668
73300.00000	72.79534	3594.73045	72.79534
73350.00000	74.05867	3581.96997	74.05867
73400.00000	75.89426	3570.52187	75.89426
73450.00000	77.57349	3561.19011	77.57349
73500.00000	77.48372	3550.48613	77.48372
73550.00000	78.11531	3543.15494	78.11531
73600.00000	78.73934	3543.88842	78.73934
73650.00000	79.32077	3534.99777	79.32077
73700.00000	80.10790	3532.23457	80.10790
73750.00000	80.09794	3529.20742	80.09794
73800.00000	80.13346	3524.91479	80.13346
73850.00000	81.10732	3519.57805	81.10732
73900.00000	80.61637	3509.56556	80.61637
73950.00000	81.43739	3503.05762	81.43739
74000.00000	81.43317	3499.68495	81.43317
74050.00000	82.40575	3485.24085	82.40575
74100.00000	82.64848	3479.93044	82.64848
74150.00000	82.06965	3468.77613	82.06965
74200.00000	82.50430	3458.45851	82.50430
74250.00000	82.34467	3444.66906	82.34467
74300.00000	82.63296	3416.88511	82.63296
74350.00000	82.57655	3399.38983	82.57655
74400.00000	79.56333	3343.21930	79.56333
74450.00000	76.66308	3167.09879	76.66308
74500.00000	81.48143	3095.12144	81.48143
74550.00000	80.10861	3051.47219	80.10861
74600.00000	80.19264	3028.32103	80.19264
74650.00000	80.77174	3007.83971	80.77174
74700.00000	80.41025	2991.34332	80.41025
74750.00000	81.68858	2976.58010	81.68858
74800.00000	82.08737	2957.92134	82.08737
74850.00000	82.80726	2943.14051	82.80726
74900.00000	82.97346	2933.13602	82.97346
74950.00000	83.78987	2919.83458	83.78987
75000.00000	84.66175	2908.08367	84.66175
75050.00000	84.79304	2898.86142	84.79304
75100.00000	85.19801	2889.86527	85.19801
75150.00000	85.29926	2884.19179	85.29926
75200.00000	86.05414	2871.63908	86.05414
75250.00000	86.05147	2864.29000	86.05147
75300.00000	86.19769	2854.67163	86.19769
75350.00000	86.57202	2851.70470	86.57202
75400.00000	86.50078	2846.21370	86.50078
75450.00000	86.69335	2836.40574	86.69335
75500.00000	86.85333	2833.79050	86.85333
75550.00000	86.82537	2826.89249	86.82537
75600.00000	87.31362	2823.58790	87.31362
75650.00000	87.02258	2818.04611	87.02258
75700.00000	86.97867	2809.36446	86.97867
75750.00000	87.69673	2807.96270	87.69673
75800.00000	87.24856	2804.35945	87.24856
75850.00000	87.80210	2799.43448	87.80210
75900.00000	87.20846	2796.23332	87.20846
75950.00000	87.19220	2790.36535	87.19220
76000.00000	87.77476	2788.01019	87.77476
76050.00000	87.31901	2784.67059	87.31901
76100.00000	87.78925	2779.67967	87.78925
76150.00000	87.60708	2778.12955	87.60708
76200.00000	87.56694	2771.63230	87.56694
76250.00000	87.82616	2769.71378	87.82616
76300.00000	87.61278	2767.70320	87.61278
76350.00000	88.01926	2761.60443	88.01926
76400.00000	88.17021	2761.09893	88.17021
76450.00000	87.33189	2755.62325	87.33189
76500.00000	88.23262	2752.69816	88.23262
76550.00000	88.10451	2749.96879	88.10451
76600.00000	87.91881	2745.50788	87.91881
76650.00000	88.33666	2743.98434	88.33666
76700.00000	87.55482	2742.37453	87.55482
76750.00000	88.34103	2734.52509	88.34103
76800.00000	88.39027	2734.73760	88.39027
76850.00000	87.74203	2727.46300	87.74203
76900.00000	88.80685	2724.97287	88.80685
76950.00000	88.07020	2726.22325	88.07020
77000.00000	88.10253	2716.34279	88.10253
77050.00000	88.63159	2716.28049	88.63159
77100.00000	87.90384	2711.31336	87.90384
77150.00000	88.73294	2705.88568	88.73294
77200.00000	88.58544	2706.41205	88.58544
77250.00000	87.98768	2697.16521	87.98768
77300.00000	88.53202	2697.60278	88.53202
77350.00000	87.11923	2697.31626	87.11923
77400.00000	88.24591	2687.43071	88.24591
77450.00000	88.13210	2689.67946	88.13210
77500.00000	86.71190	2681.63781	86.71190
77550.00000	88.12818	2678.63789	88.12818
77600.00000	86.80947	2682.85334	86.80947
77650.00000	86.59056	2670.29953	86.59056
77700.00000	87.91665	2675.06561	87.91665
77750.00000	86.18386	2669.72199	86.18386
77800.00000	86.90209	2660.55284	86.90209
77850.00000	86.65084	2670.03467	86.65084
77900.00000	85.68703	2658.09999	85.68703
77950.00000	86.98703	2656.33478	86.98703
78000.00000	85.67241	2657.68594	85.67241
78050.00000	85.75872	2649.51648	85.75872
78100.00000	86.40775	2653.91008	86.40775
78150.00000	85.12603	2648.44772	85.12603
78200.00000	86.23937	2640.28564	86.23937
78250.00000	85.36193	2648.27500	85.36193
78300.00000	84.69845	2637.16180	84.69845
78350.00000	85.94589	2636.22795	85.94589
78400.00000	84.49762	2639.38862	84.49762
78450.00000	85.12739	2626.98517	85.12739
78500.00000	85.28763	2633.40430	85.28763
78550.00000	83.94930	2627.02547	83.94930
78600.00000	85.41168	2623.09556	85.41168
78650.00000	84.48104	2625.35227	84.48104
78700.00000	84.12094	2614.19154	84.12094
78750.00000	84.90626	2621.66973	84.90626
78800.00000	83.31985	2617.40041	83.31985
78850.00000	84.29847	2609.48938	84.29847
78900.00000	83.73180	2614.29470	83.73180
78950.00000	83.54750	2604.97016	83.54750
79000.00000	84.29338	2607.73340	84.29338
79050.00000	83.16183	2608.02203	83.16183
79100.00000	83.39615	2598.91316	83.39615
79150.00000	83.88706	2602.92011	83.88706
79200.00000	82.89192	2597.58055	82.89192
79250.00000	83.38295	2596.05007	83.38295
79300.00000	82.72528	2597.28302	82.72528
79350.00000	82.84166	2590.60390	82.84166
79400.00000	83.30613	2592.13170	83.30613
79450.00000	82.13906	2586.45230	82.13906
79500.00000	82.99805	2584.63717	82.99805
79550.00000	82.58424	2587.99466	82.58424
79600.00000	82.84440	2579.26043	82.84440
79650.00000	82.79628	2580.87516	82.79628
79700.00000	81.90482	2577.29759	81.90482
79750.00000	82.57129	2573.88000	82.57129
79800.00000	82.40042	2573.10781	82.40042
79850.00000	82.09183	2569.40997	82.09183
79900.00000	82.44139	2568.83120	82.44139
79950.00000	81.63769	2563.63278	81.63769
80000.00000	81.87788	2562.43443	81.87788
80050.00000	81.73388	2562.58573	81.73388
80100.00000	81.32757	2554.46906	81.32757
80150.00000	81.38858	2554.86672	81.38858
80200.00000	81.16175	2553.29562	81.16175
80250.00000	80.87801	2547.76031	80.87801
80300.00000	80.20989	2550.28282	80.20989
80350.00000	79.77285	2542.65725	79.77285
80400.00000	79.55850	2544.34413	79.55850
80450.00000	78.91025	2546.06134	78.91025
80500.00000	78.79102	2543.28520	78.79102
80550.00000	78.52600	2545.20938	78.52600
80600.00000	78.42004	2545.00215	78.42004
80650.00000	78.83986	2547.92703	78.83986
80700.00000	78.28071	2547.37021	78.28071
80750.00000	78.84883	2542.64509	78.84883
80800.00000	78.37828	2545.29319	78.37828
80850.00000	78.42473	2542.59193	78.42473
80900.00000	78.86854	2546.06332	78.86854
80950.00000	78.44536	2544.90648	78.44536
81000.00000	78.86161	2542.22300	78.86161
81050.00000	79.15912	2541.41686	79.15912
81100.00000	78.89499	2539.41781	78.89499
81150.00000	79.25970	2539.08287	79.25970
81200.00000	79.02827	2535.86916	79.02827
81250.00000	79.05373	2532.03508	79.05373
81300.00000	78.98966	2531.96290	78.98966
81350.00000	78.46993	2527.23356	78.46993
81400.00000	78.26372	2529.96394	78.26372
81450.00000	77.67342	2529.58619	77.67342
81500.00000	77.79116	2531.00361	77.79116
81550.00000	77.78806	2533.15345	77.78806
81600.00000	77.70430	2531.80343	77.70430
81650.00000	77.66500	2533.33102	77.66500
81700.00000	77.84810	2535.94934	77.84810
81750.00000	78.36136	2537.08051	78.36136
81800.00000	78.53322	2537.19968	78.53322
81850.00000	78.81539	2536.26467	78.81539
81900.00000	79.33236	2535.59182	79.33236
81950.00000	79.49290	2531.56290	79.49290
82000.00000	79.85411	2531.51998	79.85411
82050.00000	80.22354	2530.07694	80.22354
82100.00000	80.51391	2527.69000	80.51391
82150.00000	80.68503	2526.48093	80.68503
82200.00000	80.95480	2525.15936	80.95480
82250.00000	80.96188	2522.62624	80.96188
82300.00000	80.93994	2520.41231	80.93994
82350.00000	81.11173	2518.61235	81.11173
82400.00000	80.80118	2518.94025	80.80118
82450.00000	80.69909	2517.04087	80.69909
82500.00000	80.71695	2518.75976	80.71695
82550.00000	80.39919	2519.47208	80.39919
82600.00000	80.55039	2522.32107	80.55039
82650.00000	80.94202	2528.04247	80.94202
82700.00000	81.76846	2532.75515	81.76846
82750.00000	83.30353	2533.45221	83.30353
82800.00000	84.79932	2531.85424	84.79932
82850.00000	85.97866	2526.95359	85.97866
82900.00000	86.97251	2520.34489	86.97251
82950.00000	87.83929	2513.96332	87.83929
83000.00000	88.48315	2507.89000	88.48315
83050.00000	88.91078	2502.07396	88.91078
83100.00000	89.62507	2497.10478	89.62507
83150.00000	90.07147	2492.58730	90.07147
83200.00000	90.56732	2488.41888	90.56732
83250.00000	90.98562	2483.54657	90.98562
83300.00000	91.44004	2479.12337	91.44004
83350.00000	91.70753	2475.00553	91.70753
83400.00000	92.11430	2469.70326	92.11430
83450.00000	92.48113	2465.24616	92.48113
83500.00000	92.85601	2461.00545	92.85601
83550.00000	93.15580	2455.21212	93.15580
83600.00000	93.49710	2450.70146	93.49710
83650.00000	93.79125	2445.12071	93.79125
83700.00000	94.00451	2439.98736	94.00451
83750.00000	94.24501	2433.73552	94.24501
83800.00000	94.46490	2427.54965	94.46490
83850.00000	94.61157	2421.96452	94.61157
83900.00000	94.75398	2415.63995	94.75398
83950.00000	94.88643	2408.92220	94.88643
84000.00000	94.91079	2401.57366	94.91079
84050.00000	94.79071	2394.57950	94.79071
84100.00000	94.64372	2387.69537	94.64372
84150.00000	94.41399	2380.84781	94.41399
84200.00000	94.14749	2374.26778	94.14749
84250.00000	93.71151	2368.16273	93.71151
84300.00000	93.22649	2361.95006	93.22649
84350.00000	92.65069	2357.00185	92.65069
84400.00000	92.04583	2352.56128	92.04583
84450.00000	91.39692	2348.69625	91.39692
84500.00000	90.85550	2347.84525	90.85550
84550.00000	90.16328	2346.64964	90.16328
84600.00000	90.00230	2347.00065	90.00230
84650.00000	90.00027	2346.91511	90.00027
84700.00000	90.21679	2346.43970	90.21679
84750.00000	90.51557	2343.42250	90.51557
84800.00000	90.84102	2340.35116	90.84102
84850.00000	91.15677	2336.01407	91.15677
84900.00000	91.30159	2331.67217	91.30159
84950.00000	91.54634	2326.38298	91.54634
85000.00000	91.56069	2320.68482	91.56069
85050.00000	91.64385	2314.18385	91.64385
85100.00000	91.50101	2308.83296	91.50101
85150.00000	91.29765	2302.41386	91.29765
85200.00000	91.15146	2297.37056	91.15146
85250.00000	91.29440	2290.98761	91.29440
85300.00000	90.53634	2286.36279	90.53634
85350.00000	90.19330	2281.63670	90.19330
85400.00000	89.88330	2275.45650	89.88330
85450.00000	89.49240	2271.17252	89.49240
85500.00000	88.99449	2265.20932	88.99449
85550.00000	88.55493	2261.24411	88.55493
85600.00000	88.00331	2257.03984	88.00331
85650.00000	87.66162	2252.70833	87.66162
85700.00000	87.10480	2249.24505	87.10480
85750.00000	86.55857	2244.93362	86.55857
85800.00000	86.11573	2242.97768	86.11573
85850.00000	85.54305	2239.01691	85.54305
85900.00000	85.13570	2234.67867	85.13570
85950.00000	84.48062	2231.83913	84.48062
86000.00000	84.17375	2230.66176	84.17375
86050.00000	83.43866	2226.91906	83.43866
86100.00000	83.25050	2226.57745	83.25050
86150.00000	82.62734	2223.11430	82.62734
86200.00000	82.54479	2220.65302	82.54479
86250.00000	82.08395	2219.99706	82.08395
86300.00000	81.30818	2215.54489	81.30818
86350.00000	80.94871	2214.47245	80.94871
86400.00000	80.03480	2209.47733	80.03480
86450.00000	79.13032	2212.48132	79.13032
86500.00000	78.93938	2212.31643	78.93938
86550.00000	78.76102	2211.30712	78.76102
86600.00000	78.68320	2207.97281	78.68320
86650.00000	77.94481	2210.11302	77.94481
86700.00000	77.85588	2208.23499	77.85588
86750.00000	77.82224	2208.19938	77.82224
86800.00000	77.00191	2205.50779	77.00191
86850.00000	76.89957	2206.40570	76.89957
86900.00000	76.91385	2204.15274	76.91385
86950.00000	76.70922	2205.41031	76.70922
87000.00000	76.69253	2203.86198	76.69253
87050.00000	76.54334	2198.49301	76.54334
87100.00000	75.72192	2198.31696	75.72192
87150.00000	75.84264	2196.56182	75.84264
87200.00000	75.41715	2195.30119	75.41715
87250.00000	74.83062	2198.75366	74.83062
87300.00000	74.30895	2197.31303	74.30895
87350.00000	74.60395	2194.65640	74.60395
87400.00000	74.25964	2191.74981	74.25964
87450.00000	73.79049	2190.75715	73.79049
87500.00000	73.39348	2193.07871	73.39348
87550.00000	72.76962	2192.32714	72.76962
87600.00000	72.75864	2190.98190	72.75864
87650.00000	72.50383	2191.41267	72.50383
87700.00000	72.21379	2193.27790	72.21379
87750.00000	71.65454	2193.07878	71.65454
87800.00000	71.91933	2194.39845	71.91933
87850.00000	71.80157	2191.57190	71.80157
87900.00000	71.46724	2192.40703	71.46724
87950.00000	71.30023	2191.51399	71.30023
88000.00000	70.61534	2195.90985	70.61534
88050.00000	70.71603	2196.33754	70.71603
88100.00000	70.96955	2202.24299	70.96955
88150.00000	71.45051	2199.34725	71.45051
88200.00000	70.67956	2201.60480	70.67956
88250.00000	71.49833	2202.74070	71.49833
88300.00000	71.40295	2197.58589	71.40295
88350.00000	71.45540	2196.67174	71.45540
88400.00000	71.05387	2197.89917	71.05387
88450.00000	70.98028	2199.95769	70.98028
88500.00000	71.33025	2195.06807	71.33025
88550.00000	71.44331	2200.48594	71.44331
88600.00000	71.86329	2195.71807	71.86329
88650.00000	72.32573	2202.96265	72.32573
88700.00000	72.52445	2198.70392	72.52445
88750.00000	73.11780	2197.23274	73.11780
88800.00000	73.23459	2193.67204	73.23459
88850.00000	73.71335	2192.84384	73.71335
88900.00000	73.65303	2194.00345	73.65303
88950.00000	73.53516	2192.91123	73.53516
89000.00000	74.13479	2195.35060	74.13479
89050.00000	73.68726	2191.05733	73.68726
89100.00000	75.08140	2187.24217	75.08140
89150.00000	74.86932	2186.11300	74.86932
89200.00000	75.45806	2183.37198	75.45806
89250.00000	75.59011	2183.17048	75.59011
89300.00000	75.45540	2179.80655	75.45540
89350.00000	75.67368	2175.90420	75.67368
89400.00000	75.95913	2177.87037	75.95913
89450.00000	76.25243	2173.90070	76.25243
89500.00000	76.87294	2168.84963	76.87294
89550.00000	76.47311	2167.24812	76.47311
89600.00000	76.67033	2163.31271	76.67033
89650.00000	77.19012	2161.40220	77.19012
89700.00000	77.02114	2160.65940	77.02114
89750.00000	77.15024	2154.67110	77.15024
89800.00000	76.98604	2155.78812	76.98604
89850.00000	77.06459	2151.05111	77.06459
89900.00000	77.15817	2148.47924	77.15817
89950.00000	77.36173	2148.89288	77.36173
90000.00000	77.23757	2156.77468	77.23757
90050.00000	77.95308	2161.74935	77.95308
90100.00000	80.51725	2157.38363	80.51725
90150.00000	81.60347	2157.44747	81.60347
90200.00000	83.83835	2148.96321	83.83835
90250.00000	85.19019	2122.77257	85.19019
90300.00000	85.08940	2100.80423	85.08940
90350.00000	83.15673	2088.31622	83.15673
90400.00000	82.11767	2084.55693	82.11767
90450.00000	80.95277	2078.35742	80.95277
90500.00000	79.79783	2073.31435	79.79783
90550.00000	78.46079	2071.19683	78.46079
90600.00000	77.58929	2067.67402	77.58929
90650.00000	77.45482	2063.58307	77.45482
90700.00000	76.50523	2063.53769	76.50523
90750.00000	76.01438	2067.66190	76.01438
90800.00000	75.29872	2062.86002	75.29872
90850.00000	75.02606	2067.39708	75.02606
90900.00000	74.43462	2068.25164	74.43462
90950.00000	74.16244	2070.60394	74.16244
91000.00000	74.20147	2070.31154	74.20147
91050.00000	74.61504	2072.99492	74.61504
91100.00000	74.51626	2069.75168	74.51626
91150.00000	74.33044	2071.64770	74.33044
91200.00000	74.35333	2071.53993	74.35333
91250.00000	75.10718	2075.58204	75.10718
91300.00000	74.86051	2075.48163	74.86051
91350.00000	76.00305	2072.34882	76.00305
91400.00000	76.13568	2068.81591	76.13568
91450.00000	76.25304	2068.78403	76.25304
91500.00000	76.90427	2066.20150	76.90427
91550.00000	77.18237	2065.75585	77.18237
91600.00000	77.67002	2061.08226	77.67002
91650.00000	78.03372	2058.38651	78.03372
91700.00000	78.32391	2056.40650	78.32391
91750.00000	78.53554	2052.73507	78.53554
91800.00000	78.86173	2049.62845	78.86173
91850.00000	78.92877	2043.74476	78.92877
91900.00000	79.25726	2043.50537	79.25726
91950.00000	79.11358	2038.89786	79.11358
92000.00000	79.64216	2036.05181	79.64216
92050.00000	79.57966	2031.65661	79.57966
92100.00000	79.98912	2027.72398	79.98912
92150.00000	80.06644	2024.95150	80.06644
92200.00000	79.76952	2017.24257	79.76952
92250.00000	80.29582	2015.99842	80.29582
92300.00000	80.42915	2009.81674	80.42915
92350.00000	80.59198	2005.25139	80.59198
92400.00000	80.51562	2002.74373	80.51562
92450.00000	80.28933	1997.42812	80.28933
92500.00000	80.80065	1993.11787	80.80065
92550.00000	80.48219	1988.89663	80.48219
92600.00000	80.76817	1986.04270	80.76817
92650.00000	80.53817	1981.78628	80.53817
92700.00000	80.22432	1979.16877	80.22432
92750.00000	80.39205	1973.87793	80.39205
92800.00000	80.62471	1970.51427	80.62471
92850.00000	80.37870	1965.08875	80.37870
92900.00000	80.13736	1961.56523	80.13736
92950.00000	80.17519	1958.85846	80.17519
93000.00000	80.22133	1953.51177	80.22133
93050.00000	80.13504	1950.98287	80.13504
93100.00000	80.00156	1946.66834	80.00156
93150.00000	80.14931	1940.20378	80.14931
93200.00000	80.14911	1934.83579	80.14911
93250.00000	79.96516	1931.32826	79.96516
93300.00000	79.75491	1924.28150	79.75491
93350.00000	79.75208	1921.99281	79.75208
93400.00000	79.43264	1918.37805	79.43264
93450.00000	79.44140	1913.53658	79.44140
93500.00000	79.30190	1904.27659	79.30190
93550.00000	79.10747	1899.95154	79.10747
93600.00000	78.78731	1895.34881	78.78731
93650.00000	78.59077	1889.77863	78.59077
93700.00000	78.35346	1884.95203	78.35346
93750.00000	78.36419	1884.38552	78.36419
93800.00000	77.10347	1875.07849	77.10347
93850.00000	77.48143	1869.35713	77.48143
93900.00000	77.02562	1866.73246	77.02562
93950.00000	76.46370	1863.66610	76.46370
94000.00000	75.98059	1861.57068	75.98059
94050.00000	75.36357	1852.80974	75.36357
94100.00000	75.61686	1848.30424	75.61686
94150.00000	74.90984	1848.41290	74.90984
94200.00000	75.25700	1841.05255	75.25700
94250.00000	74.71477	1837.58546	74.71477
94300.00000	74.31506	1833.55575	74.31506
94350.00000	74.73093	1830.19849	74.73093
94400.00000	73.48567	1827.60538	73.48567
94450.00000	73.42866	1820.60881	73.42866
94500.00000	73.31361	1819.90955	73.31361
94550.00000	73.48182	1812.45608	73.48182
94600.00000	73.17495	1810.88887	73.17495
94650.00000	73.37643	1806.71648	73.37643
94700.00000	72.24779	1794.25432	72.24779
94750.00000	71.50267	1795.39299	71.50267
94800.00000	72.47797	1785.71371	72.47797
94850.00000	72.03780	1787.81010	72.03780
94900.00000	71.09542	1783.05185	71.09542
94950.00000	70.51879	1773.36522	70.51879
95000.00000	71.80942	1770.42972	71.80942
95050.00000	70.24073	1764.78995	70.24073
95100.00000	69.97849	1756.85707	69.97849
95150.00000	70.35811	1750.28302	70.35811
95200.00000	69.29363	1745.41255	69.29363
95250.00000	68.81497	1749.18609	68.81497
95300.00000	68.88577	1738.71093	68.88577
95350.00000	66.50758	1742.62130	66.50758
95400.00000	68.28434	1724.60293	68.28434
95450.00000	68.06007	1727.04371	68.06007
95500.00000	66.97429	1722.08108	66.97429
95550.00000	65.97765	1726.30461	65.97765
95600.00000	67.34265	1707.25649	67.34265
95650.00000	66.63325	1713.22851	66.63325
95700.00000	66.61893	1707.63758	66.61893
95750.00000	65.23465	1706.90139	65.23465
95800.00000	64.37882	1706.13354	64.37882
95850.00000	66.94766	1694.45503	66.94766
95900.00000	65.42764	1691.97017	65.42764
95950.00000	64.61365	1678.73827	64.61365
96000.00000	66.39743	1660.48207	66.39743
96050.00000	66.11700	1665.48570	66.11700
96100.00000	66.60627	1649.73121	66.60627
96150.00000	64.39437	1650.11419	64.39437
96200.00000	67.62185	1638.24021	67.62185
96250.00000	68.60631	1643.14197	68.60631
96300.00000	65.79773	1612.92787	65.79773
96350.00000	66.95555	1604.76945	66.95555
96400.00000	66.52890	1603.88330	66.52890
96450.00000	67.25339	1593.33364	67.25339
96500.00000	68.73017	1581.82456	68.73017
96550.00000	67.92776	1559.78684	67.92776
96600.00000	66.74820	1554.66087	66.74820
96650.00000	70.40763	1559.82461	70.40763
96700.00000	67.60979	1539.57720	67.60979
96750.00000	70.21937	1536.44826	70.21937
96800.00000	68.32104	1516.97598	68.32104
96850.00000	69.42372	1513.48349	69.42372
96900.00000	67.58297	1505.73513	67.58297
96950.00000	71.66397	1521.56966	71.66397
97000.00000	68.19999	1478.02696	68.19999
97050.00000	68.57565	1501.02959	68.57565
97100.00000	72.24690	1489.47263	72.24690
97150.00000	71.71134	1473.89154	71.71134
97200.00000	72.80542	1474.48658	72.80542
97250.00000	70.59414	1449.47547	70.59414
97300.00000	72.85776	1445.29994	72.85776
97350.00000	68.36932	1413.00165	68.36932
97400.00000	69.50093	1408.03015	69.50093
97450.00000	63.16231	1388.32380	63.16231
97500.00000	64.63814	1413.12063	64.63814
97550.00000	63.53992	1423.68255	63.53992
97600.00000	61.61957	1430.98984	61.61957
97650.00000	59.80729	1403.09292	59.80729
97700.00000	59.95693	1431.20775	59.95693
97750.00000	56.71209	1415.79362	56.71209
97800.00000	55.52583	1470.44396	55.52583
97850.00000	58.70902	1417.05064	58.70902
97900.00000	60.96772	1427.91837	60.96772
97950.00000	59.05054	1435.09593	59.05054
98000.00000	58.26536	1420.77797	58.26536
98050.00000	52.28840	1428.52416	52.28840
98100.00000	64.44020	1443.65688	64.44020
98150.00000	58.32217	1433.81470	58.32217
98200.00000	63.33190	1423.64804	63.33190
98250.00000	52.55049	1441.40073	52.55049
98300.00000	60.26215	1434.61385	60.26215
98350.00000	50.21753	1421.41193	50.21753
98400.00000	53.07088	1342.72799	53.07088
98450.00000	58.17232	1422.01823	58.17232
98500.00000	59.22743	1435.34885	59.22743
98550.00000	60.13034	1438.00331	60.13034
98600.00000	46.76612	1421.88571	46.76612
98650.00000	54.37201	1439.29879	54.37201
98700.00000	54.39687	1385.86527	54.39687
98750.00000	43.06820	1297.96637	43.06820
98800.00000	55.91824	1444.19100	55.91824
98850.00000	47.76477	1481.06812	47.76477
98900.00000	47.16624	1459.99336	47.16624
98950.00000	53.27273	1502.32252	53.27273
99000.00000	49.13654	1425.76527	49.13654
99050.00000	54.65019	1517.06949	54.65019
99100.00000	55.08189	1441.04420	55.08189
99150.00000	48.18628	1498.11680	48.18628
99200.00000	52.43513	1392.61750	52.43513
99250.00000	51.66195	1296.11783	51.66195
99300.00000	53.61704	1214.43460	53.61704
99350.00000	43.08820	1136.85862	43.08820
99400.00000	51.59008	1105.34633	51.59008
99450.00000	51.59421	1157.53777	51.59421
99500.00000	50.15644	1131.83617	50.15644
99550.00000	53.16905	1117.07783	53.16905
99600.00000	41.97180	1262.73929	41.97180
99650.00000	53.45162	1108.84339	53.45162
99700.00000	40.66444	1125.86416	40.66444
99750.00000	59.54179	1121.26404	59.54179
99800.00000	54.64553	1198.28586	54.64553
99850.00000	49.40536	1080.63419	49.40536
99900.00000	47.46346	1151.33863	47.46346
99950.00000	52.35245	1127.60003	52.35245
