---ACOUSTIC CALIBRATION---
Filename: C:\Data\CL0809 DATA\CL08095\RightPrimary.calib
Date: 8/9/2019 4:10:23 PM
Format: 4
Probe Tube Correction File: C:\Data\Probe Tube Calibrations\74_ProbeTube.calib
Experiment VIs: 2128
EPL_CFTS.exe V15.0.1f5 (2015)
DAQmx V15.1

Attenuation (dB): 40.000000
Min Freq (Hz): 50.000000
Max Freq (Hz): 99950.000000
Freq Step (Hz): 50.000000
Sample Rate (Hz): 200000.000000
[Smoothing]
Method=None
MA.Iterations=0
MA.Length=0
Loess.Length=0
Loess.Type=Linear
Loess.Robust=FALSE


Freq(Hz)	Mag(dB)	Phase(deg)	Unsmoothed(dB)

50.00000	87.79058	285.49932	87.79058
100.00000	73.94821	392.43713	73.94821
150.00000	72.06200	673.78857	72.06200
200.00000	62.17342	777.21062	62.17342
250.00000	60.90617	1026.79135	60.90617
300.00000	55.71413	1219.01459	55.71413
350.00000	61.99711	1355.33578	61.99711
400.00000	52.57499	1412.80032	52.57499
450.00000	63.85802	1472.23892	63.85802
500.00000	64.50929	1575.38040	64.50929
550.00000	70.59141	1533.66728	70.59141
600.00000	65.10910	1480.99128	65.10910
650.00000	75.94748	1499.09053	75.94748
700.00000	74.99324	1480.96322	74.99324
750.00000	78.62320	1449.01337	78.62320
800.00000	79.37432	1439.69309	79.37432
850.00000	78.53913	1438.74095	78.53913
900.00000	78.75859	1444.14868	78.75859
950.00000	82.29472	1442.72483	82.29472
1000.00000	84.40669	1445.52008	84.40669
1050.00000	87.47504	1434.28298	87.47504
1100.00000	89.77438	1418.48826	89.77438
1150.00000	90.87845	1404.44015	90.87845
1200.00000	91.45896	1394.26658	91.45896
1250.00000	92.30221	1386.22345	92.30221
1300.00000	93.67756	1378.78947	93.67756
1350.00000	94.94022	1365.11665	94.94022
1400.00000	95.19820	1352.51850	95.19820
1450.00000	95.06906	1342.01203	95.06906
1500.00000	95.03709	1336.05774	95.03709
1550.00000	95.25083	1330.15930	95.25083
1600.00000	95.96635	1325.84722	95.96635
1650.00000	96.67209	1322.53546	96.67209
1700.00000	100.41879	1306.78570	100.41879
1750.00000	97.38759	1286.81173	97.38759
1800.00000	96.92506	1281.48124	96.92506
1850.00000	96.49430	1275.16114	96.49430
1900.00000	96.40155	1270.16329	96.40155
1950.00000	95.92515	1265.78824	95.92515
2000.00000	95.68484	1262.92667	95.68484
2050.00000	96.01089	1260.51483	96.01089
2100.00000	96.39418	1254.91871	96.39418
2150.00000	96.65130	1246.92015	96.65130
2200.00000	96.31943	1236.86641	96.31943
2250.00000	95.38999	1231.88184	95.38999
2300.00000	95.18102	1230.89111	95.18102
2350.00000	95.35878	1225.32481	95.35878
2400.00000	95.33560	1219.27187	95.33560
2450.00000	94.78509	1211.30228	94.78509
2500.00000	93.87094	1208.16346	93.87094
2550.00000	93.53980	1205.34129	93.53980
2600.00000	93.13035	1201.87622	93.13035
2650.00000	92.61450	1199.39544	92.61450
2700.00000	92.22797	1196.25152	92.22797
2750.00000	91.71416	1194.09897	91.71416
2800.00000	91.31918	1191.51278	91.31918
2850.00000	90.94286	1190.12099	90.94286
2900.00000	90.63065	1188.29798	90.63065
2950.00000	90.43723	1186.40443	90.43723
3000.00000	90.14757	1184.17043	90.14757
3050.00000	89.71862	1181.52238	89.71862
3100.00000	89.32815	1179.35075	89.32815
3150.00000	88.68071	1178.00912	88.68071
3200.00000	88.23709	1176.38737	88.23709
3250.00000	87.92441	1175.97447	87.92441
3300.00000	87.30168	1174.69985	87.30168
3350.00000	87.05944	1173.63665	87.05944
3400.00000	86.32995	1172.87900	86.32995
3450.00000	85.62920	1171.83343	85.62920
3500.00000	84.73007	1172.45145	84.73007
3550.00000	84.14037	1173.08412	84.14037
3600.00000	82.67556	1172.88097	82.67556
3650.00000	81.31738	1178.47533	81.31738
3700.00000	79.89970	1187.53338	79.89970
3750.00000	79.15851	1199.69260	79.15851
3800.00000	79.44090	1217.88649	79.44090
3850.00000	80.28255	1227.03703	80.28255
3900.00000	81.67756	1233.30984	81.67756
3950.00000	82.09131	1241.06983	82.09131
4000.00000	82.95050	1253.12212	82.95050
4050.00000	84.63560	1259.12173	84.63560
4100.00000	86.43360	1264.04116	86.43360
4150.00000	88.99414	1265.33365	88.99414
4200.00000	90.83478	1264.46480	90.83478
4250.00000	91.77744	1255.35848	91.77744
4300.00000	92.68400	1255.80626	92.68400
4350.00000	93.93157	1254.59823	93.93157
4400.00000	95.33896	1251.52035	95.33896
4450.00000	96.33480	1244.56304	96.33480
4500.00000	97.01070	1238.93962	97.01070
4550.00000	97.22680	1235.63856	97.22680
4600.00000	97.76310	1234.66773	97.76310
4650.00000	98.69330	1234.61013	98.69330
4700.00000	99.75167	1233.03186	99.75167
4750.00000	100.83909	1230.24102	100.83909
4800.00000	101.95465	1226.98126	101.95465
4850.00000	103.07865	1223.01326	103.07865
4900.00000	104.22888	1217.97389	104.22888
4950.00000	105.41977	1212.96676	105.41977
5000.00000	106.68976	1206.97660	106.68976
5050.00000	108.08490	1200.00166	108.08490
5100.00000	109.69944	1191.42080	109.69944
5150.00000	111.64662	1179.76816	111.64662
5200.00000	114.02208	1160.04578	114.02208
5250.00000	115.50181	1122.35931	115.50181
5300.00000	112.07046	1079.86228	112.07046
5350.00000	106.26102	1065.08080	106.26102
5400.00000	101.73034	1070.26522	101.73034
5450.00000	98.81429	1080.47800	98.81429
5500.00000	96.36857	1094.03526	96.36857
5550.00000	95.21020	1117.00693	95.21020
5600.00000	96.64526	1137.16603	96.64526
5650.00000	98.92941	1144.23429	98.92941
5700.00000	100.66842	1142.40632	100.66842
5750.00000	101.59811	1138.33965	101.59811
5800.00000	102.05294	1135.93686	102.05294
5850.00000	102.41977	1134.99068	102.41977
5900.00000	102.92504	1134.64972	102.92504
5950.00000	103.57497	1134.45250	103.57497
6000.00000	104.30839	1133.81762	104.30839
6050.00000	105.12098	1132.41897	105.12098
6100.00000	105.97042	1130.48017	105.97042
6150.00000	106.81586	1127.88385	106.81586
6200.00000	107.70234	1125.04206	107.70234
6250.00000	108.63614	1121.48032	108.63614
6300.00000	109.60272	1117.10938	109.60272
6350.00000	110.58683	1111.76014	110.58683
6400.00000	111.53266	1105.48706	111.53266
6450.00000	112.41106	1098.15897	112.41106
6500.00000	113.18906	1090.12296	113.18906
6550.00000	113.88563	1081.25685	113.88563
6600.00000	114.46034	1071.84213	114.46034
6650.00000	114.91325	1061.69244	114.91325
6700.00000	115.18204	1050.64925	115.18204
6750.00000	115.16654	1039.31733	115.16654
6800.00000	114.86618	1028.56718	114.86618
6850.00000	114.36109	1018.96640	114.36109
6900.00000	113.74337	1010.72049	113.74337
6950.00000	113.09167	1003.80095	113.09167
7000.00000	112.46338	997.79491	112.46338
7050.00000	111.87229	992.68992	111.87229
7100.00000	111.32881	988.12412	111.32881
7150.00000	110.83902	983.91291	110.83902
7200.00000	110.40255	980.02000	110.40255
7250.00000	110.00987	976.21543	110.00987
7300.00000	109.62509	972.45641	109.62509
7350.00000	109.27532	968.80319	109.27532
7400.00000	108.94317	965.19922	108.94317
7450.00000	108.59900	961.58775	108.59900
7500.00000	108.26842	958.05663	108.26842
7550.00000	107.91055	954.40006	107.91055
7600.00000	107.54180	951.02820	107.54180
7650.00000	107.16938	947.73245	107.16938
7700.00000	106.78823	944.73321	106.78823
7750.00000	106.40961	941.84081	106.40961
7800.00000	106.01903	939.30813	106.01903
7850.00000	105.66570	936.91740	105.66570
7900.00000	105.32625	934.60236	105.32625
7950.00000	104.98148	932.76855	104.98148
8000.00000	104.68465	931.00230	104.68465
8050.00000	104.39937	929.28541	104.39937
8100.00000	104.15509	927.65520	104.15509
8150.00000	103.96343	926.14956	103.96343
8200.00000	103.75354	924.55412	103.75354
8250.00000	103.59123	923.07465	103.59123
8300.00000	103.47660	921.72133	103.47660
8350.00000	103.36322	920.05099	103.36322
8400.00000	103.30457	918.29736	103.30457
8450.00000	103.19894	916.52221	103.19894
8500.00000	103.12373	914.84590	103.12373
8550.00000	103.07677	913.27360	103.07677
8600.00000	103.06415	911.25724	103.06415
8650.00000	103.06665	909.35797	103.06665
8700.00000	103.03915	907.34237	103.03915
8750.00000	103.03975	905.08159	103.03975
8800.00000	103.05967	902.88296	103.05967
8850.00000	103.10370	900.44174	103.10370
8900.00000	103.10843	897.96421	103.10843
8950.00000	103.14886	895.41499	103.14886
9000.00000	103.16939	892.59707	103.16939
9050.00000	103.20839	889.72045	103.20839
9100.00000	103.20034	886.75783	103.20034
9150.00000	103.21475	883.63051	103.21475
9200.00000	103.21982	880.52681	103.21982
9250.00000	103.21156	876.91430	103.21156
9300.00000	103.18582	873.37272	103.18582
9350.00000	103.10020	869.75766	103.10020
9400.00000	102.98342	866.03323	102.98342
9450.00000	102.87785	862.20430	102.87785
9500.00000	102.70171	858.47978	102.70171
9550.00000	102.50728	854.75440	102.50728
9600.00000	102.26887	851.35031	102.26887
9650.00000	102.02791	847.95034	102.02791
9700.00000	101.73704	844.51014	101.73704
9750.00000	101.40025	841.30141	101.40025
9800.00000	100.98702	838.40234	100.98702
9850.00000	100.47628	836.09686	100.47628
9900.00000	99.93143	835.26548	99.93143
9950.00000	99.43941	836.03125	99.43941
10000.00000	99.42469	839.43669	99.42469
10050.00000	100.03716	839.33698	100.03716
10100.00000	100.41100	835.69303	100.41100
10150.00000	100.40005	831.60179	100.40005
10200.00000	100.29876	828.37577	100.29876
10250.00000	100.16804	825.95093	100.16804
10300.00000	100.09390	823.53812	100.09390
10350.00000	100.00888	821.41511	100.00888
10400.00000	99.88182	819.02204	99.88182
10450.00000	99.85386	816.90167	99.85386
10500.00000	99.86263	814.56749	99.86263
10550.00000	99.88220	812.26845	99.88220
10600.00000	99.96435	809.51425	99.96435
10650.00000	99.98406	807.07594	99.98406
10700.00000	100.04048	803.94044	100.04048
10750.00000	100.09838	800.95446	100.09838
10800.00000	100.14591	797.34914	100.14591
10850.00000	100.19673	793.96697	100.19673
10900.00000	100.25705	790.25859	100.25705
10950.00000	100.26893	786.54580	100.26893
11000.00000	100.30159	782.48865	100.30159
11050.00000	100.22205	778.53163	100.22205
11100.00000	100.21995	774.40352	100.21995
11150.00000	100.16143	770.00093	100.16143
11200.00000	100.07401	765.81527	100.07401
11250.00000	99.87693	761.23601	99.87693
11300.00000	99.74346	756.75529	99.74346
11350.00000	99.57299	752.12507	99.57299
11400.00000	99.32475	747.47780	99.32475
11450.00000	99.10264	742.79511	99.10264
11500.00000	98.83546	738.21329	98.83546
11550.00000	98.55177	733.32837	98.55177
11600.00000	98.23222	728.76651	98.23222
11650.00000	97.93408	724.27007	97.93408
11700.00000	97.61323	719.51460	97.61323
11750.00000	97.23167	715.21376	97.23167
11800.00000	96.88299	710.96301	96.88299
11850.00000	96.56517	706.64708	96.56517
11900.00000	96.14797	702.70885	96.14797
11950.00000	95.80774	698.60638	95.80774
12000.00000	95.42261	694.63106	95.42261
12050.00000	94.98532	691.33963	94.98532
12100.00000	94.54682	687.65778	94.54682
12150.00000	94.14278	683.95268	94.14278
12200.00000	93.73817	679.55422	93.73817
12250.00000	93.37064	676.34931	93.37064
12300.00000	92.82463	672.24234	92.82463
12350.00000	92.39365	668.27740	92.39365
12400.00000	91.92083	663.58644	91.92083
12450.00000	91.55798	659.09804	91.55798
12500.00000	91.19614	655.42500	91.19614
12550.00000	90.81300	650.96030	90.81300
12600.00000	90.54508	645.19287	90.54508
12650.00000	90.18859	641.06971	90.18859
12700.00000	89.80730	635.66494	89.80730
12750.00000	89.51480	630.70462	89.51480
12800.00000	89.22193	625.14900	89.22193
12850.00000	88.95809	620.53495	88.95809
12900.00000	88.64694	614.18191	88.64694
12950.00000	88.55469	607.59913	88.55469
13000.00000	88.35853	600.45632	88.35853
13050.00000	88.29387	593.64361	88.29387
13100.00000	88.29196	586.19332	88.29196
13150.00000	88.59667	579.52722	88.59667
13200.00000	88.90490	570.33163	88.90490
13250.00000	89.64420	560.45569	89.64420
13300.00000	90.55528	555.05543	90.55528
13350.00000	91.83393	548.82463	91.83393
13400.00000	93.21410	547.35624	93.21410
13450.00000	94.31256	551.99953	94.31256
13500.00000	94.35832	560.50240	94.35832
13550.00000	93.51167	562.27084	93.51167
13600.00000	92.28776	560.45276	92.28776
13650.00000	91.09355	553.17750	91.09355
13700.00000	90.28993	543.74716	90.28993
13750.00000	89.91775	530.75682	89.91775
13800.00000	90.11272	518.24865	90.11272
13850.00000	90.57978	504.75454	90.57978
13900.00000	91.25838	490.99010	91.25838
13950.00000	92.50112	479.23259	92.50112
14000.00000	94.16810	469.38451	94.16810
14050.00000	96.14973	464.30319	96.14973
14100.00000	98.44082	462.43280	98.44082
14150.00000	99.95325	470.77159	99.95325
14200.00000	100.11987	481.58167	100.11987
14250.00000	98.93006	488.85165	98.93006
14300.00000	97.49979	488.66227	97.49979
14350.00000	96.28277	483.72203	96.28277
14400.00000	95.55219	477.68773	95.55219
14450.00000	94.89581	469.24063	94.89581
14500.00000	94.63276	460.45892	94.63276
14550.00000	94.73159	450.52398	94.73159
14600.00000	94.86681	442.95886	94.86681
14650.00000	95.22498	435.28885	95.22498
14700.00000	95.84701	426.61110	95.84701
14750.00000	96.64244	420.55617	96.64244
14800.00000	97.41910	416.02039	97.41910
14850.00000	98.46729	413.16879	98.46729
14900.00000	99.24763	413.05787	99.24763
14950.00000	99.86721	415.08716	99.86721
15000.00000	99.94299	416.93497	99.94299
15050.00000	99.77307	418.92920	99.77307
15100.00000	99.43504	418.91645	99.43504
15150.00000	98.94892	416.11921	98.94892
15200.00000	98.63275	412.98542	98.63275
15250.00000	98.25728	408.80601	98.25728
15300.00000	98.15066	403.36671	98.15066
15350.00000	98.30646	398.24181	98.30646
15400.00000	98.56522	391.97342	98.56522
15450.00000	98.81774	386.16236	98.81774
15500.00000	99.28893	381.48523	99.28893
15550.00000	99.67991	377.90426	99.67991
15600.00000	100.23148	375.01535	100.23148
15650.00000	100.68563	372.94917	100.68563
15700.00000	100.91095	371.60446	100.91095
15750.00000	101.15859	370.99706	101.15859
15800.00000	101.16024	369.92804	101.16024
15850.00000	101.06231	368.62173	101.06231
15900.00000	100.92499	365.93400	100.92499
15950.00000	100.74028	362.38603	100.74028
16000.00000	100.60854	358.98754	100.60854
16050.00000	100.67524	355.11560	100.67524
16100.00000	100.67360	351.76024	100.67360
16150.00000	100.88112	347.82945	100.88112
16200.00000	101.09158	344.46124	101.09158
16250.00000	101.31964	340.65604	101.31964
16300.00000	101.63051	338.04949	101.63051
16350.00000	101.90826	335.76480	101.90826
16400.00000	102.08164	333.36851	102.08164
16450.00000	102.28231	331.54272	102.28231
16500.00000	102.39950	329.24952	102.39950
16550.00000	102.40772	326.55944	102.40772
16600.00000	102.48140	323.69402	102.48140
16650.00000	102.45100	320.35158	102.45100
16700.00000	102.43045	316.80199	102.43045
16750.00000	102.48330	313.14000	102.48330
16800.00000	102.48187	309.61300	102.48187
16850.00000	102.55057	306.32454	102.55057
16900.00000	102.67216	303.30426	102.67216
16950.00000	102.68887	300.17208	102.68887
17000.00000	102.80907	297.52473	102.80907
17050.00000	102.87571	295.41171	102.87571
17100.00000	102.91060	292.92011	102.91060
17150.00000	102.92289	290.84486	102.92289
17200.00000	102.88814	288.36634	102.88814
17250.00000	102.88661	285.48124	102.88661
17300.00000	102.85537	282.94557	102.85537
17350.00000	102.82921	280.00577	102.82921
17400.00000	102.83049	277.39484	102.83049
17450.00000	102.92805	274.95055	102.92805
17500.00000	102.96457	271.94381	102.96457
17550.00000	102.99730	269.50365	102.99730
17600.00000	103.08035	267.14362	103.08035
17650.00000	103.20840	264.90066	103.20840
17700.00000	103.29448	262.56430	103.29448
17750.00000	103.36181	259.95231	103.36181
17800.00000	103.36742	257.63178	103.36742
17850.00000	103.44392	255.36075	103.44392
17900.00000	103.48214	253.09709	103.48214
17950.00000	103.53256	250.89253	103.53256
18000.00000	103.63829	248.31003	103.63829
18050.00000	103.69211	245.66640	103.69211
18100.00000	103.78712	243.09884	103.78712
18150.00000	103.88477	240.15868	103.88477
18200.00000	103.95183	237.45130	103.95183
18250.00000	104.03370	234.59568	104.03370
18300.00000	104.09661	231.53152	104.09661
18350.00000	104.13966	228.89897	104.13966
18400.00000	104.16556	226.02173	104.16556
18450.00000	104.22025	223.44804	104.22025
18500.00000	104.28897	220.86007	104.28897
18550.00000	104.33499	217.78539	104.33499
18600.00000	104.33813	215.03743	104.33813
18650.00000	104.40639	212.22058	104.40639
18700.00000	104.43473	209.52607	104.43473
18750.00000	104.43438	206.89356	104.43438
18800.00000	104.47243	203.99144	104.47243
18850.00000	104.47274	201.37948	104.47274
18900.00000	104.45694	198.81132	104.45694
18950.00000	104.46012	195.92562	104.46012
19000.00000	104.42251	193.19567	104.42251
19050.00000	104.43900	190.46571	104.43900
19100.00000	104.42963	187.81482	104.42963
19150.00000	104.46398	185.38094	104.46398
19200.00000	104.48331	182.62164	104.48331
19250.00000	104.46040	180.28998	104.46040
19300.00000	104.50472	177.75383	104.50472
19350.00000	104.49819	174.99743	104.49819
19400.00000	104.47757	172.63733	104.47757
19450.00000	104.47642	169.91355	104.47642
19500.00000	104.48353	167.46346	104.48353
19550.00000	104.49087	164.99212	104.49087
19600.00000	104.49077	162.42257	104.49077
19650.00000	104.48930	159.89432	104.48930
19700.00000	104.52017	157.30561	104.52017
19750.00000	104.51181	154.79736	104.51181
19800.00000	104.54897	152.61601	104.54897
19850.00000	104.53927	149.89128	104.53927
19900.00000	104.56442	147.35182	104.56442
19950.00000	104.53923	144.97829	104.53923
20000.00000	104.54392	142.04824	104.54392
20050.00000	104.53994	139.84666	104.53994
20100.00000	104.56753	137.18575	104.56753
20150.00000	104.57491	134.54670	104.57491
20200.00000	104.60127	131.86066	104.60127
20250.00000	104.60815	129.65761	104.60815
20300.00000	104.61210	127.06209	104.61210
20350.00000	104.60936	124.43054	104.60936
20400.00000	104.59459	121.96354	104.59459
20450.00000	104.60545	119.49271	104.60545
20500.00000	104.60855	116.79468	104.60855
20550.00000	104.58138	114.14926	104.58138
20600.00000	104.61223	111.78918	104.61223
20650.00000	104.63815	108.96722	104.63815
20700.00000	104.64199	106.77129	104.64199
20750.00000	104.61070	104.05689	104.61070
20800.00000	104.61792	101.53692	104.61792
20850.00000	104.60267	98.82203	104.60267
20900.00000	104.61247	96.33133	104.61247
20950.00000	104.61478	93.55711	104.61478
21000.00000	104.62120	90.92165	104.62120
21050.00000	104.64010	88.16888	104.64010
21100.00000	104.64504	85.65314	104.64504
21150.00000	104.63449	83.31073	104.63449
21200.00000	104.61923	80.66619	104.61923
21250.00000	104.58070	78.02031	104.58070
21300.00000	104.58102	75.14783	104.58102
21350.00000	104.55068	72.47959	104.55068
21400.00000	104.55576	69.76425	104.55576
21450.00000	104.59161	67.03452	104.59161
21500.00000	104.61856	64.58355	104.61856
21550.00000	104.62044	61.94931	104.62044
21600.00000	104.60191	59.12904	104.60191
21650.00000	104.60476	56.31057	104.60476
21700.00000	104.55474	53.06556	104.55474
21750.00000	104.55608	50.19742	104.55608
21800.00000	104.52329	47.10851	104.52329
21850.00000	104.49980	44.27961	104.49980
21900.00000	104.44139	41.33505	104.44139
21950.00000	104.42130	38.24610	104.42130
22000.00000	104.29186	35.46246	104.29186
22050.00000	104.23893	32.73491	104.23893
22100.00000	104.16825	30.11976	104.16825
22150.00000	104.09683	27.32437	104.09683
22200.00000	104.05600	24.21433	104.05600
22250.00000	103.99231	21.46820	103.99231
22300.00000	103.90121	18.61291	103.90121
22350.00000	103.81977	15.62315	103.81977
22400.00000	103.68976	12.75807	103.68976
22450.00000	103.60741	 9.94667	103.60741
22500.00000	103.47366	 6.97547	103.47366
22550.00000	103.36660	 4.36272	103.36660
22600.00000	103.23942	 1.64658	103.23942
22650.00000	103.11770	-0.97304	103.11770
22700.00000	102.99078	-3.61247	102.99078
22750.00000	102.85250	-6.36785	102.85250
22800.00000	102.71902	-8.86494	102.71902
22850.00000	102.58018	-11.40690	102.58018
22900.00000	102.50717	-13.64616	102.50717
22950.00000	102.38029	-16.31198	102.38029
23000.00000	102.21694	-18.81084	102.21694
23050.00000	102.05541	-21.45481	102.05541
23100.00000	101.94697	-23.76935	101.94697
23150.00000	101.77227	-26.29799	101.77227
23200.00000	101.60322	-28.75414	101.60322
23250.00000	101.52510	-31.14880	101.52510
23300.00000	101.41630	-33.75176	101.41630
23350.00000	101.24178	-35.89020	101.24178
23400.00000	101.08384	-37.96796	101.08384
23450.00000	100.93957	-39.97507	100.93957
23500.00000	100.83293	-42.31350	100.83293
23550.00000	100.69418	-44.36597	100.69418
23600.00000	100.54376	-46.55281	100.54376
23650.00000	100.31135	-48.80055	100.31135
23700.00000	100.28336	-50.47425	100.28336
23750.00000	100.13246	-52.91792	100.13246
23800.00000	99.96715	-54.90333	99.96715
23850.00000	99.87414	-57.20532	99.87414
23900.00000	99.70660	-59.14052	99.70660
23950.00000	99.53850	-60.89601	99.53850
24000.00000	99.48689	-63.12754	99.48689
24050.00000	99.29716	-65.42890	99.29716
24100.00000	99.17125	-67.75017	99.17125
24150.00000	99.00619	-69.10503	99.00619
24200.00000	98.92852	-72.00845	98.92852
24250.00000	98.79790	-73.76413	98.79790
24300.00000	98.58592	-76.06399	98.58592
24350.00000	98.49944	-77.42461	98.49944
24400.00000	98.40592	-79.58038	98.40592
24450.00000	98.21238	-80.99967	98.21238
24500.00000	98.02837	-84.06339	98.02837
24550.00000	97.85155	-85.87393	97.85155
24600.00000	97.72176	-87.74046	97.72176
24650.00000	97.60746	-90.15709	97.60746
24700.00000	97.44091	-91.61734	97.44091
24750.00000	97.27929	-93.73189	97.27929
24800.00000	97.06161	-94.86053	97.06161
24850.00000	96.93344	-96.85938	96.93344
24900.00000	96.72537	-98.31699	96.72537
24950.00000	96.63476	-99.98023	96.63476
25000.00000	96.43258	-101.71808	96.43258
25050.00000	96.27269	-102.88843	96.27269
25100.00000	96.23488	-103.79668	96.23488
25150.00000	95.98165	-105.06811	95.98165
25200.00000	95.87178	-106.54772	95.87178
25250.00000	95.73734	-108.11917	95.73734
25300.00000	95.53177	-109.80713	95.53177
25350.00000	95.48539	-111.07469	95.48539
25400.00000	95.31823	-112.23612	95.31823
25450.00000	95.29284	-114.38853	95.29284
25500.00000	95.16509	-114.73859	95.16509
25550.00000	95.08102	-115.93016	95.08102
25600.00000	94.99336	-116.89930	94.99336
25650.00000	94.89692	-118.54598	94.89692
25700.00000	94.85397	-119.88528	94.85397
25750.00000	94.83050	-121.24449	94.83050
25800.00000	94.79602	-122.55569	94.79602
25850.00000	94.72587	-123.94814	94.72587
25900.00000	94.59886	-125.62064	94.59886
25950.00000	94.55559	-126.55487	94.55559
26000.00000	94.59058	-128.23119	94.59058
26050.00000	94.62893	-129.82799	94.62893
26100.00000	94.59867	-131.12079	94.59867
26150.00000	94.51498	-133.23987	94.51498
26200.00000	94.44104	-134.52922	94.44104
26250.00000	94.51254	-136.37693	94.51254
26300.00000	94.40434	-138.05899	94.40434
26350.00000	94.43069	-139.93310	94.43069
26400.00000	94.39797	-142.35810	94.39797
26450.00000	94.26714	-144.39398	94.26714
26500.00000	94.25634	-145.95546	94.25634
26550.00000	94.17077	-147.52669	94.17077
26600.00000	94.11627	-149.37645	94.11627
26650.00000	94.01644	-152.21883	94.01644
26700.00000	94.00045	-154.21774	94.00045
26750.00000	93.81281	-156.09339	93.81281
26800.00000	93.73353	-157.74762	93.73353
26850.00000	93.62320	-159.27124	93.62320
26900.00000	93.50440	-162.01926	93.50440
26950.00000	93.32952	-163.72389	93.32952
27000.00000	93.20215	-165.59180	93.20215
27050.00000	93.10513	-167.22734	93.10513
27100.00000	92.95361	-169.27849	92.95361
27150.00000	92.75256	-171.31356	92.75256
27200.00000	92.65899	-173.51194	92.65899
27250.00000	92.45250	-174.96103	92.45250
27300.00000	92.31527	-176.69140	92.31527
27350.00000	92.07637	-178.28420	92.07637
27400.00000	91.88715	-179.48892	91.88715
27450.00000	91.75362	-181.33591	91.75362
27500.00000	91.48308	-182.81672	91.48308
27550.00000	91.25539	-184.13207	91.25539
27600.00000	91.02376	-185.14078	91.02376
27650.00000	90.83574	-186.48664	90.83574
27700.00000	90.58166	-188.07420	90.58166
27750.00000	90.33532	-189.07652	90.33532
27800.00000	90.10616	-190.11201	90.10616
27850.00000	89.92789	-191.22394	89.92789
27900.00000	89.74155	-191.77986	89.74155
27950.00000	89.48514	-191.97205	89.48514
28000.00000	89.22604	-192.69099	89.22604
28050.00000	89.00483	-192.88750	89.00483
28100.00000	88.80310	-193.00610	88.80310
28150.00000	88.65142	-193.88975	88.65142
28200.00000	88.51383	-193.44779	88.51383
28250.00000	88.32857	-194.16271	88.32857
28300.00000	88.07067	-194.22977	88.07067
28350.00000	88.00328	-193.42857	88.00328
28400.00000	87.79695	-193.32176	87.79695
28450.00000	87.67703	-193.32215	87.67703
28500.00000	87.60189	-192.78408	87.60189
28550.00000	87.47359	-192.86750	87.47359
28600.00000	87.44219	-192.09050	87.44219
28650.00000	87.42398	-191.86643	87.42398
28700.00000	87.33018	-191.70770	87.33018
28750.00000	87.23726	-190.66341	87.23726
28800.00000	87.17749	-190.67413	87.17749
28850.00000	87.14569	-190.13662	87.14569
28900.00000	87.20544	-190.15490	87.20544
28950.00000	87.28161	-189.30722	87.28161
29000.00000	87.35101	-188.27303	87.35101
29050.00000	87.49248	-188.21387	87.49248
29100.00000	87.45894	-187.91083	87.45894
29150.00000	87.56430	-188.53407	87.56430
29200.00000	87.67248	-188.18842	87.67248
29250.00000	87.73727	-187.09739	87.73727
29300.00000	87.86105	-187.06624	87.86105
29350.00000	88.05444	-185.85001	88.05444
29400.00000	88.23681	-185.65132	88.23681
29450.00000	88.35558	-186.05571	88.35558
29500.00000	88.55649	-185.93360	88.55649
29550.00000	88.77822	-185.68150	88.77822
29600.00000	88.92267	-186.30830	88.92267
29650.00000	89.14613	-186.22152	89.14613
29700.00000	89.41703	-186.38360	89.41703
29750.00000	89.59947	-187.04398	89.59947
29800.00000	89.84643	-187.65585	89.84643
29850.00000	90.00541	-187.88534	90.00541
29900.00000	90.25204	-188.44241	90.25204
29950.00000	90.41294	-188.44951	90.41294
30000.00000	90.67434	-189.03083	90.67434
30050.00000	90.88040	-188.88071	90.88040
30100.00000	91.17573	-190.38139	91.17573
30150.00000	91.35240	-190.94500	91.35240
30200.00000	91.66761	-191.59400	91.66761
30250.00000	91.88940	-192.24482	91.88940
30300.00000	92.03531	-193.13893	92.03531
30350.00000	92.37352	-193.95617	92.37352
30400.00000	92.64082	-194.87978	92.64082
30450.00000	92.89475	-195.94603	92.89475
30500.00000	93.18161	-197.31563	93.18161
30550.00000	93.39006	-197.95424	93.39006
30600.00000	93.64676	-199.18146	93.64676
30650.00000	93.90074	-199.95475	93.90074
30700.00000	94.18209	-201.59368	94.18209
30750.00000	94.40451	-202.87354	94.40451
30800.00000	94.56619	-203.96927	94.56619
30850.00000	94.88560	-205.10547	94.88560
30900.00000	95.15655	-206.67298	95.15655
30950.00000	95.41582	-208.00914	95.41582
31000.00000	95.70699	-209.72750	95.70699
31050.00000	95.94122	-210.91914	95.94122
31100.00000	96.21556	-212.40200	96.21556
31150.00000	96.45113	-213.68561	96.45113
31200.00000	96.69758	-215.67199	96.69758
31250.00000	97.03522	-216.91057	97.03522
31300.00000	97.26760	-218.78298	97.26760
31350.00000	97.54259	-220.11084	97.54259
31400.00000	97.80625	-222.22197	97.80625
31450.00000	98.06155	-224.06258	98.06155
31500.00000	98.33158	-225.78789	98.33158
31550.00000	98.61463	-228.03709	98.61463
31600.00000	98.85924	-230.18697	98.85924
31650.00000	99.13800	-232.31127	99.13800
31700.00000	99.35452	-234.26794	99.35452
31750.00000	99.59086	-236.44007	99.59086
31800.00000	99.83638	-238.52623	99.83638
31850.00000	100.04826	-240.66899	100.04826
31900.00000	100.23971	-242.78038	100.23971
31950.00000	100.48009	-245.26474	100.48009
32000.00000	100.68862	-247.72098	100.68862
32050.00000	100.88085	-249.92754	100.88085
32100.00000	101.08207	-252.17561	101.08207
32150.00000	101.29761	-254.56043	101.29761
32200.00000	101.44550	-256.86692	101.44550
32250.00000	101.64358	-259.14828	101.64358
32300.00000	101.78186	-261.43843	101.78186
32350.00000	101.95506	-263.90651	101.95506
32400.00000	102.08487	-266.38091	102.08487
32450.00000	102.25069	-268.53566	102.25069
32500.00000	102.36525	-270.88410	102.36525
32550.00000	102.52940	-273.18998	102.52940
32600.00000	102.68670	-275.49605	102.68670
32650.00000	102.80761	-277.72839	102.80761
32700.00000	102.92850	-279.70299	102.92850
32750.00000	103.03502	-282.03199	103.03502
32800.00000	103.18548	-283.92717	103.18548
32850.00000	103.31941	-286.25186	103.31941
32900.00000	103.42176	-288.34761	103.42176
32950.00000	103.54601	-290.28700	103.54601
33000.00000	103.68831	-292.33830	103.68831
33050.00000	103.78311	-294.35723	103.78311
33100.00000	103.94873	-296.26963	103.94873
33150.00000	104.09068	-298.25402	104.09068
33200.00000	104.22046	-300.12689	104.22046
33250.00000	104.33852	-301.94407	104.33852
33300.00000	104.48004	-303.70503	104.48004
33350.00000	104.71511	-305.69606	104.71511
33400.00000	104.85215	-307.72580	104.85215
33450.00000	104.99082	-309.85792	104.99082
33500.00000	105.18876	-311.51029	105.18876
33550.00000	105.33831	-313.51281	105.33831
33600.00000	105.51681	-315.43410	105.51681
33650.00000	105.71269	-317.57730	105.71269
33700.00000	105.86004	-319.59062	105.86004
33750.00000	106.07545	-321.65740	106.07545
33800.00000	106.26360	-323.84029	106.26360
33850.00000	106.45662	-325.79070	106.45662
33900.00000	106.66133	-327.82336	106.66133
33950.00000	106.88579	-330.03497	106.88579
34000.00000	107.05222	-332.14885	107.05222
34050.00000	107.27235	-334.20994	107.27235
34100.00000	107.47117	-336.52474	107.47117
34150.00000	107.67769	-338.80104	107.67769
34200.00000	107.88979	-341.11414	107.88979
34250.00000	108.08932	-343.47916	108.08932
34300.00000	108.29199	-345.89415	108.29199
34350.00000	108.48867	-348.28607	108.48867
34400.00000	108.71768	-350.76283	108.71768
34450.00000	108.91178	-353.08170	108.91178
34500.00000	109.10408	-355.44541	109.10408
34550.00000	109.33305	-358.02558	109.33305
34600.00000	109.56133	-360.50794	109.56133
34650.00000	109.78247	-363.09919	109.78247
34700.00000	109.99367	-365.70498	109.99367
34750.00000	110.20815	-368.62056	110.20815
34800.00000	110.44616	-371.30497	110.44616
34850.00000	110.68032	-374.31847	110.68032
34900.00000	110.91007	-377.31058	110.91007
34950.00000	111.11921	-380.66645	111.11921
35000.00000	111.28889	-383.87577	111.28889
35050.00000	111.43518	-387.19914	111.43518
35100.00000	111.49782	-390.65268	111.49782
35150.00000	111.55502	-393.37364	111.55502
35200.00000	111.65863	-395.68640	111.65863
35250.00000	111.80415	-398.02290	111.80415
35300.00000	112.01680	-400.66133	112.01680
35350.00000	112.22768	-403.38781	112.22768
35400.00000	112.44609	-406.53189	112.44609
35450.00000	112.63991	-409.76875	112.63991
35500.00000	112.80668	-413.14142	112.80668
35550.00000	112.96010	-416.46600	112.96010
35600.00000	113.11622	-419.75541	113.11622
35650.00000	113.25664	-423.27425	113.25664
35700.00000	113.37197	-426.76209	113.37197
35750.00000	113.47663	-430.16695	113.47663
35800.00000	113.56653	-433.72649	113.56653
35850.00000	113.64389	-437.11331	113.64389
35900.00000	113.70624	-440.44779	113.70624
35950.00000	113.76158	-443.78878	113.76158
36000.00000	113.82387	-447.13974	113.82387
36050.00000	113.84072	-450.53623	113.84072
36100.00000	113.87643	-453.75934	113.87643
36150.00000	113.90524	-457.01370	113.90524
36200.00000	113.90435	-460.25404	113.90435
36250.00000	113.91449	-463.38957	113.91449
36300.00000	113.90843	-466.43619	113.90843
36350.00000	113.91092	-469.65282	113.91092
36400.00000	113.89042	-472.57806	113.89042
36450.00000	113.86266	-475.61112	113.86266
36500.00000	113.85766	-478.37695	113.85766
36550.00000	113.83934	-481.35786	113.83934
36600.00000	113.80983	-484.02518	113.80983
36650.00000	113.77255	-486.70076	113.77255
36700.00000	113.75792	-489.27049	113.75792
36750.00000	113.75205	-491.90624	113.75205
36800.00000	113.72617	-494.61571	113.72617
36850.00000	113.69324	-497.08790	113.69324
36900.00000	113.66516	-499.57958	113.66516
36950.00000	113.62839	-502.04536	113.62839
37000.00000	113.59449	-504.29126	113.59449
37050.00000	113.58690	-506.45127	113.58690
37100.00000	113.54516	-508.66120	113.54516
37150.00000	113.52775	-510.72097	113.52775
37200.00000	113.50776	-512.76417	113.50776
37250.00000	113.47978	-514.63321	113.47978
37300.00000	113.45731	-516.39237	113.45731
37350.00000	113.45763	-517.98052	113.45763
37400.00000	113.49340	-519.55066	113.49340
37450.00000	113.51883	-520.88440	113.51883
37500.00000	113.55760	-522.04480	113.55760
37550.00000	113.64573	-523.31322	113.64573
37600.00000	113.76415	-524.16492	113.76415
37650.00000	113.93764	-525.11881	113.93764
37700.00000	114.16401	-525.95378	114.16401
37750.00000	114.46522	-526.98394	114.46522
37800.00000	114.79091	-528.18921	114.79091
37850.00000	115.20313	-529.58232	115.20313
37900.00000	115.62915	-531.55874	115.62915
37950.00000	116.08429	-533.84970	116.08429
38000.00000	116.55221	-536.54737	116.55221
38050.00000	116.99811	-539.79728	116.99811
38100.00000	117.42687	-543.37963	117.42687
38150.00000	117.82345	-547.18823	117.82345
38200.00000	118.18812	-551.39208	118.18812
38250.00000	118.49907	-555.54354	118.49907
38300.00000	118.81176	-559.95393	118.81176
38350.00000	119.08540	-564.55698	119.08540
38400.00000	119.32082	-569.18456	119.32082
38450.00000	119.50868	-573.79260	119.50868
38500.00000	119.68827	-578.33340	119.68827
38550.00000	119.84827	-583.05894	119.84827
38600.00000	119.98697	-587.68252	119.98697
38650.00000	120.10127	-592.42675	120.10127
38700.00000	120.19285	-597.12087	120.19285
38750.00000	120.26458	-601.80387	120.26458
38800.00000	120.29667	-606.45193	120.29667
38850.00000	120.34215	-611.00441	120.34215
38900.00000	120.36670	-615.61094	120.36670
38950.00000	120.37697	-620.14515	120.37697
39000.00000	120.37457	-624.70159	120.37457
39050.00000	120.36517	-629.30779	120.36517
39100.00000	120.32789	-633.87288	120.32789
39150.00000	120.27578	-638.40554	120.27578
39200.00000	120.21109	-642.86808	120.21109
39250.00000	120.13136	-647.23093	120.13136
39300.00000	120.02592	-651.55847	120.02592
39350.00000	119.92827	-655.76782	119.92827
39400.00000	119.85624	-660.01008	119.85624
39450.00000	119.76161	-664.26858	119.76161
39500.00000	119.65845	-668.49794	119.65845
39550.00000	119.54144	-672.73905	119.54144
39600.00000	119.41414	-677.15458	119.41414
39650.00000	119.26670	-681.51735	119.26670
39700.00000	119.09754	-685.83133	119.09754
39750.00000	118.90283	-690.10005	118.90283
39800.00000	118.68847	-694.28418	118.68847
39850.00000	118.45888	-698.38015	118.45888
39900.00000	118.19519	-702.41152	118.19519
39950.00000	117.93985	-706.17123	117.93985
40000.00000	117.67767	-709.90658	117.67767
40050.00000	117.39875	-713.58851	117.39875
40100.00000	117.12600	-717.14493	117.12600
40150.00000	116.83569	-720.64696	116.83569
40200.00000	116.54120	-723.94555	116.54120
40250.00000	116.23163	-727.24149	116.23163
40300.00000	115.92863	-730.28984	115.92863
40350.00000	115.61931	-733.27603	115.61931
40400.00000	115.30630	-736.15028	115.30630
40450.00000	114.99568	-739.02995	114.99568
40500.00000	114.69135	-741.66389	114.69135
40550.00000	114.35601	-744.25828	114.35601
40600.00000	114.05465	-746.61652	114.05465
40650.00000	113.72565	-749.03530	113.72565
40700.00000	113.41161	-751.30502	113.41161
40750.00000	113.10017	-753.42345	113.10017
40800.00000	112.78778	-755.48695	112.78778
40850.00000	112.47100	-757.33868	112.47100
40900.00000	112.18542	-758.98876	112.18542
40950.00000	111.89583	-760.57750	111.89583
41000.00000	111.63270	-762.09714	111.63270
41050.00000	111.36411	-763.49826	111.36411
41100.00000	111.12599	-764.81071	111.12599
41150.00000	110.88518	-766.02987	110.88518
41200.00000	110.66719	-767.18380	110.66719
41250.00000	110.48655	-768.07894	110.48655
41300.00000	110.30014	-769.23780	110.30014
41350.00000	110.13106	-770.07127	110.13106
41400.00000	110.00122	-770.90297	110.00122
41450.00000	109.89277	-771.78080	109.89277
41500.00000	109.76688	-772.65145	109.76688
41550.00000	109.67190	-773.42667	109.67190
41600.00000	109.62367	-774.41260	109.62367
41650.00000	109.56244	-775.10623	109.56244
41700.00000	109.57605	-776.00014	109.57605
41750.00000	109.58053	-776.93221	109.58053
41800.00000	109.59162	-777.91032	109.59162
41850.00000	109.63903	-779.19932	109.63903
41900.00000	109.75920	-780.55726	109.75920
41950.00000	109.83497	-781.91446	109.83497
42000.00000	109.91734	-783.55013	109.91734
42050.00000	110.01107	-785.50454	110.01107
42100.00000	110.10184	-787.28265	110.10184
42150.00000	110.15230	-789.51992	110.15230
42200.00000	110.23056	-791.58804	110.23056
42250.00000	110.28583	-793.79880	110.28583
42300.00000	110.30158	-796.05710	110.30158
42350.00000	110.36041	-798.41933	110.36041
42400.00000	110.37976	-800.77763	110.37976
42450.00000	110.34697	-803.23452	110.34697
42500.00000	110.32108	-805.58372	110.32108
42550.00000	110.28166	-807.95925	110.28166
42600.00000	110.21623	-810.49405	110.21623
42650.00000	110.18502	-812.68552	110.18502
42700.00000	110.08223	-814.81439	110.08223
42750.00000	110.07019	-817.10912	110.07019
42800.00000	109.99739	-819.35304	109.99739
42850.00000	109.93100	-821.46474	109.93100
42900.00000	109.88262	-823.43130	109.88262
42950.00000	109.80721	-825.55869	109.80721
43000.00000	109.72695	-827.40035	109.72695
43050.00000	109.70983	-829.23997	109.70983
43100.00000	109.65305	-831.42108	109.65305
43150.00000	109.64272	-832.77400	109.64272
43200.00000	109.57216	-834.61261	109.57216
43250.00000	109.51493	-836.11520	109.51493
43300.00000	109.50196	-837.76912	109.50196
43350.00000	109.45542	-839.45723	109.45542
43400.00000	109.42826	-841.45924	109.42826
43450.00000	109.44127	-843.07323	109.44127
43500.00000	109.38572	-844.51361	109.38572
43550.00000	109.40939	-846.43739	109.40939
43600.00000	109.35784	-848.17522	109.35784
43650.00000	109.38343	-850.11318	109.38343
43700.00000	109.36478	-851.49312	109.36478
43750.00000	109.34678	-853.37501	109.34678
43800.00000	109.34706	-855.52362	109.34706
43850.00000	109.34618	-857.11457	109.34618
43900.00000	109.34466	-859.17228	109.34466
43950.00000	109.35148	-860.96211	109.35148
44000.00000	109.37484	-862.64837	109.37484
44050.00000	109.36380	-864.36038	109.36380
44100.00000	109.39860	-866.17266	109.39860
44150.00000	109.40104	-867.54826	109.40104
44200.00000	109.40353	-869.50307	109.40353
44250.00000	109.47346	-871.04194	109.47346
44300.00000	109.46542	-872.68341	109.46542
44350.00000	109.48481	-874.35374	109.48481
44400.00000	109.55606	-875.65123	109.55606
44450.00000	109.60982	-877.26318	109.60982
44500.00000	109.61272	-878.35462	109.61272
44550.00000	109.65707	-879.53794	109.65707
44600.00000	109.70901	-881.53557	109.70901
44650.00000	109.78685	-882.75234	109.78685
44700.00000	109.89160	-884.29609	109.89160
44750.00000	109.97768	-885.86984	109.97768
44800.00000	110.04554	-887.59803	110.04554
44850.00000	110.15140	-889.32296	110.15140
44900.00000	110.31255	-890.78700	110.31255
44950.00000	110.43406	-892.47510	110.43406
45000.00000	110.58861	-894.57905	110.58861
45050.00000	110.74710	-896.25172	110.74710
45100.00000	110.89777	-897.87973	110.89777
45150.00000	111.05962	-899.89923	111.05962
45200.00000	111.24566	-901.78502	111.24566
45250.00000	111.47077	-903.64346	111.47077
45300.00000	111.61356	-906.04908	111.61356
45350.00000	111.79970	-907.83863	111.79970
45400.00000	112.03048	-909.81994	112.03048
45450.00000	112.29455	-912.13636	112.29455
45500.00000	112.43746	-914.20847	112.43746
45550.00000	112.70976	-916.34732	112.70976
45600.00000	112.95509	-919.05410	112.95509
45650.00000	113.23140	-921.71785	113.23140
45700.00000	113.47157	-924.64891	113.47157
45750.00000	113.74518	-927.55742	113.74518
45800.00000	113.96739	-930.80339	113.96739
45850.00000	114.22565	-934.50962	114.22565
45900.00000	114.44407	-938.44399	114.44407
45950.00000	114.64460	-942.38830	114.64460
46000.00000	114.82045	-946.44254	114.82045
46050.00000	114.94817	-950.57840	114.94817
46100.00000	115.07899	-954.61305	115.07899
46150.00000	115.18273	-958.68384	115.18273
46200.00000	115.25049	-962.94677	115.25049
46250.00000	115.32636	-967.05824	115.32636
46300.00000	115.32412	-971.23319	115.32412
46350.00000	115.32597	-975.34265	115.32597
46400.00000	115.30498	-979.40030	115.30498
46450.00000	115.26687	-983.00332	115.26687
46500.00000	115.21062	-987.09067	115.21062
46550.00000	115.11245	-991.03401	115.11245
46600.00000	115.05326	-994.77094	115.05326
46650.00000	114.90597	-998.24299	114.90597
46700.00000	114.84480	-1001.71142	114.84480
46750.00000	114.70871	-1005.26530	114.70871
46800.00000	114.62262	-1008.66487	114.62262
46850.00000	114.57641	-1012.18862	114.57641
46900.00000	114.45819	-1015.38865	114.45819
46950.00000	114.36306	-1018.63209	114.36306
47000.00000	114.19290	-1022.11481	114.19290
47050.00000	114.11915	-1025.60358	114.11915
47100.00000	113.97506	-1028.46817	113.97506
47150.00000	113.86877	-1031.36375	113.86877
47200.00000	113.75984	-1034.65188	113.75984
47250.00000	113.60447	-1037.47074	113.60447
47300.00000	113.51218	-1040.55350	113.51218
47350.00000	113.46102	-1043.06099	113.46102
47400.00000	113.28162	-1046.08924	113.28162
47450.00000	113.21581	-1048.78848	113.21581
47500.00000	113.14118	-1051.42051	113.14118
47550.00000	113.00706	-1054.34798	113.00706
47600.00000	112.87879	-1057.24719	112.87879
47650.00000	112.74171	-1060.08055	112.74171
47700.00000	112.70412	-1063.11664	112.70412
47750.00000	112.58498	-1065.85688	112.58498
47800.00000	112.48746	-1068.66157	112.48746
47850.00000	112.44902	-1070.98988	112.44902
47900.00000	112.33809	-1073.66240	112.33809
47950.00000	112.32837	-1076.55435	112.32837
48000.00000	112.19970	-1079.74939	112.19970
48050.00000	112.17346	-1082.06037	112.17346
48100.00000	112.11190	-1085.51000	112.11190
48150.00000	112.10616	-1088.08465	112.10616
48200.00000	112.00827	-1091.20325	112.00827
48250.00000	111.94031	-1093.94029	111.94031
48300.00000	111.90209	-1097.10115	111.90209
48350.00000	111.88151	-1100.42368	111.88151
48400.00000	111.72355	-1103.85483	111.72355
48450.00000	111.70394	-1107.07657	111.70394
48500.00000	111.60183	-1110.14855	111.60183
48550.00000	111.48733	-1113.54949	111.48733
48600.00000	111.33400	-1117.67434	111.33400
48650.00000	111.22848	-1120.82244	111.22848
48700.00000	111.07969	-1123.79330	111.07969
48750.00000	110.92195	-1128.20757	110.92195
48800.00000	110.67338	-1130.95748	110.67338
48850.00000	110.38602	-775.61790	110.38602
48900.00000	110.27091	-778.59365	110.27091
48950.00000	109.85743	-422.41969	109.85743
49000.00000	109.62688	-66.15791	109.62688
49050.00000	109.39960	290.01131	109.39960
49100.00000	109.04060	287.99444	109.04060
49150.00000	108.65141	643.84288	108.65141
49200.00000	108.17228	642.73357	108.17228
49250.00000	107.88656	999.97170	107.88656
49300.00000	107.49540	998.38368	107.49540
49350.00000	107.06775	1356.24597	107.06775
49400.00000	106.58395	1713.36548	106.58395
49450.00000	106.29986	1712.50752	106.29986
49500.00000	105.93641	2071.83585	105.93641
49550.00000	105.62510	2430.17494	105.62510
49600.00000	105.33535	2789.15580	105.33535
49650.00000	104.99457	3146.49424	104.99457
49700.00000	104.60420	3506.09274	104.60420
49750.00000	104.46529	3866.13299	104.46529
49800.00000	104.23181	3866.25620	104.23181
49850.00000	104.00588	4582.98486	104.00588
49900.00000	103.98174	4583.65379	103.98174
49950.00000	103.62162	4943.58218	103.62162
50000.00000	103.62137	4942.28966	103.62137
50050.00000	103.37517	4942.23252	103.37517
50100.00000	103.27266	4941.57184	103.27266
50150.00000	103.31498	4940.40786	103.31498
50200.00000	103.29566	4939.23652	103.29566
50250.00000	103.03202	4938.21271	103.03202
50300.00000	103.04742	4937.88104	103.04742
50350.00000	102.99133	4937.89674	102.99133
50400.00000	103.18942	4936.43899	103.18942
50450.00000	102.99658	4935.16425	102.99658
50500.00000	102.94321	4934.98653	102.94321
50550.00000	102.94623	4933.29877	102.94623
50600.00000	103.14621	4932.08604	103.14621
50650.00000	103.10999	4930.53033	103.10999
50700.00000	102.99794	4929.33789	102.99794
50750.00000	102.98904	4927.46240	102.98904
50800.00000	103.03617	4925.81099	103.03617
50850.00000	102.99323	4924.26469	102.99323
50900.00000	103.01634	4922.06264	103.01634
50950.00000	103.04181	4920.41840	103.04181
51000.00000	103.20318	4918.05620	103.20318
51050.00000	103.12733	4917.35483	103.12733
51100.00000	103.13600	4915.06205	103.13600
51150.00000	103.03012	4912.19855	103.03012
51200.00000	103.01442	4910.68787	103.01442
51250.00000	102.97977	4909.07910	102.97977
51300.00000	102.99765	4906.73680	102.99765
51350.00000	102.98645	4905.81259	102.98645
51400.00000	102.97617	4902.00143	102.97617
51450.00000	102.70609	4901.13331	102.70609
51500.00000	102.67054	4898.94375	102.67054
51550.00000	102.68925	4896.98891	102.68925
51600.00000	102.54788	4894.97401	102.54788
51650.00000	102.30823	4892.54806	102.30823
51700.00000	102.27849	4890.88431	102.27849
51750.00000	102.17457	4888.99482	102.17457
51800.00000	102.20237	4887.12311	102.20237
51850.00000	101.96756	4884.74689	101.96756
51900.00000	101.76234	4883.82391	101.76234
51950.00000	101.48008	4882.52199	101.48008
52000.00000	101.24099	4880.96306	101.24099
52050.00000	101.23761	4880.43594	101.23761
52100.00000	101.14018	4879.66246	101.14018
52150.00000	101.00373	4879.28571	101.00373
52200.00000	100.82734	4878.34966	100.82734
52250.00000	100.64973	4876.32186	100.64973
52300.00000	100.40593	4878.72313	100.40593
52350.00000	100.54466	4877.33103	100.54466
52400.00000	100.57602	4875.74515	100.57602
52450.00000	100.45984	4875.66212	100.45984
52500.00000	100.55162	4874.37067	100.55162
52550.00000	100.56382	4875.80727	100.56382
52600.00000	100.51425	4873.57022	100.51425
52650.00000	100.69489	4874.30664	100.69489
52700.00000	100.84591	4873.66188	100.84591
52750.00000	100.94280	4873.37337	100.94280
52800.00000	101.15698	4872.74162	101.15698
52850.00000	101.06142	4871.74864	101.06142
52900.00000	101.25088	4869.56245	101.25088
52950.00000	101.45365	4869.07884	101.45365
53000.00000	101.58876	4867.46573	101.58876
53050.00000	101.61290	4866.59440	101.61290
53100.00000	101.93404	4864.66073	101.93404
53150.00000	102.08277	4862.98644	102.08277
53200.00000	102.06505	4861.11521	102.06505
53250.00000	102.26284	4859.95980	102.26284
53300.00000	102.46760	4858.08115	102.46760
53350.00000	102.53850	4856.66456	102.53850
53400.00000	102.78097	4854.91226	102.78097
53450.00000	102.93591	4852.09465	102.93591
53500.00000	103.15503	4850.38503	103.15503
53550.00000	103.20071	4848.31651	103.20071
53600.00000	103.26293	4846.07911	103.26293
53650.00000	103.38291	4843.68763	103.38291
53700.00000	103.55944	4841.06188	103.55944
53750.00000	103.58818	4838.55669	103.58818
53800.00000	103.79816	4837.11860	103.79816
53850.00000	103.82470	4834.30209	103.82470
53900.00000	103.94721	4832.27705	103.94721
53950.00000	104.00195	4830.04093	104.00195
54000.00000	104.07799	4826.78283	104.07799
54050.00000	104.15163	4824.09960	104.15163
54100.00000	104.14238	4821.93577	104.14238
54150.00000	104.11308	4819.09565	104.11308
54200.00000	103.98616	4817.04219	103.98616
54250.00000	104.08675	4814.27515	104.08675
54300.00000	104.01777	4812.00306	104.01777
54350.00000	104.13608	4810.19756	104.13608
54400.00000	104.16439	4808.10331	104.16439
54450.00000	104.10412	4805.33499	104.10412
54500.00000	104.04285	4803.63515	104.04285
54550.00000	103.84205	4801.81931	103.84205
54600.00000	103.84249	4800.32572	103.84249
54650.00000	103.86141	4798.39488	103.86141
54700.00000	103.74563	4796.65388	103.74563
54750.00000	103.87737	4795.43105	103.87737
54800.00000	103.77065	4793.28702	103.77065
54850.00000	103.58639	4792.42054	103.58639
54900.00000	103.88457	4790.74134	103.88457
54950.00000	103.79993	4789.72060	103.79993
55000.00000	103.98705	4788.95982	103.98705
55050.00000	103.90141	4786.76516	103.90141
55100.00000	104.05978	4785.68857	104.05978
55150.00000	104.13436	4784.66322	104.13436
55200.00000	104.14476	4783.57687	104.14476
55250.00000	104.26692	4782.50071	104.26692
55300.00000	104.52541	4780.56923	104.52541
55350.00000	104.58822	4779.97389	104.58822
55400.00000	104.76073	4777.81768	104.76073
55450.00000	105.03806	4776.75328	105.03806
55500.00000	105.28409	4774.93879	105.28409
55550.00000	105.40184	4773.30931	105.40184
55600.00000	105.67222	4771.54673	105.67222
55650.00000	105.94911	4769.62434	105.94911
55700.00000	106.17734	4767.92213	106.17734
55750.00000	106.44560	4765.45534	106.44560
55800.00000	106.75659	4763.56547	106.75659
55850.00000	106.99591	4760.79941	106.99591
55900.00000	107.27006	4758.43617	107.27006
55950.00000	107.58508	4755.58044	107.58508
56000.00000	107.85617	4752.63366	107.85617
56050.00000	108.09534	4749.90581	108.09534
56100.00000	108.35420	4746.21942	108.35420
56150.00000	108.59868	4743.45254	108.59868
56200.00000	108.82084	4739.95617	108.82084
56250.00000	109.02930	4736.09626	109.02930
56300.00000	109.25995	4732.62170	109.25995
56350.00000	109.44236	4728.99453	109.44236
56400.00000	109.62106	4725.60203	109.62106
56450.00000	109.72320	4721.36134	109.72320
56500.00000	109.94305	4717.71506	109.94305
56550.00000	110.03148	4713.56896	110.03148
56600.00000	110.13929	4709.80962	110.13929
56650.00000	110.25694	4705.74316	110.25694
56700.00000	110.32411	4701.63804	110.32411
56750.00000	110.41875	4697.80266	110.41875
56800.00000	110.42168	4693.58309	110.42168
56850.00000	110.49480	4689.52845	110.49480
56900.00000	110.45297	4685.32326	110.45297
56950.00000	110.44909	4681.42259	110.44909
57000.00000	110.43709	4677.29920	110.43709
57050.00000	110.41279	4673.32742	110.41279
57100.00000	110.32628	4669.34323	110.32628
57150.00000	110.24846	4665.08944	110.24846
57200.00000	110.11315	4661.47355	110.11315
57250.00000	110.06303	4657.48424	110.06303
57300.00000	109.95345	4653.82123	109.95345
57350.00000	109.79224	4650.23923	109.79224
57400.00000	109.62060	4646.74687	109.62060
57450.00000	109.46208	4643.24827	109.46208
57500.00000	109.27900	4639.73706	109.27900
57550.00000	109.12794	4636.43072	109.12794
57600.00000	108.91046	4633.38156	108.91046
57650.00000	108.69196	4630.53388	108.69196
57700.00000	108.48065	4627.69727	108.48065
57750.00000	108.30225	4625.00997	108.30225
57800.00000	108.06808	4622.59583	108.06808
57850.00000	107.93235	4620.30581	107.93235
57900.00000	107.74480	4618.13295	107.74480
57950.00000	107.54817	4615.94799	107.54817
58000.00000	107.43270	4614.07281	107.43270
58050.00000	107.33389	4612.24374	107.33389
58100.00000	107.28749	4610.32649	107.28749
58150.00000	107.23631	4608.56168	107.23631
58200.00000	107.21052	4606.55753	107.21052
58250.00000	107.20493	4604.22528	107.20493
58300.00000	107.17510	4601.66283	107.17510
58350.00000	107.19304	4599.33572	107.19304
58400.00000	107.17906	4596.59520	107.17906
58450.00000	107.13546	4594.26616	107.13546
58500.00000	107.09694	4591.61802	107.09694
58550.00000	107.07526	4588.90518	107.07526
58600.00000	107.00461	4586.33668	107.00461
58650.00000	106.95252	4583.97375	106.95252
58700.00000	106.85651	4581.32161	106.85651
58750.00000	106.81755	4578.80590	106.81755
58800.00000	106.77863	4576.23984	106.77863
58850.00000	106.72573	4573.76194	106.72573
58900.00000	106.62162	4571.19481	106.62162
58950.00000	106.57785	4568.52029	106.57785
59000.00000	106.51128	4566.17174	106.51128
59050.00000	106.42611	4563.51819	106.42611
59100.00000	106.35042	4561.01303	106.35042
59150.00000	106.26923	4558.61844	106.26923
59200.00000	106.19430	4556.15203	106.19430
59250.00000	106.07371	4553.85628	106.07371
59300.00000	105.99899	4551.69710	105.99899
59350.00000	105.89316	4549.45224	105.89316
59400.00000	105.86119	4547.39678	105.86119
59450.00000	105.76290	4545.39019	105.76290
59500.00000	105.73140	4543.32406	105.73140
59550.00000	105.70882	4541.56924	105.70882
59600.00000	105.66578	4539.59139	105.66578
59650.00000	105.69157	4537.29746	105.69157
59700.00000	105.69718	4535.23763	105.69718
59750.00000	105.70767	4532.97338	105.70767
59800.00000	105.70557	4530.95629	105.70557
59850.00000	105.78589	4528.40438	105.78589
59900.00000	105.81121	4525.82756	105.81121
59950.00000	105.87703	4523.57200	105.87703
60000.00000	105.94344	4520.56742	105.94344
60050.00000	105.96141	4517.64309	105.96141
60100.00000	105.95509	4514.50726	105.95509
60150.00000	105.97692	4511.41190	105.97692
60200.00000	105.94335	4507.80073	105.94335
60250.00000	105.90633	4504.14671	105.90633
60300.00000	105.81069	4500.75304	105.81069
60350.00000	105.63372	4497.51628	105.63372
60400.00000	105.44298	4494.26581	105.44298
60450.00000	105.21731	4491.29048	105.21731
60500.00000	104.99974	4488.59180	104.99974
60550.00000	104.71508	4486.19291	104.71508
60600.00000	104.47076	4484.55351	104.47076
60650.00000	104.25474	4482.80748	104.25474
60700.00000	104.07266	4480.86539	104.07266
60750.00000	103.91880	4479.52723	103.91880
60800.00000	103.77468	4478.27661	103.77468
60850.00000	103.73696	4476.79240	103.73696
60900.00000	103.61917	4475.42989	103.61917
60950.00000	103.58703	4473.86765	103.58703
61000.00000	103.54707	4472.60504	103.54707
61050.00000	103.55512	4470.88195	103.55512
61100.00000	103.54985	4469.30826	103.54985
61150.00000	103.53574	4467.75107	103.53574
61200.00000	103.57559	4465.87074	103.57559
61250.00000	103.58477	4464.13927	103.58477
61300.00000	103.61658	4462.35359	103.61658
61350.00000	103.62348	4460.44831	103.62348
61400.00000	103.66233	4458.55966	103.66233
61450.00000	103.71308	4456.84683	103.71308
61500.00000	103.72027	4454.98792	103.72027
61550.00000	103.80695	4452.97429	103.80695
61600.00000	103.89759	4450.73806	103.89759
61650.00000	103.95505	4448.93767	103.95505
61700.00000	104.03584	4446.51547	104.03584
61750.00000	104.09942	4444.51837	104.09942
61800.00000	104.21503	4442.15213	104.21503
61850.00000	104.29345	4439.57689	104.29345
61900.00000	104.38953	4437.13131	104.38953
61950.00000	104.46695	4434.91997	104.46695
62000.00000	104.56170	4432.07762	104.56170
62050.00000	104.65524	4429.35355	104.65524
62100.00000	104.72561	4426.45077	104.72561
62150.00000	104.80421	4423.66939	104.80421
62200.00000	104.85612	4420.82998	104.85612
62250.00000	104.89368	4417.64690	104.89368
62300.00000	104.95019	4414.36734	104.95019
62350.00000	104.96679	4411.52387	104.96679
62400.00000	105.00413	4408.28935	105.00413
62450.00000	104.98909	4404.78755	104.98909
62500.00000	105.00552	4402.02790	105.00552
62550.00000	104.97660	4398.46378	104.97660
62600.00000	104.93399	4395.22769	104.93399
62650.00000	104.91806	4392.24192	104.91806
62700.00000	104.80297	4388.53990	104.80297
62750.00000	104.74694	4385.46743	104.74694
62800.00000	104.66790	4382.76714	104.66790
62850.00000	104.60300	4379.44928	104.60300
62900.00000	104.41593	4376.71213	104.41593
62950.00000	104.26493	4373.77237	104.26493
63000.00000	104.12713	4370.88012	104.12713
63050.00000	104.00525	4368.58039	104.00525
63100.00000	103.88525	4366.03200	103.88525
63150.00000	103.79932	4363.88126	103.79932
63200.00000	103.63176	4361.22484	103.63176
63250.00000	103.51937	4359.21183	103.51937
63300.00000	103.43813	4357.23334	103.43813
63350.00000	103.37768	4355.51531	103.37768
63400.00000	103.27585	4353.63338	103.27585
63450.00000	103.19975	4351.37865	103.19975
63500.00000	103.16735	4349.80784	103.16735
63550.00000	103.20725	4348.03266	103.20725
63600.00000	103.22912	4346.12339	103.22912
63650.00000	103.30626	4344.18036	103.30626
63700.00000	103.36853	4342.47530	103.36853
63750.00000	103.41436	4339.74653	103.41436
63800.00000	103.54938	4337.85101	103.54938
63850.00000	103.68794	4335.51346	103.68794
63900.00000	103.82331	4333.04684	103.82331
63950.00000	103.96799	4330.04403	103.96799
64000.00000	104.06229	4327.27119	104.06229
64050.00000	104.22265	4324.39402	104.22265
64100.00000	104.41502	4320.99664	104.41502
64150.00000	104.46457	4317.39065	104.46457
64200.00000	104.61097	4313.60034	104.61097
64250.00000	104.68272	4309.83285	104.68272
64300.00000	104.76738	4306.23042	104.76738
64350.00000	104.85049	4301.94512	104.85049
64400.00000	104.86692	4297.93990	104.86692
64450.00000	104.88053	4293.94544	104.88053
64500.00000	104.87204	4289.16103	104.87204
64550.00000	104.76420	4284.65726	104.76420
64600.00000	104.70891	4280.13760	104.70891
64650.00000	104.53777	4275.58553	104.53777
64700.00000	104.42655	4271.04196	104.42655
64750.00000	104.21045	4266.79353	104.21045
64800.00000	103.88563	4262.73006	103.88563
64850.00000	103.66982	4258.70324	103.66982
64900.00000	103.43088	4255.53670	103.43088
64950.00000	103.18851	4252.34330	103.18851
65000.00000	103.08793	4248.47439	103.08793
65050.00000	102.94562	4244.96478	102.94562
65100.00000	102.81160	4240.90169	102.81160
65150.00000	102.60548	4236.14024	102.60548
65200.00000	102.32573	4231.26898	102.32573
65250.00000	101.96755	4225.75872	101.96755
65300.00000	101.49893	4220.40719	101.49893
65350.00000	100.82364	4215.71390	100.82364
65400.00000	100.12822	4210.62803	100.12822
65450.00000	99.18130	4207.48277	99.18130
65500.00000	98.22599	4205.34251	98.22599
65550.00000	97.17465	4204.90250	97.17465
65600.00000	96.24454	4205.08854	96.24454
65650.00000	95.47245	4208.51062	95.47245
65700.00000	95.00043	4211.07443	95.00043
65750.00000	94.72321	4214.00900	94.72321
65800.00000	94.68207	4217.69306	94.68207
65850.00000	94.75809	4219.67720	94.75809
65900.00000	94.82130	4221.01673	94.82130
65950.00000	95.11737	4221.32433	95.11737
66000.00000	95.43117	4221.74551	95.43117
66050.00000	95.54342	4221.06713	95.54342
66100.00000	95.79304	4220.95191	95.79304
66150.00000	96.11866	4220.10935	96.11866
66200.00000	96.43850	4218.84579	96.43850
66250.00000	96.82035	4217.65726	96.82035
66300.00000	97.16303	4215.18182	97.16303
66350.00000	97.47046	4211.71904	97.47046
66400.00000	97.74762	4207.59270	97.74762
66450.00000	97.89297	4204.35682	97.89297
66500.00000	97.99154	4199.77471	97.99154
66550.00000	98.05028	4194.94644	98.05028
66600.00000	97.82328	4191.09525	97.82328
66650.00000	97.68420	4186.90233	97.68420
66700.00000	97.50605	4183.50089	97.50605
66750.00000	97.27530	4180.23765	97.27530
66800.00000	97.02122	4177.73410	97.02122
66850.00000	96.77977	4175.63776	96.77977
66900.00000	96.60003	4173.03491	96.60003
66950.00000	96.41884	4171.71057	96.41884
67000.00000	96.30315	4168.01558	96.30315
67050.00000	96.15715	4166.86655	96.15715
67100.00000	95.95458	4164.49725	95.95458
67150.00000	95.84628	4162.47247	95.84628
67200.00000	95.75878	4160.48784	95.75878
67250.00000	95.66414	4158.00527	95.66414
67300.00000	95.49197	4156.42097	95.49197
67350.00000	95.42482	4154.40306	95.42482
67400.00000	95.24022	4152.44689	95.24022
67450.00000	95.05545	4150.75434	95.05545
67500.00000	95.01231	4149.18813	95.01231
67550.00000	94.95543	4146.92832	94.95543
67600.00000	94.93412	4144.59654	94.93412
67650.00000	94.87031	4142.62995	94.87031
67700.00000	94.76288	4140.16459	94.76288
67750.00000	94.68964	4137.98953	94.68964
67800.00000	94.58960	4135.98234	94.58960
67850.00000	94.48824	4133.15790	94.48824
67900.00000	94.26844	4130.73941	94.26844
67950.00000	94.23065	4129.13956	94.23065
68000.00000	94.01276	4126.53693	94.01276
68050.00000	93.78722	4124.28083	93.78722
68100.00000	93.62769	4122.47445	93.62769
68150.00000	93.38306	4121.70603	93.38306
68200.00000	93.24222	4120.76298	93.24222
68250.00000	92.99582	4119.37051	92.99582
68300.00000	93.11236	4118.85464	93.11236
68350.00000	92.88154	4117.46537	92.88154
68400.00000	92.77740	4117.05178	92.77740
68450.00000	92.84479	4116.92399	92.84479
68500.00000	92.98302	4116.10343	92.98302
68550.00000	93.05082	4114.77907	93.05082
68600.00000	93.14655	4113.81340	93.14655
68650.00000	93.32951	4113.43958	93.32951
68700.00000	93.49333	4111.79521	93.49333
68750.00000	93.78641	4110.56413	93.78641
68800.00000	94.06866	4108.40655	94.06866
68850.00000	94.29495	4106.24658	94.29495
68900.00000	94.59841	4103.23071	94.59841
68950.00000	94.85240	4100.69458	94.85240
69000.00000	95.11620	4096.86780	95.11620
69050.00000	95.37395	4093.48902	95.37395
69100.00000	95.62453	4089.08839	95.62453
69150.00000	95.73243	4084.76719	95.73243
69200.00000	95.84599	4080.89756	95.84599
69250.00000	95.94075	4076.38551	95.94075
69300.00000	95.96004	4071.72084	95.96004
69350.00000	95.97050	4067.27143	95.97050
69400.00000	95.91832	4062.58671	95.91832
69450.00000	95.86143	4057.38146	95.86143
69500.00000	95.81043	4052.76253	95.81043
69550.00000	95.60680	4047.38241	95.60680
69600.00000	95.38941	4042.49863	95.38941
69650.00000	95.20084	4037.85123	95.20084
69700.00000	94.81279	4032.03344	94.81279
69750.00000	94.44738	4026.37916	94.44738
69800.00000	93.93551	4021.60082	93.93551
69850.00000	93.37073	4016.44601	93.37073
69900.00000	92.71414	4012.50941	92.71414
69950.00000	91.99537	4008.19764	91.99537
70000.00000	91.15255	4004.47400	91.15255
70050.00000	90.27503	4002.64958	90.27503
70100.00000	89.33138	4001.24276	89.33138
70150.00000	88.37180	4000.05721	88.37180
70200.00000	87.38025	4001.16960	87.38025
70250.00000	86.50916	4003.59276	86.50916
70300.00000	85.71610	4007.04113	85.71610
70350.00000	85.52774	4012.32218	85.52774
70400.00000	84.99701	4017.95985	84.99701
70450.00000	84.98689	4021.57991	84.98689
70500.00000	85.62477	4026.01206	85.62477
70550.00000	85.82044	4028.61290	85.82044
70600.00000	86.34838	4031.16331	86.34838
70650.00000	86.88070	4032.12078	86.88070
70700.00000	87.38753	4031.87587	87.38753
70750.00000	87.87608	4031.51471	87.87608
70800.00000	88.42909	4030.16443	88.42909
70850.00000	88.74485	4028.39885	88.74485
70900.00000	89.25685	4026.74774	89.25685
70950.00000	89.79560	4025.67033	89.79560
71000.00000	90.08268	4023.19373	90.08268
71050.00000	90.63700	4020.91241	90.63700
71100.00000	90.97083	4018.58029	90.97083
71150.00000	91.52592	4015.39878	91.52592
71200.00000	92.07913	4012.29405	92.07913
71250.00000	92.62333	4008.22289	92.62333
71300.00000	93.09616	4003.13277	93.09616
71350.00000	93.49973	3997.80712	93.49973
71400.00000	93.80952	3992.21724	93.80952
71450.00000	94.10201	3985.49080	94.10201
71500.00000	94.17680	3980.31564	94.17680
71550.00000	94.16569	3974.27051	94.16569
71600.00000	94.29240	3968.48921	94.29240
71650.00000	94.18831	3962.15070	94.18831
71700.00000	94.01502	3955.26624	94.01502
71750.00000	94.10628	3949.78030	94.10628
71800.00000	93.80357	3944.25595	93.80357
71850.00000	93.48939	3937.74972	93.48939
71900.00000	93.20983	3933.18995	93.20983
71950.00000	92.76752	3925.89736	92.76752
72000.00000	92.33684	3923.31789	92.33684
72050.00000	91.88502	3920.54616	91.88502
72100.00000	91.51697	3917.06821	91.51697
72150.00000	91.53910	3913.43342	91.53910
72200.00000	91.37309	3908.94112	91.37309
72250.00000	91.29220	3904.25910	91.29220
72300.00000	91.28706	3900.13340	91.28706
72350.00000	90.94967	3894.09521	90.94967
72400.00000	90.99852	3887.61894	90.99852
72450.00000	90.61594	3882.06354	90.61594
72500.00000	90.24176	3875.81994	90.24176
72550.00000	90.14909	3868.53725	90.14909
72600.00000	89.54189	3862.41557	89.54189
72650.00000	88.97620	3853.68274	88.97620
72700.00000	88.35038	3846.09029	88.35038
72750.00000	87.41879	3839.48211	87.41879
72800.00000	86.62032	3828.41115	86.62032
72850.00000	85.82263	3818.73506	85.82263
72900.00000	84.11224	3810.25841	84.11224
72950.00000	82.77747	3799.00433	82.77747
73000.00000	80.45294	3789.64796	80.45294
73050.00000	77.62491	3774.87669	77.62491
73100.00000	74.95517	3759.55265	74.95517
73150.00000	69.79468	3727.42759	69.79468
73200.00000	67.86740	3677.94927	67.86740
73250.00000	66.87594	3613.27973	66.87594
73300.00000	73.93480	3600.54400	73.93480
73350.00000	75.02292	3583.81872	75.02292
73400.00000	77.25280	3573.72411	77.25280
73450.00000	77.75980	3566.86664	77.75980
73500.00000	78.72389	3556.13363	78.72389
73550.00000	79.54483	3550.52386	79.54483
73600.00000	79.63905	3547.43064	79.63905
73650.00000	79.82780	3540.58350	79.82780
73700.00000	81.08025	3534.10768	81.08025
73750.00000	81.14137	3530.67468	81.14137
73800.00000	81.47657	3523.69826	81.47657
73850.00000	81.89836	3518.09320	81.89836
73900.00000	81.51128	3510.11507	81.51128
73950.00000	82.21536	3503.70409	82.21536
74000.00000	82.37491	3500.55589	82.37491
74050.00000	82.52461	3489.04882	82.52461
74100.00000	82.93060	3478.90767	82.93060
74150.00000	82.78924	3464.94881	82.78924
74200.00000	82.95998	3458.21387	82.95998
74250.00000	82.25403	3445.76748	82.25403
74300.00000	83.29890	3418.03382	83.29890
74350.00000	82.31737	3404.26127	82.31737
74400.00000	79.91323	3342.91004	79.91323
74450.00000	76.49698	3165.61846	76.49698
74500.00000	80.67063	3095.20554	80.67063
74550.00000	79.60339	3058.31511	79.60339
74600.00000	79.85745	3029.56410	79.85745
74650.00000	80.64406	3009.83131	80.64406
74700.00000	80.10256	2993.75832	80.10256
74750.00000	81.46592	2977.25795	81.46592
74800.00000	81.64445	2964.91433	81.64445
74850.00000	82.16804	2947.49579	82.16804
74900.00000	83.01652	2936.66496	83.01652
74950.00000	83.44455	2921.10486	83.44455
75000.00000	84.24110	2913.11123	84.24110
75050.00000	84.47961	2903.09375	84.47961
75100.00000	84.67297	2893.91529	84.67297
75150.00000	85.20324	2885.84521	85.20324
75200.00000	85.38971	2875.40915	85.38971
75250.00000	85.38515	2866.07924	85.38515
75300.00000	85.59312	2858.90799	85.59312
75350.00000	86.09277	2854.02860	86.09277
75400.00000	85.83370	2847.92198	85.83370
75450.00000	86.13462	2841.79857	86.13462
75500.00000	86.42560	2837.00590	86.42560
75550.00000	86.08438	2829.61142	86.08438
75600.00000	86.78291	2826.77128	86.78291
75650.00000	86.38823	2821.66088	86.38823
75700.00000	86.72321	2814.70427	86.72321
75750.00000	87.14055	2813.36795	87.14055
75800.00000	86.78211	2806.85583	86.78211
75850.00000	87.24463	2803.70123	87.24463
75900.00000	86.69445	2801.05349	86.69445
75950.00000	86.76364	2797.04106	86.76364
76000.00000	87.44778	2791.84277	87.44778
76050.00000	86.75784	2786.38394	86.75784
76100.00000	87.32902	2784.92772	87.32902
76150.00000	87.16704	2781.98211	87.16704
76200.00000	87.24757	2775.92503	87.24757
76250.00000	87.68633	2773.50258	87.68633
76300.00000	87.10874	2771.70014	87.10874
76350.00000	87.48551	2765.47422	87.48551
76400.00000	87.51378	2765.75278	87.51378
76450.00000	86.89158	2761.21723	86.89158
76500.00000	87.99061	2758.34292	87.99061
76550.00000	87.90119	2755.98157	87.90119
76600.00000	87.68842	2749.67155	87.68842
76650.00000	88.23760	2748.03976	88.23760
76700.00000	87.32608	2745.68083	87.32608
76750.00000	87.79924	2740.07270	87.79924
76800.00000	87.95466	2739.86517	87.95466
76850.00000	87.70848	2731.09486	87.70848
76900.00000	88.47089	2730.50597	88.47089
76950.00000	87.91701	2729.25121	87.91701
77000.00000	88.04742	2722.30849	88.04742
77050.00000	88.51466	2723.13092	88.51466
77100.00000	87.80669	2717.06310	87.80669
77150.00000	88.33609	2711.46388	88.33609
77200.00000	88.25959	2711.67843	88.25959
77250.00000	87.75448	2705.26537	87.75448
77300.00000	88.22122	2701.71916	88.22122
77350.00000	87.53333	2700.73945	87.53333
77400.00000	87.51073	2691.85767	87.51073
77450.00000	87.58129	2693.73275	87.58129
77500.00000	86.98753	2687.71585	86.98753
77550.00000	87.68389	2681.81032	87.68389
77600.00000	87.04716	2685.47225	87.04716
77650.00000	86.43108	2673.34628	86.43108
77700.00000	87.11275	2677.23127	87.11275
77750.00000	86.05542	2673.94994	86.05542
77800.00000	86.62166	2665.92042	86.62166
77850.00000	86.65651	2670.98430	86.65651
77900.00000	85.41744	2659.95407	85.41744
77950.00000	86.48141	2661.02384	86.48141
78000.00000	85.72841	2661.65892	85.72841
78050.00000	85.62396	2652.04558	85.62396
78100.00000	86.17685	2656.94658	86.17685
78150.00000	84.75420	2651.76031	84.75420
78200.00000	86.06214	2644.62876	86.06214
78250.00000	85.63279	2650.34219	85.63279
78300.00000	84.85258	2641.86633	84.85258
78350.00000	85.69812	2641.32637	85.69812
78400.00000	84.42309	2642.02516	84.42309
78450.00000	85.16354	2631.89877	85.16354
78500.00000	85.04849	2636.88464	85.04849
78550.00000	84.23476	2629.78997	84.23476
78600.00000	85.01137	2626.00362	85.01137
78650.00000	83.99553	2629.78085	83.99553
78700.00000	84.10693	2619.24747	84.10693
78750.00000	84.46300	2624.01906	84.46300
78800.00000	83.48877	2618.93985	83.48877
78850.00000	84.23765	2613.74028	84.23765
78900.00000	83.45852	2617.09610	83.45852
78950.00000	83.25468	2607.92171	83.25468
79000.00000	83.89430	2609.92711	83.89430
79050.00000	82.80671	2608.88434	82.80671
79100.00000	83.37097	2602.94797	83.37097
79150.00000	82.88786	2605.94291	82.88786
79200.00000	82.49245	2598.26697	82.49245
79250.00000	83.00281	2598.57747	83.00281
79300.00000	82.41918	2597.67771	82.41918
79350.00000	82.60263	2591.27141	82.60263
79400.00000	82.88356	2594.62305	82.88356
79450.00000	82.08026	2590.52847	82.08026
79500.00000	82.50359	2587.56499	82.50359
79550.00000	81.97874	2590.25770	81.97874
79600.00000	81.85982	2584.07060	81.85982
79650.00000	82.31023	2584.46492	82.31023
79700.00000	81.64790	2579.06300	81.64790
79750.00000	81.92747	2576.96407	81.92747
79800.00000	81.76497	2576.41517	81.76497
79850.00000	81.67858	2572.46314	81.67858
79900.00000	81.66598	2571.73489	81.66598
79950.00000	80.97082	2566.49557	80.97082
80000.00000	81.55077	2565.93501	81.55077
80050.00000	81.30208	2566.36334	81.30208
80100.00000	80.83222	2559.91630	80.83222
80150.00000	80.83224	2558.66269	80.83224
80200.00000	80.31259	2555.36215	80.31259
80250.00000	80.60140	2551.17473	80.60140
80300.00000	79.91708	2551.92204	79.91708
80350.00000	79.42535	2545.51393	79.42535
80400.00000	79.13481	2548.08912	79.13481
80450.00000	78.55595	2547.18341	78.55595
80500.00000	78.32938	2545.35402	78.32938
80550.00000	78.32666	2547.57633	78.32666
80600.00000	77.84266	2546.45115	77.84266
80650.00000	78.15913	2551.88986	78.15913
80700.00000	77.46738	2548.74480	77.46738
80750.00000	78.02770	2546.95787	78.02770
80800.00000	77.88884	2551.22188	77.88884
80850.00000	78.14630	2546.76445	78.14630
80900.00000	78.16919	2550.57810	78.16919
80950.00000	77.86718	2548.92015	77.86718
81000.00000	77.95563	2546.25296	77.95563
81050.00000	78.19637	2545.69538	78.19637
81100.00000	78.26557	2544.66441	78.26557
81150.00000	78.69210	2542.97066	78.69210
81200.00000	78.27550	2540.32375	78.27550
81250.00000	78.23536	2537.78572	78.23536
81300.00000	78.38925	2536.94456	78.38925
81350.00000	77.89897	2534.12504	77.89897
81400.00000	77.71173	2537.32829	77.71173
81450.00000	77.31017	2536.66957	77.31017
81500.00000	77.47644	2536.44234	77.47644
81550.00000	77.34055	2537.76830	77.34055
81600.00000	77.25350	2538.97045	77.25350
81650.00000	77.38668	2540.50965	77.38668
81700.00000	77.77191	2540.49676	77.77191
81750.00000	78.23248	2540.70079	78.23248
81800.00000	78.41153	2541.51567	78.41153
81850.00000	78.60405	2539.93394	78.60405
81900.00000	79.08831	2540.25384	79.08831
81950.00000	79.27897	2537.54019	79.27897
82000.00000	79.77837	2538.15301	79.77837
82050.00000	79.79299	2535.65878	79.79299
82100.00000	80.33431	2533.73850	80.33431
82150.00000	80.41421	2531.64944	80.41421
82200.00000	80.56811	2530.54412	80.56811
82250.00000	80.93703	2528.48446	80.93703
82300.00000	80.87970	2526.20481	80.87970
82350.00000	80.96687	2523.41337	80.96687
82400.00000	80.63191	2523.32490	80.63191
82450.00000	80.76379	2521.27095	80.76379
82500.00000	80.59068	2519.58216	80.59068
82550.00000	80.35924	2520.95734	80.35924
82600.00000	80.27491	2524.98225	80.27491
82650.00000	80.52252	2528.89166	80.52252
82700.00000	80.91957	2533.46722	80.91957
82750.00000	82.33236	2536.06354	82.33236
82800.00000	83.67721	2536.73644	83.67721
82850.00000	85.06801	2533.03728	85.06801
82900.00000	86.30397	2527.44097	86.30397
82950.00000	87.09776	2519.95882	87.09776
83000.00000	87.90769	2514.68946	87.90769
83050.00000	88.53281	2508.57413	88.53281
83100.00000	89.11507	2503.95883	89.11507
83150.00000	89.64044	2498.97993	89.64044
83200.00000	90.12687	2494.23013	90.12687
83250.00000	90.55381	2489.31567	90.55381
83300.00000	91.01343	2484.57868	91.01343
83350.00000	91.39291	2480.56999	91.39291
83400.00000	91.74494	2475.51336	91.74494
83450.00000	92.15422	2471.00139	92.15422
83500.00000	92.52012	2465.82229	92.52012
83550.00000	92.83167	2460.76827	92.83167
83600.00000	93.11038	2456.17607	93.11038
83650.00000	93.34654	2449.89595	93.34654
83700.00000	93.69206	2445.30900	93.69206
83750.00000	93.90450	2438.55231	93.90450
83800.00000	94.08910	2432.47867	94.08910
83850.00000	94.20793	2426.38311	94.20793
83900.00000	94.34952	2419.70993	94.34952
83950.00000	94.37297	2412.96328	94.37297
84000.00000	94.40199	2405.57360	94.40199
84050.00000	94.13620	2398.81327	94.13620
84100.00000	93.98414	2391.92808	93.98414
84150.00000	93.67937	2384.81013	93.67937
84200.00000	93.22607	2379.15006	93.22607
84250.00000	92.69189	2372.74501	92.69189
84300.00000	92.04023	2368.26509	92.04023
84350.00000	91.40069	2364.78254	91.40069
84400.00000	90.79268	2362.35646	90.79268
84450.00000	90.22259	2361.04980	90.22259
84500.00000	89.95915	2361.85944	89.95915
84550.00000	89.88527	2361.26318	89.88527
84600.00000	90.08927	2361.03920	90.08927
84650.00000	90.50021	2359.30458	90.50021
84700.00000	90.83705	2356.88476	90.83705
84750.00000	91.25955	2352.91183	91.25955
84800.00000	91.56430	2346.83623	91.56430
84850.00000	91.75028	2342.06651	91.75028
84900.00000	91.88959	2336.39149	91.88959
84950.00000	91.89392	2330.55459	91.89392
85000.00000	91.92659	2324.00698	91.92659
85050.00000	91.90986	2317.66352	91.90986
85100.00000	91.59435	2311.78621	91.59435
85150.00000	91.49039	2305.28472	91.49039
85200.00000	91.06644	2299.67436	91.06644
85250.00000	91.35199	2293.54540	91.35199
85300.00000	90.48424	2289.05636	90.48424
85350.00000	90.10775	2283.22759	90.10775
85400.00000	89.79640	2278.46192	89.79640
85450.00000	89.30742	2274.28908	89.30742
85500.00000	88.86125	2268.03341	88.86125
85550.00000	88.28643	2263.18496	88.28643
85600.00000	87.80510	2259.90613	87.80510
85650.00000	87.26999	2255.46188	87.26999
85700.00000	86.77867	2251.67709	86.77867
85750.00000	86.14877	2249.11615	86.14877
85800.00000	85.79021	2246.04979	85.79021
85850.00000	85.03676	2242.57176	85.03676
85900.00000	84.45138	2239.85069	84.45138
85950.00000	84.07250	2235.81172	84.07250
86000.00000	83.65450	2234.44277	83.65450
86050.00000	83.06857	2231.51522	83.06857
86100.00000	82.81750	2232.03571	82.81750
86150.00000	82.27580	2226.70034	82.27580
86200.00000	82.01998	2227.12382	82.01998
86250.00000	81.76808	2226.28352	81.76808
86300.00000	80.92950	2222.44281	80.92950
86350.00000	80.80807	2220.25543	80.80807
86400.00000	79.86657	2217.22505	79.86657
86450.00000	79.21594	2217.86323	79.21594
86500.00000	78.61769	2218.33632	78.61769
86550.00000	78.70111	2214.08211	78.70111
86600.00000	78.10760	2214.43797	78.10760
86650.00000	78.21643	2213.86123	78.21643
86700.00000	77.51903	2215.76005	77.51903
86750.00000	77.69275	2213.58783	77.69275
86800.00000	77.20054	2213.00344	77.20054
86850.00000	77.20012	2211.74532	77.20012
86900.00000	76.82642	2207.78674	76.82642
86950.00000	76.44919	2207.36389	76.44919
87000.00000	76.25762	2208.01731	76.25762
87050.00000	76.31887	2206.15886	76.31887
87100.00000	75.70285	2204.76361	75.70285
87150.00000	75.74847	2200.94731	75.74847
87200.00000	75.88070	2200.66528	75.88070
87250.00000	75.37679	2199.62560	75.37679
87300.00000	74.92004	2198.69561	74.92004
87350.00000	74.37547	2197.49434	74.37547
87400.00000	74.08767	2197.42916	74.08767
87450.00000	73.94087	2196.11583	73.94087
87500.00000	73.45332	2195.56171	73.45332
87550.00000	73.20678	2194.50619	73.20678
87600.00000	72.94463	2190.98535	72.94463
87650.00000	71.89486	2191.20124	71.89486
87700.00000	71.81617	2188.25537	71.81617
87750.00000	72.29986	2189.01223	72.29986
87800.00000	71.23654	2192.59669	71.23654
87850.00000	71.55195	2189.26265	71.55195
87900.00000	71.14655	2189.40688	71.14655
87950.00000	70.34085	2193.21666	70.34085
88000.00000	70.89635	2196.20912	70.89635
88050.00000	70.15492	2194.68448	70.15492
88100.00000	70.61842	2195.80963	70.61842
88150.00000	69.92602	2197.58394	69.92602
88200.00000	70.47239	2201.21176	70.47239
88250.00000	70.39422	2201.46666	70.39422
88300.00000	69.93486	2198.94182	69.93486
88350.00000	70.38996	2196.03665	70.38996
88400.00000	69.77765	2194.29340	69.77765
88450.00000	70.26988	2200.36143	70.26988
88500.00000	70.52429	2203.67328	70.52429
88550.00000	71.22932	2200.65336	71.22932
88600.00000	71.35376	2197.24532	71.35376
88650.00000	71.24501	2199.87952	71.24501
88700.00000	71.11395	2201.71253	71.11395
88750.00000	71.59304	2196.73991	71.59304
88800.00000	71.65092	2200.07581	71.65092
88850.00000	72.00864	2201.30596	72.00864
88900.00000	72.71116	2196.28863	72.71116
88950.00000	73.00099	2195.16261	73.00099
89000.00000	72.86310	2197.17311	72.86310
89050.00000	73.03436	2196.90532	73.03436
89100.00000	73.54171	2199.25015	73.54171
89150.00000	73.36288	2192.76293	73.36288
89200.00000	73.66145	2192.71609	73.66145
89250.00000	74.16838	2190.50353	74.16838
89300.00000	74.44717	2185.06036	74.44717
89350.00000	74.51104	2183.72907	74.51104
89400.00000	75.08826	2181.11616	75.08826
89450.00000	75.20540	2180.98727	75.20540
89500.00000	76.02094	2174.14326	76.02094
89550.00000	75.63546	2175.51382	75.63546
89600.00000	75.85517	2170.52536	75.85517
89650.00000	76.13004	2168.03343	76.13004
89700.00000	76.07705	2168.04905	76.07705
89750.00000	76.16156	2162.41279	76.16156
89800.00000	75.96310	2163.05894	75.96310
89850.00000	75.89755	2160.59098	75.89755
89900.00000	76.03673	2155.66994	76.03673
89950.00000	76.63639	2156.94971	76.63639
90000.00000	76.34158	2164.28388	76.34158
90050.00000	77.07071	2168.16282	77.07071
90100.00000	79.32238	2163.67967	79.32238
90150.00000	80.50118	2162.37716	80.50118
90200.00000	83.27881	2156.76922	83.27881
90250.00000	84.22646	2129.63528	84.22646
90300.00000	83.99895	2107.69731	83.99895
90350.00000	81.98415	2096.84033	81.98415
90400.00000	81.14669	2091.12239	81.14669
90450.00000	79.87504	2085.43768	79.87504
90500.00000	78.95837	2078.50463	78.95837
90550.00000	77.52125	2076.75613	77.52125
90600.00000	77.21647	2074.67705	77.21647
90650.00000	76.52135	2070.13853	76.52135
90700.00000	75.37246	2070.11332	75.37246
90750.00000	74.97672	2072.26169	74.97672
90800.00000	74.65411	2072.66406	74.65411
90850.00000	73.88032	2073.24798	73.88032
90900.00000	73.96664	2074.57686	73.96664
90950.00000	73.30004	2078.40122	73.30004
91000.00000	73.29083	2077.22413	73.29083
91050.00000	73.57977	2084.06472	73.57977
91100.00000	73.68912	2078.95630	73.68912
91150.00000	73.17519	2083.35431	73.17519
91200.00000	74.04870	2084.13797	74.04870
91250.00000	74.31678	2083.54572	74.31678
91300.00000	74.17336	2083.40896	74.17336
91350.00000	74.38511	2083.74038	74.38511
91400.00000	75.10357	2081.85993	75.10357
91450.00000	75.27364	2079.73140	75.27364
91500.00000	76.20948	2080.67197	76.20948
91550.00000	76.42377	2076.53024	76.42377
91600.00000	77.13071	2074.65904	77.13071
91650.00000	77.32166	2069.59772	77.32166
91700.00000	77.58148	2069.90845	77.58148
91750.00000	77.89293	2066.07280	77.89293
91800.00000	77.99269	2060.56522	77.99269
91850.00000	78.61847	2055.30828	78.61847
91900.00000	78.74498	2051.74317	78.74498
91950.00000	78.63919	2050.33642	78.63919
92000.00000	78.79366	2045.52291	78.79366
92050.00000	78.99444	2041.95957	78.99444
92100.00000	79.59368	2036.39427	79.59368
92150.00000	79.87822	2034.79845	79.87822
92200.00000	79.42433	2030.11788	79.42433
92250.00000	79.68307	2025.59613	79.68307
92300.00000	80.12987	2024.03442	80.12987
92350.00000	80.25795	2018.29930	80.25795
92400.00000	80.27208	2014.87573	80.27208
92450.00000	80.03801	2011.71740	80.03801
92500.00000	80.37637	2007.49052	80.37637
92550.00000	80.12090	2000.70695	80.12090
92600.00000	80.28230	1999.35262	80.28230
92650.00000	80.42615	1993.81586	80.42615
92700.00000	80.25600	1990.04766	80.25600
92750.00000	80.23769	1986.01726	80.23769
92800.00000	80.22207	1983.06346	80.22207
92850.00000	80.11480	1979.40123	80.11480
92900.00000	79.86417	1976.30783	79.86417
92950.00000	80.29820	1970.28987	80.29820
93000.00000	80.29111	1964.63940	80.29111
93050.00000	80.13581	1960.72851	80.13581
93100.00000	80.27482	1956.99691	80.27482
93150.00000	80.11832	1955.31528	80.11832
93200.00000	80.05046	1946.63910	80.05046
93250.00000	80.05108	1944.74889	80.05108
93300.00000	79.77373	1937.97667	79.77373
93350.00000	79.65084	1933.12028	79.65084
93400.00000	79.64782	1930.32645	79.64782
93450.00000	79.25645	1926.01773	79.25645
93500.00000	79.24438	1919.21403	79.24438
93550.00000	78.86322	1913.63712	78.86322
93600.00000	78.72942	1909.17797	78.72942
93650.00000	78.38165	1904.97165	78.38165
93700.00000	78.02391	1901.24531	78.02391
93750.00000	78.09583	1892.70013	78.09583
93800.00000	77.90013	1889.79998	77.90013
93850.00000	77.20130	1885.48997	77.20130
93900.00000	76.61023	1878.48608	76.61023
93950.00000	76.98501	1876.16845	76.98501
94000.00000	76.07309	1871.31538	76.07309
94050.00000	76.04356	1866.78883	76.04356
94100.00000	75.47432	1866.62384	75.47432
94150.00000	75.67368	1859.67659	75.67368
94200.00000	75.35541	1853.84270	75.35541
94250.00000	75.12270	1853.45504	75.12270
94300.00000	74.68281	1851.26759	74.68281
94350.00000	74.27735	1845.47779	74.27735
94400.00000	73.39031	1843.22374	73.39031
94450.00000	74.60473	1836.06270	74.60473
94500.00000	73.66996	1828.75310	73.66996
94550.00000	73.91711	1826.54837	73.91711
94600.00000	73.24156	1820.55238	73.24156
94650.00000	73.62678	1818.72460	73.62678
94700.00000	72.87392	1813.52409	72.87392
94750.00000	73.02804	1806.55412	73.02804
94800.00000	72.28564	1805.80229	72.28564
94850.00000	72.16641	1799.76505	72.16641
94900.00000	71.57721	1788.60281	71.57721
94950.00000	72.59404	1789.32756	72.59404
95000.00000	71.31403	1785.87340	71.31403
95050.00000	71.29645	1779.41438	71.29645
95100.00000	71.95211	1772.48914	71.95211
95150.00000	70.18186	1772.69330	70.18186
95200.00000	71.03566	1763.11428	71.03566
95250.00000	69.86557	1761.51814	69.86557
95300.00000	69.84755	1752.81760	69.84755
95350.00000	68.75565	1739.25128	68.75565
95400.00000	69.07318	1742.48139	69.07318
95450.00000	68.06749	1744.51221	68.06749
95500.00000	66.25687	1737.65977	66.25687
95550.00000	67.18362	1724.45381	67.18362
95600.00000	67.11425	1723.00906	67.11425
95650.00000	66.85532	1717.77808	66.85532
95700.00000	66.01853	1718.61745	66.01853
95750.00000	65.97394	1729.96468	65.97394
95800.00000	66.67219	1713.81492	66.67219
95850.00000	66.08134	1703.19051	66.08134
95900.00000	64.61604	1688.19832	64.61604
95950.00000	65.92019	1708.39778	65.92019
96000.00000	63.19524	1681.09087	63.19524
96050.00000	67.06226	1697.09080	67.06226
96100.00000	68.30554	1680.62409	68.30554
96150.00000	67.48926	1679.87501	67.48926
96200.00000	66.57670	1653.76761	66.57670
96250.00000	66.16947	1654.25661	66.16947
96300.00000	66.93699	1642.77690	66.93699
96350.00000	69.82683	1622.40421	69.82683
96400.00000	69.02432	1597.78090	69.02432
96450.00000	67.10883	1629.37180	67.10883
96500.00000	62.42144	1592.83501	62.42144
96550.00000	66.34923	1578.58732	66.34923
96600.00000	67.00066	1582.18253	67.00066
96650.00000	67.26210	1562.65752	67.26210
96700.00000	63.97287	1558.25687	63.97287
96750.00000	68.68623	1542.93113	68.68623
96800.00000	67.03772	1529.49293	67.03772
96850.00000	69.47354	1533.89715	69.47354
96900.00000	68.24252	1524.51529	68.24252
96950.00000	69.50902	1503.16995	69.50902
97000.00000	64.88263	1500.18034	64.88263
97050.00000	67.24083	1513.51412	67.24083
97100.00000	70.27663	1499.52367	70.27663
97150.00000	70.86677	1495.60518	70.86677
97200.00000	73.78373	1469.81261	73.78373
97250.00000	68.35070	1455.30404	68.35070
97300.00000	70.05897	1441.11542	70.05897
97350.00000	66.15494	1449.68642	66.15494
97400.00000	62.45672	1388.94660	62.45672
97450.00000	64.98359	1414.55945	64.98359
97500.00000	62.60588	1409.38722	62.60588
97550.00000	58.16616	1437.62204	58.16616
97600.00000	61.10154	1409.92910	61.10154
97650.00000	60.26279	1439.95853	60.26279
97700.00000	58.58821	1422.17209	58.58821
97750.00000	58.97928	1404.19209	58.97928
97800.00000	61.01484	1458.15065	61.01484
97850.00000	60.31122	1416.25605	60.31122
97900.00000	54.25480	1439.49549	54.25480
97950.00000	56.16297	1409.38589	56.16297
98000.00000	57.68062	1428.88629	57.68062
98050.00000	58.57266	1418.26130	58.57266
98100.00000	60.60873	1446.85103	60.60873
98150.00000	61.27047	1439.08424	61.27047
98200.00000	58.03743	1412.44971	58.03743
98250.00000	56.77951	1414.02519	56.77951
98300.00000	62.70920	1439.41772	62.70920
98350.00000	52.12398	1387.01890	52.12398
98400.00000	53.92305	1391.28656	53.92305
98450.00000	59.11970	1422.42759	59.11970
98500.00000	54.30214	1350.49137	54.30214
98550.00000	61.31590	1442.02474	61.31590
98600.00000	55.74936	1463.79157	55.74936
98650.00000	58.44798	1405.00262	58.44798
98700.00000	52.54661	1407.00851	52.54661
98750.00000	53.71379	1412.71700	53.71379
98800.00000	52.74441	1378.94994	52.74441
98850.00000	61.20568	1427.20440	61.20568
98900.00000	56.22127	1421.61060	56.22127
98950.00000	59.83549	1434.74245	59.83549
99000.00000	49.26186	1415.74495	49.26186
99050.00000	53.58351	1452.49017	53.58351
99100.00000	49.13924	1429.65610	49.13924
99150.00000	48.60555	1411.98497	48.60555
99200.00000	41.90254	1487.38647	41.90254
99250.00000	49.83686	1375.98656	49.83686
99300.00000	48.05127	1431.49451	48.05127
99350.00000	41.75271	1351.19361	41.75271
99400.00000	54.64176	1426.95696	54.64176
99450.00000	49.89950	1318.13852	49.89950
99500.00000	46.45036	1148.24511	46.45036
99550.00000	52.08050	1146.59231	52.08050
99600.00000	48.44178	1101.56099	48.44178
99650.00000	43.42597	969.77047	43.42597
99700.00000	42.37624	1108.76595	42.37624
99750.00000	46.17915	1166.40081	46.17915
99800.00000	52.69640	1065.84278	52.69640
99850.00000	40.51346	1012.10409	40.51346
99900.00000	47.45074	1043.72631	47.45074
99950.00000	52.97533	1055.90331	52.97533
