---ACOUSTIC CALIBRATION---
Filename: C:\Data\CL0809 DATA\CL0809400\RightPrimary.calib
Date: 8/9/2019 1:47:58 PM
Format: 4
Probe Tube Correction File: C:\Data\Probe Tube Calibrations\74_ProbeTube.calib
Experiment VIs: 2128
EPL_CFTS.exe V15.0.1f5 (2015)
DAQmx V15.1

Attenuation (dB): 40.000000
Min Freq (Hz): 50.000000
Max Freq (Hz): 99950.000000
Freq Step (Hz): 50.000000
Sample Rate (Hz): 200000.000000
[Smoothing]
Method=None
MA.Iterations=0
MA.Length=0
Loess.Length=0
Loess.Type=Linear
Loess.Robust=FALSE


Freq(Hz)	Mag(dB)	Phase(deg)	Unsmoothed(dB)

50.00000	94.95266	326.54616	94.95266
100.00000	67.50129	222.99150	67.50129
150.00000	71.63018	438.04068	71.63018
200.00000	55.62596	499.06009	55.62596
250.00000	54.23008	883.85119	54.23008
300.00000	65.95235	881.62538	65.95235
350.00000	56.95654	1004.36063	56.95654
400.00000	51.76822	1191.46064	51.76822
450.00000	62.42197	1108.59777	62.42197
500.00000	63.05572	1164.95942	63.05572
550.00000	67.03020	1195.03725	67.03020
600.00000	69.08396	1133.03312	69.08396
650.00000	69.80767	1112.24477	69.80767
700.00000	74.71504	1138.30446	74.71504
750.00000	77.28023	1084.61672	77.28023
800.00000	77.78765	1085.47009	77.78765
850.00000	77.66352	1078.64584	77.66352
900.00000	77.32419	1084.59907	77.32419
950.00000	80.88531	1085.49496	80.88531
1000.00000	82.73877	1085.88805	82.73877
1050.00000	85.95069	1078.65195	85.95069
1100.00000	88.80557	1062.98547	88.80557
1150.00000	89.73484	1047.62282	89.73484
1200.00000	90.61318	1038.65592	90.61318
1250.00000	91.39960	1027.76041	91.39960
1300.00000	92.20916	1021.01669	92.20916
1350.00000	93.66825	1010.66198	93.66825
1400.00000	94.23541	997.33763	94.23541
1450.00000	94.17235	986.45428	94.17235
1500.00000	94.29120	979.13605	94.29120
1550.00000	94.20047	972.28484	94.20047
1600.00000	94.80878	969.06974	94.80878
1650.00000	95.47024	966.39523	95.47024
1700.00000	99.28645	951.14156	99.28645
1750.00000	96.35810	931.68524	96.35810
1800.00000	96.04925	926.10423	96.04925
1850.00000	95.66460	918.69571	95.66460
1900.00000	95.43724	912.83519	95.43724
1950.00000	94.94342	909.09282	94.94342
2000.00000	94.76720	906.97964	94.76720
2050.00000	95.11913	904.18982	95.11913
2100.00000	95.54824	897.90428	95.54824
2150.00000	95.79523	890.00759	95.79523
2200.00000	95.52238	879.18116	95.52238
2250.00000	94.53613	873.99063	94.53613
2300.00000	94.32771	872.26579	94.32771
2350.00000	94.36216	866.72748	94.36216
2400.00000	94.37403	860.98028	94.37403
2450.00000	93.75251	853.08626	93.75251
2500.00000	92.80970	850.64481	92.80970
2550.00000	92.56717	847.73305	92.56717
2600.00000	92.15510	843.70151	92.15510
2650.00000	91.64944	841.80365	91.64944
2700.00000	91.24250	838.81837	91.24250
2750.00000	90.71465	836.01960	90.71465
2800.00000	90.13447	833.18192	90.13447
2850.00000	89.73759	832.31263	89.73759
2900.00000	89.48913	830.85734	89.48913
2950.00000	89.10938	829.24392	89.10938
3000.00000	88.87153	828.55187	88.87153
3050.00000	88.67007	826.77732	88.67007
3100.00000	88.32119	823.54238	88.32119
3150.00000	87.59633	822.23680	87.59633
3200.00000	87.27930	820.50135	87.27930
3250.00000	86.91791	818.76763	86.91791
3300.00000	86.12005	817.91097	86.12005
3350.00000	85.76867	818.53222	85.76867
3400.00000	85.31196	817.13247	85.31196
3450.00000	84.69690	817.21413	84.69690
3500.00000	83.99358	817.21892	83.99358
3550.00000	83.57826	816.57119	83.57826
3600.00000	82.20788	814.99139	82.20788
3650.00000	80.68630	820.99536	80.68630
3700.00000	79.27716	829.57246	79.27716
3750.00000	78.04620	839.87985	78.04620
3800.00000	77.93107	857.69457	77.93107
3850.00000	78.96655	868.47022	78.96655
3900.00000	80.26067	877.22272	80.26067
3950.00000	80.97725	886.67175	80.97725
4000.00000	82.31346	895.23426	82.31346
4050.00000	83.71338	903.38091	83.71338
4100.00000	85.53948	908.16250	85.53948
4150.00000	88.17320	909.21042	88.17320
4200.00000	89.93031	908.47793	89.93031
4250.00000	90.89517	899.61853	90.89517
4300.00000	91.89275	900.41042	91.89275
4350.00000	93.26537	898.55135	93.26537
4400.00000	94.54206	894.44310	94.54206
4450.00000	95.46370	888.40743	95.46370
4500.00000	96.23465	883.00365	96.23465
4550.00000	96.54384	878.88898	96.54384
4600.00000	97.07493	877.15299	97.07493
4650.00000	97.79084	877.09072	97.79084
4700.00000	98.78239	875.95004	98.78239
4750.00000	99.89548	873.80259	99.89548
4800.00000	101.04598	870.88547	101.04598
4850.00000	102.20498	867.03454	102.20498
4900.00000	103.39930	862.14168	103.39930
4950.00000	104.62545	857.05915	104.62545
5000.00000	105.91400	850.98123	105.91400
5050.00000	107.33124	843.95315	107.33124
5100.00000	108.94400	835.39636	108.94400
5150.00000	110.88660	823.84828	110.88660
5200.00000	113.25854	804.73975	113.25854
5250.00000	114.89624	768.09153	114.89624
5300.00000	111.78183	724.77276	111.78183
5350.00000	106.02591	708.34513	106.02591
5400.00000	101.48671	712.93513	101.48671
5450.00000	98.72263	721.90338	98.72263
5500.00000	96.17220	732.40946	96.17220
5550.00000	94.45116	754.23855	94.45116
5600.00000	95.57976	776.40717	95.57976
5650.00000	97.85641	785.24295	97.85641
5700.00000	99.71399	784.25527	99.71399
5750.00000	100.76176	780.24236	100.76176
5800.00000	101.23751	777.24500	101.23751
5850.00000	101.59907	776.05793	101.59907
5900.00000	102.05115	775.48586	102.05115
5950.00000	102.63784	775.18072	102.63784
6000.00000	103.32478	774.52758	103.32478
6050.00000	104.07738	773.24311	104.07738
6100.00000	104.86821	771.49295	104.86821
6150.00000	105.66078	769.14346	105.66078
6200.00000	106.51676	766.55872	106.51676
6250.00000	107.40183	763.35987	107.40183
6300.00000	108.32249	759.46154	108.32249
6350.00000	109.27630	754.87907	109.27630
6400.00000	110.26303	749.46491	110.26303
6450.00000	111.24291	742.79450	111.24291
6500.00000	112.14749	734.87557	112.14749
6550.00000	112.95365	725.79405	112.95365
6600.00000	113.57240	715.86083	113.57240
6650.00000	113.99786	705.23312	113.99786
6700.00000	114.20184	694.33348	114.20184
6750.00000	114.17178	683.50917	114.17178
6800.00000	113.93639	673.24025	113.93639
6850.00000	113.52951	663.82952	113.52951
6900.00000	113.00973	655.41232	113.00973
6950.00000	112.42522	648.08224	112.42522
7000.00000	111.83643	641.73590	111.83643
7050.00000	111.28100	636.23615	111.28100
7100.00000	110.76022	631.25631	110.76022
7150.00000	110.29541	626.61832	110.29541
7200.00000	109.86061	622.11516	109.86061
7250.00000	109.43377	617.86801	109.43377
7300.00000	109.04123	613.81928	109.04123
7350.00000	108.67216	609.67711	108.67216
7400.00000	108.27866	605.57240	108.27866
7450.00000	107.88344	601.71550	107.88344
7500.00000	107.48318	597.89950	107.48318
7550.00000	107.06120	594.20332	107.06120
7600.00000	106.62518	590.71628	106.62518
7650.00000	106.20331	587.42635	106.20331
7700.00000	105.75941	584.36601	105.75941
7750.00000	105.32840	581.57941	105.32840
7800.00000	104.91421	579.20262	104.91421
7850.00000	104.51797	576.71047	104.51797
7900.00000	104.15066	574.50482	104.15066
7950.00000	103.76410	572.39120	103.76410
8000.00000	103.40556	570.79212	103.40556
8050.00000	103.09003	569.19635	103.09003
8100.00000	102.78746	567.64112	102.78746
8150.00000	102.52409	566.07498	102.52409
8200.00000	102.28703	564.74605	102.28703
8250.00000	102.08327	563.34000	102.08327
8300.00000	101.91108	561.75324	101.91108
8350.00000	101.72738	560.09225	101.72738
8400.00000	101.55116	558.68611	101.55116
8450.00000	101.37724	557.35650	101.37724
8500.00000	101.25310	555.95661	101.25310
8550.00000	101.14126	554.44257	101.14126
8600.00000	101.03924	552.94414	101.03924
8650.00000	100.96790	551.56259	100.96790
8700.00000	100.86740	550.10666	100.86740
8750.00000	100.82786	548.61219	100.82786
8800.00000	100.76815	546.85068	100.76815
8850.00000	100.75868	545.17188	100.75868
8900.00000	100.70499	543.44143	100.70499
8950.00000	100.73583	541.79533	100.73583
9000.00000	100.68002	539.97131	100.68002
9050.00000	100.70237	538.29187	100.70237
9100.00000	100.73373	536.66113	100.73373
9150.00000	100.86881	534.76566	100.86881
9200.00000	100.89247	532.27240	100.89247
9250.00000	100.88089	530.07337	100.88089
9300.00000	101.00425	527.83406	101.00425
9350.00000	101.04561	525.08410	101.04561
9400.00000	101.08341	522.38300	101.08341
9450.00000	101.15157	519.49520	101.15157
9500.00000	101.16768	516.18151	101.16768
9550.00000	101.13922	513.17758	101.13922
9600.00000	101.14921	510.26752	101.14921
9650.00000	101.17138	507.20609	101.17138
9700.00000	101.10919	503.62551	101.10919
9750.00000	100.95265	500.09226	100.95265
9800.00000	100.74984	496.90863	100.74984
9850.00000	100.45431	493.83733	100.45431
9900.00000	100.08447	492.02505	100.08447
9950.00000	99.66820	492.24964	99.66820
10000.00000	99.74159	494.81391	99.74159
10050.00000	100.46409	494.90624	100.46409
10100.00000	101.02741	490.65111	101.02741
10150.00000	101.20300	485.73743	101.20300
10200.00000	101.26110	481.28538	101.26110
10250.00000	101.19751	477.44762	101.19751
10300.00000	101.17433	473.98139	101.17433
10350.00000	101.13474	470.45461	101.13474
10400.00000	101.08058	467.00469	101.08058
10450.00000	101.05746	463.60013	101.05746
10500.00000	101.05694	460.15809	101.05694
10550.00000	101.02933	456.96323	101.02933
10600.00000	101.09332	453.16095	101.09332
10650.00000	101.07522	449.53667	101.07522
10700.00000	101.08661	445.43305	101.08661
10750.00000	101.05531	441.59954	101.05531
10800.00000	101.03628	437.38716	101.03628
10850.00000	101.02697	433.08100	101.02697
10900.00000	100.96481	428.95127	100.96481
10950.00000	100.89165	424.68174	100.89165
11000.00000	100.86709	420.57513	100.86709
11050.00000	100.76277	415.86689	100.76277
11100.00000	100.63118	411.30388	100.63118
11150.00000	100.53108	406.75855	100.53108
11200.00000	100.38471	401.85157	100.38471
11250.00000	100.14469	396.71093	100.14469
11300.00000	99.90822	391.82238	99.90822
11350.00000	99.64205	386.70032	99.64205
11400.00000	99.33205	381.64167	99.33205
11450.00000	98.99998	376.57133	98.99998
11500.00000	98.63440	371.44213	98.63440
11550.00000	98.22925	366.32844	98.22925
11600.00000	97.79926	361.58478	97.79926
11650.00000	97.40329	356.69608	97.40329
11700.00000	96.91323	351.46518	96.91323
11750.00000	96.40974	347.09076	96.40974
11800.00000	95.93727	342.64264	95.93727
11850.00000	95.45643	338.37920	95.45643
11900.00000	94.89920	334.34561	94.89920
11950.00000	94.44519	330.55751	94.44519
12000.00000	93.95867	327.01239	93.95867
12050.00000	93.44043	323.54623	93.44043
12100.00000	92.90254	319.53534	92.90254
12150.00000	92.33414	315.48335	92.33414
12200.00000	91.75080	312.09802	91.75080
12250.00000	91.12038	308.59395	91.12038
12300.00000	90.39735	304.88732	90.39735
12350.00000	89.85329	301.65851	89.85329
12400.00000	89.17507	297.89583	89.17507
12450.00000	88.66565	293.91248	88.66565
12500.00000	88.12400	290.95239	88.12400
12550.00000	87.56119	287.18373	87.56119
12600.00000	87.00905	282.13579	87.00905
12650.00000	86.45802	279.70080	86.45802
12700.00000	85.95264	275.19723	85.95264
12750.00000	85.53083	272.14630	85.53083
12800.00000	85.22110	269.10386	85.22110
12850.00000	84.66452	264.25081	84.66452
12900.00000	84.27047	259.84154	84.27047
12950.00000	84.19234	254.47871	84.19234
13000.00000	83.85658	248.80941	83.85658
13050.00000	83.70234	243.33888	83.70234
13100.00000	83.66606	238.53631	83.66606
13150.00000	83.70807	232.62045	83.70807
13200.00000	84.00514	224.50361	84.00514
13250.00000	84.72664	217.42879	84.72664
13300.00000	85.58752	212.69515	85.58752
13350.00000	86.89077	207.43889	86.89077
13400.00000	88.27539	207.31199	88.27539
13450.00000	89.37715	212.45560	89.37715
13500.00000	89.16360	223.24132	89.16360
13550.00000	88.60753	226.89876	88.60753
13600.00000	87.33814	226.36190	87.33814
13650.00000	86.33457	219.57581	86.33457
13700.00000	85.68265	211.89955	85.68265
13750.00000	85.36407	200.84627	85.36407
13800.00000	85.59678	189.32155	85.59678
13850.00000	86.20831	177.29305	86.20831
13900.00000	86.97330	166.10703	86.97330
13950.00000	88.43731	155.46116	88.43731
14000.00000	90.31702	146.35275	90.31702
14050.00000	92.59164	143.16107	92.59164
14100.00000	95.11424	142.42161	95.11424
14150.00000	96.87334	152.52934	96.87334
14200.00000	97.23372	163.35452	97.23372
14250.00000	96.39782	171.10195	96.39782
14300.00000	95.26720	171.31682	95.26720
14350.00000	94.40106	166.06467	94.40106
14400.00000	93.82864	160.15947	93.82864
14450.00000	93.56583	152.17599	93.56583
14500.00000	93.50000	143.68349	93.50000
14550.00000	93.90871	133.89721	93.90871
14600.00000	94.31784	126.88427	94.31784
14650.00000	95.07660	118.54546	95.07660
14700.00000	95.97290	109.77588	95.97290
14750.00000	97.03103	103.83479	97.03103
14800.00000	98.10558	98.72711	98.10558
14850.00000	99.34515	95.87813	99.34515
14900.00000	100.54657	94.39716	100.54657
14950.00000	101.30197	95.44625	101.30197
15000.00000	101.63996	96.20812	101.63996
15050.00000	101.66797	97.36862	101.66797
15100.00000	101.50702	95.17677	101.50702
15150.00000	101.24737	91.31718	101.24737
15200.00000	101.10555	86.28368	101.10555
15250.00000	100.86636	80.26305	100.86636
15300.00000	100.85805	73.59397	100.85805
15350.00000	101.10061	66.97112	101.10061
15400.00000	101.32651	59.97690	101.32651
15450.00000	101.67695	52.84849	101.67695
15500.00000	102.16288	47.18087	102.16288
15550.00000	102.67034	42.57641	102.67034
15600.00000	103.21027	38.16498	103.21027
15650.00000	103.65431	35.20096	103.65431
15700.00000	103.85097	33.15368	103.85097
15750.00000	104.08837	31.69237	104.08837
15800.00000	103.99421	29.38264	103.99421
15850.00000	104.03812	27.47391	104.03812
15900.00000	103.80411	23.96613	103.80411
15950.00000	103.65662	20.10153	103.65662
16000.00000	103.56274	15.38569	103.56274
16050.00000	103.60483	10.90827	103.60483
16100.00000	103.59532	 6.45719	103.59532
16150.00000	103.73364	 1.44886	103.73364
16200.00000	103.92603	-2.22958	103.92603
16250.00000	104.13112	-6.49276	104.13112
16300.00000	104.33764	-9.84525	104.33764
16350.00000	104.55399	-12.70423	104.55399
16400.00000	104.68201	-15.29990	104.68201
16450.00000	104.82080	-17.58170	104.82080
16500.00000	104.86045	-20.31734	104.86045
16550.00000	104.84176	-22.78471	104.84176
16600.00000	104.81107	-25.83783	104.81107
16650.00000	104.76931	-29.05284	104.76931
16700.00000	104.81706	-32.55775	104.81706
16750.00000	104.80464	-36.20765	104.80464
16800.00000	104.87344	-39.59862	104.87344
16850.00000	104.98196	-43.41494	104.98196
16900.00000	105.08770	-46.47073	105.08770
16950.00000	105.15426	-49.76353	105.15426
17000.00000	105.25755	-52.60316	105.25755
17050.00000	105.37675	-55.17990	105.37675
17100.00000	105.43192	-57.81962	105.43192
17150.00000	105.45432	-60.21399	105.45432
17200.00000	105.41754	-63.11812	105.41754
17250.00000	105.47966	-66.10995	105.47966
17300.00000	105.48436	-69.24167	105.48436
17350.00000	105.51393	-72.34828	105.51393
17400.00000	105.51932	-75.59134	105.51932
17450.00000	105.60291	-78.61894	105.60291
17500.00000	105.64958	-81.88830	105.64958
17550.00000	105.71852	-85.07470	105.71852
17600.00000	105.80197	-87.77180	105.80197
17650.00000	105.87054	-90.47716	105.87054
17700.00000	105.95293	-93.13663	105.95293
17750.00000	106.02630	-95.93242	106.02630
17800.00000	106.05638	-98.68062	106.05638
17850.00000	106.11356	-101.52014	106.11356
17900.00000	106.18159	-104.27074	106.18159
17950.00000	106.18234	-107.25050	106.18234
18000.00000	106.26575	-110.24234	106.26575
18050.00000	106.31903	-113.52194	106.31903
18100.00000	106.35652	-116.56341	106.35652
18150.00000	106.40801	-119.76812	106.40801
18200.00000	106.44882	-122.87244	106.44882
18250.00000	106.50190	-126.03821	106.50190
18300.00000	106.52780	-129.24551	106.52780
18350.00000	106.55906	-132.48413	106.55906
18400.00000	106.57654	-135.61400	106.57654
18450.00000	106.59812	-138.87325	106.59812
18500.00000	106.60876	-142.01983	106.60876
18550.00000	106.61508	-145.39115	106.61508
18600.00000	106.58302	-148.45220	106.58302
18650.00000	106.58936	-151.67567	106.58936
18700.00000	106.57442	-154.70019	106.57442
18750.00000	106.52348	-157.79687	106.52348
18800.00000	106.47896	-161.11637	106.47896
18850.00000	106.44053	-164.03688	106.44053
18900.00000	106.34523	-166.90173	106.34523
18950.00000	106.29636	-170.04036	106.29636
19000.00000	106.21245	-172.96235	106.21245
19050.00000	106.14065	-175.92080	106.14065
19100.00000	106.08688	-178.92570	106.08688
19150.00000	106.02331	-181.44942	106.02331
19200.00000	105.94974	-184.36362	105.94974
19250.00000	105.86428	-186.79546	105.86428
19300.00000	105.82653	-189.47674	105.82653
19350.00000	105.76061	-192.16106	105.76061
19400.00000	105.67266	-194.55333	105.67266
19450.00000	105.62004	-197.33810	105.62004
19500.00000	105.56853	-199.72467	105.56853
19550.00000	105.52720	-202.20228	105.52720
19600.00000	105.45227	-204.61792	105.45227
19650.00000	105.41313	-207.13072	105.41313
19700.00000	105.39883	-209.68395	105.39883
19750.00000	105.33762	-212.02548	105.33762
19800.00000	105.30958	-214.35208	105.30958
19850.00000	105.27391	-216.90810	105.27391
19900.00000	105.25355	-219.33189	105.25355
19950.00000	105.21037	-221.72150	105.21037
20000.00000	105.16275	-224.56644	105.16275
20050.00000	105.14309	-226.82979	105.14309
20100.00000	105.11034	-229.29885	105.11034
20150.00000	105.08896	-231.99118	105.08896
20200.00000	105.06535	-234.36486	105.06535
20250.00000	105.03150	-236.62269	105.03150
20300.00000	105.01312	-239.24681	105.01312
20350.00000	105.00060	-241.56288	105.00060
20400.00000	104.96902	-244.02928	104.96902
20450.00000	104.94593	-246.53439	104.94593
20500.00000	104.92399	-249.07975	104.92399
20550.00000	104.88515	-251.86133	104.88515
20600.00000	104.87535	-254.22112	104.87535
20650.00000	104.88029	-256.89950	104.88029
20700.00000	104.86797	-259.04690	104.86797
20750.00000	104.81641	-261.65221	104.81641
20800.00000	104.78250	-264.19394	104.78250
20850.00000	104.77234	-267.01515	104.77234
20900.00000	104.73196	-269.55722	104.73196
20950.00000	104.71415	-272.26400	104.71415
21000.00000	104.72437	-275.16178	104.72437
21050.00000	104.69755	-277.55078	104.69755
21100.00000	104.68880	-280.24256	104.68880
21150.00000	104.63713	-282.72496	104.63713
21200.00000	104.60630	-285.44738	104.60630
21250.00000	104.55481	-288.18189	104.55481
21300.00000	104.49265	-290.90228	104.49265
21350.00000	104.46219	-293.53753	104.46219
21400.00000	104.41622	-296.54184	104.41622
21450.00000	104.42992	-299.21756	104.42992
21500.00000	104.40624	-301.72293	104.40624
21550.00000	104.39972	-304.54503	104.39972
21600.00000	104.32676	-307.64083	104.32676
21650.00000	104.29553	-310.10965	104.29553
21700.00000	104.19314	-313.40389	104.19314
21750.00000	104.18329	-316.48371	104.18329
21800.00000	104.09336	-319.50345	104.09336
21850.00000	104.04004	-322.54472	104.04004
21900.00000	103.92347	-325.62070	103.92347
21950.00000	103.81247	-328.70513	103.81247
22000.00000	103.63317	-331.58150	103.63317
22050.00000	103.51365	-334.19633	103.51365
22100.00000	103.38645	-336.95074	103.38645
22150.00000	103.31469	-339.60767	103.31469
22200.00000	103.15090	-342.69775	103.15090
22250.00000	103.02173	-345.44146	103.02173
22300.00000	102.88952	-348.27450	102.88952
22350.00000	102.75475	-351.45487	102.75475
22400.00000	102.57921	-354.12391	102.57921
22450.00000	102.41847	-356.65422	102.41847
22500.00000	102.19480	-359.92316	102.19480
22550.00000	101.99903	-362.52213	101.99903
22600.00000	101.77598	-364.82914	101.77598
22650.00000	101.55988	-367.45760	101.55988
22700.00000	101.37278	-369.56931	101.37278
22750.00000	101.13717	-372.26326	101.13717
22800.00000	100.95800	-374.68821	100.95800
22850.00000	100.72201	-376.63834	100.72201
22900.00000	100.54627	-378.82691	100.54627
22950.00000	100.38117	-380.96782	100.38117
23000.00000	100.13614	-383.16458	100.13614
23050.00000	99.95266	-385.05927	99.95266
23100.00000	99.70749	-387.11816	99.70749
23150.00000	99.47561	-389.28568	99.47561
23200.00000	99.28054	-391.18973	99.28054
23250.00000	99.12101	-393.25344	99.12101
23300.00000	98.94779	-395.18862	98.94779
23350.00000	98.72853	-396.51701	98.72853
23400.00000	98.50680	-398.24003	98.50680
23450.00000	98.30404	-399.87144	98.30404
23500.00000	98.09873	-401.71321	98.09873
23550.00000	97.86667	-403.32127	97.86667
23600.00000	97.75395	-405.01802	97.75395
23650.00000	97.46524	-406.26170	97.46524
23700.00000	97.39465	-407.30137	97.39465
23750.00000	97.14111	-409.28441	97.14111
23800.00000	96.95482	-410.95979	96.95482
23850.00000	96.78832	-411.75005	96.78832
23900.00000	96.60383	-413.44478	96.60383
23950.00000	96.41844	-414.90539	96.41844
24000.00000	96.35904	-416.32522	96.35904
24050.00000	96.16565	-417.45747	96.16565
24100.00000	95.98863	-418.76414	95.98863
24150.00000	95.81180	-419.63151	95.81180
24200.00000	95.70471	-420.98197	95.70471
24250.00000	95.52096	-422.06061	95.52096
24300.00000	95.44039	-423.06010	95.44039
24350.00000	95.28471	-424.03131	95.28471
24400.00000	95.23672	-425.52239	95.23672
24450.00000	95.12016	-426.35721	95.12016
24500.00000	94.83693	-427.66251	94.83693
24550.00000	94.75420	-429.18591	94.75420
24600.00000	94.67425	-429.50241	94.67425
24650.00000	94.63858	-430.65546	94.63858
24700.00000	94.52874	-431.39333	94.52874
24750.00000	94.41062	-433.12130	94.41062
24800.00000	94.34702	-433.70716	94.34702
24850.00000	94.29081	-434.81609	94.29081
24900.00000	94.15742	-435.51047	94.15742
24950.00000	94.15240	-436.49732	94.15240
25000.00000	94.01318	-438.26628	94.01318
25050.00000	94.05099	-438.18896	94.05099
25100.00000	93.97256	-438.71213	93.97256
25150.00000	93.86894	-440.02874	93.86894
25200.00000	93.83365	-440.94083	93.83365
25250.00000	93.83520	-441.88892	93.83520
25300.00000	93.71050	-442.92860	93.71050
25350.00000	93.79316	-443.66761	93.79316
25400.00000	93.78560	-444.98512	93.78560
25450.00000	93.77753	-446.05416	93.77753
25500.00000	93.82094	-446.80543	93.82094
25550.00000	93.76545	-447.74317	93.76545
25600.00000	93.78522	-448.44592	93.78522
25650.00000	93.74530	-450.10376	93.74530
25700.00000	93.87984	-450.70702	93.87984
25750.00000	93.92373	-452.61113	93.92373
25800.00000	93.91749	-453.04918	93.91749
25850.00000	93.95715	-454.63461	93.95715
25900.00000	93.96647	-456.00453	93.96647
25950.00000	94.05226	-457.12342	94.05226
26000.00000	94.04483	-458.37865	94.04483
26050.00000	94.19741	-460.17313	94.19741
26100.00000	94.23441	-461.59061	94.23441
26150.00000	94.28349	-463.94038	94.28349
26200.00000	94.26642	-465.00187	94.26642
26250.00000	94.34907	-466.76639	94.34907
26300.00000	94.31086	-468.90421	94.31086
26350.00000	94.38574	-470.60143	94.38574
26400.00000	94.44027	-472.64824	94.44027
26450.00000	94.38583	-474.93185	94.38583
26500.00000	94.41058	-476.61906	94.41058
26550.00000	94.41175	-477.70657	94.41175
26600.00000	94.34039	-479.74951	94.34039
26650.00000	94.38859	-482.24212	94.38859
26700.00000	94.35072	-483.98353	94.35072
26750.00000	94.27928	-485.94438	94.27928
26800.00000	94.18046	-487.77919	94.18046
26850.00000	94.11189	-489.51127	94.11189
26900.00000	94.01900	-491.34466	94.01900
26950.00000	93.86587	-493.07242	93.86587
27000.00000	93.80576	-494.82623	93.80576
27050.00000	93.77868	-496.01659	93.77868
27100.00000	93.67647	-497.89011	93.67647
27150.00000	93.55790	-498.92623	93.55790
27200.00000	93.52721	-501.30893	93.52721
27250.00000	93.35278	-502.39903	93.35278
27300.00000	93.27730	-503.93324	93.27730
27350.00000	93.16530	-505.04191	93.16530
27400.00000	93.08438	-505.96008	93.08438
27450.00000	93.06415	-507.79674	93.06415
27500.00000	92.91209	-508.62464	92.91209
27550.00000	92.84430	-509.79268	92.84430
27600.00000	92.77338	-510.64848	92.77338
27650.00000	92.64050	-511.53714	92.64050
27700.00000	92.50651	-513.08203	92.50651
27750.00000	92.42847	-513.68984	92.42847
27800.00000	92.35206	-514.91664	92.35206
27850.00000	92.32112	-515.50858	92.32112
27900.00000	92.22289	-516.44993	92.22289
27950.00000	92.18203	-516.93569	92.18203
28000.00000	92.12215	-517.64439	92.12215
28050.00000	92.01547	-518.36361	92.01547
28100.00000	91.93375	-518.71609	91.93375
28150.00000	91.92003	-519.62293	91.92003
28200.00000	91.91602	-520.36145	91.91602
28250.00000	91.89456	-520.78337	91.89456
28300.00000	91.81100	-521.63110	91.81100
28350.00000	91.85012	-521.63302	91.85012
28400.00000	91.74155	-522.24876	91.74155
28450.00000	91.78307	-522.19563	91.78307
28500.00000	91.84412	-523.07184	91.84412
28550.00000	91.88051	-523.27851	91.88051
28600.00000	91.98371	-523.94853	91.98371
28650.00000	91.94874	-523.81261	91.94874
28700.00000	92.04769	-524.59339	92.04769
28750.00000	92.11539	-524.69624	92.11539
28800.00000	92.10041	-525.81282	92.10041
28850.00000	92.21282	-526.07794	92.21282
28900.00000	92.26158	-526.71311	92.26158
28950.00000	92.33048	-527.21914	92.33048
29000.00000	92.50724	-527.55962	92.50724
29050.00000	92.60835	-527.91310	92.60835
29100.00000	92.63678	-528.51357	92.63678
29150.00000	92.74192	-529.87116	92.74192
29200.00000	92.94413	-529.81864	92.94413
29250.00000	92.95585	-530.44399	92.95585
29300.00000	93.10833	-531.23345	93.10833
29350.00000	93.23230	-531.54262	93.23230
29400.00000	93.36937	-531.95084	93.36937
29450.00000	93.55970	-533.35594	93.55970
29500.00000	93.73211	-534.10133	93.73211
29550.00000	93.93469	-534.19115	93.93469
29600.00000	94.04438	-535.43134	94.04438
29650.00000	94.21649	-536.13276	94.21649
29700.00000	94.40203	-537.02450	94.40203
29750.00000	94.51759	-537.96561	94.51759
29800.00000	94.70221	-538.69210	94.70221
29850.00000	94.88738	-539.59193	94.88738
29900.00000	95.05680	-540.86795	95.05680
29950.00000	95.27346	-541.33176	95.27346
30000.00000	95.41634	-542.75156	95.41634
30050.00000	95.61939	-543.48147	95.61939
30100.00000	95.84885	-544.91705	95.84885
30150.00000	96.00009	-545.79091	96.00009
30200.00000	96.22552	-546.88457	96.22552
30250.00000	96.43070	-547.82725	96.43070
30300.00000	96.60265	-549.49047	96.60265
30350.00000	96.85298	-550.32317	96.85298
30400.00000	97.02749	-551.64459	97.02749
30450.00000	97.28828	-552.96329	97.28828
30500.00000	97.52025	-554.29975	97.52025
30550.00000	97.69677	-555.61717	97.69677
30600.00000	97.93126	-557.22426	97.93126
30650.00000	98.14070	-558.33769	98.14070
30700.00000	98.36444	-559.94273	98.36444
30750.00000	98.56039	-561.42794	98.56039
30800.00000	98.77234	-562.85756	98.77234
30850.00000	99.00242	-564.57009	99.00242
30900.00000	99.22754	-566.38932	99.22754
30950.00000	99.41657	-567.90781	99.41657
31000.00000	99.67452	-569.37592	99.67452
31050.00000	99.88968	-571.25133	99.88968
31100.00000	100.11445	-572.82394	100.11445
31150.00000	100.35425	-574.47060	100.35425
31200.00000	100.53901	-576.44692	100.53901
31250.00000	100.81788	-578.26540	100.81788
31300.00000	101.01566	-580.33079	101.01566
31350.00000	101.24471	-581.92801	101.24471
31400.00000	101.46401	-584.02160	101.46401
31450.00000	101.66351	-585.96912	101.66351
31500.00000	101.87659	-588.10940	101.87659
31550.00000	102.10256	-590.30561	102.10256
31600.00000	102.30613	-592.62563	102.30613
31650.00000	102.49558	-594.84875	102.49558
31700.00000	102.65969	-596.88054	102.65969
31750.00000	102.84754	-599.09571	102.84754
31800.00000	103.01266	-601.50651	103.01266
31850.00000	103.18259	-603.58033	103.18259
31900.00000	103.35828	-605.89450	103.35828
31950.00000	103.52724	-608.28270	103.52724
32000.00000	103.65735	-610.51034	103.65735
32050.00000	103.81174	-612.84899	103.81174
32100.00000	103.96660	-615.05494	103.96660
32150.00000	104.07360	-617.42007	104.07360
32200.00000	104.20469	-619.57086	104.20469
32250.00000	104.34857	-621.84767	104.34857
32300.00000	104.41707	-623.88509	104.41707
32350.00000	104.58143	-626.15063	104.58143
32400.00000	104.67197	-628.35041	104.67197
32450.00000	104.80501	-630.61036	104.80501
32500.00000	104.86652	-632.67152	104.86652
32550.00000	104.94978	-634.75938	104.94978
32600.00000	105.07871	-636.75028	105.07871
32650.00000	105.18918	-638.66066	105.18918
32700.00000	105.26264	-640.52443	105.26264
32750.00000	105.36094	-642.66086	105.36094
32800.00000	105.45656	-644.32091	105.45656
32850.00000	105.57504	-646.26546	105.57504
32900.00000	105.65272	-647.82067	105.65272
32950.00000	105.79867	-649.56528	105.79867
33000.00000	105.91545	-651.45999	105.91545
33050.00000	106.04735	-652.97508	106.04735
33100.00000	106.20122	-654.79745	106.20122
33150.00000	106.33267	-656.36925	106.33267
33200.00000	106.47324	-658.12303	106.47324
33250.00000	106.60386	-659.80676	106.60386
33300.00000	106.77206	-661.40116	106.77206
33350.00000	106.95157	-663.05220	106.95157
33400.00000	107.08616	-664.93570	107.08616
33450.00000	107.25736	-666.63430	107.25736
33500.00000	107.42641	-668.21519	107.42641
33550.00000	107.60555	-669.95958	107.60555
33600.00000	107.80684	-671.68042	107.80684
33650.00000	107.98957	-673.40612	107.98957
33700.00000	108.19230	-675.22610	108.19230
33750.00000	108.39536	-677.12257	108.39536
33800.00000	108.61698	-678.94899	108.61698
33850.00000	108.84461	-680.78641	108.84461
33900.00000	109.05317	-682.72275	109.05317
33950.00000	109.30926	-684.71215	109.30926
34000.00000	109.51337	-686.53703	109.51337
34050.00000	109.71588	-688.50749	109.71588
34100.00000	109.96191	-690.65454	109.96191
34150.00000	110.18395	-692.70735	110.18395
34200.00000	110.41140	-694.86860	110.41140
34250.00000	110.65054	-696.96662	110.65054
34300.00000	110.88906	-699.14322	110.88906
34350.00000	111.13628	-701.32184	111.13628
34400.00000	111.39683	-703.64559	111.39683
34450.00000	111.63121	-705.83883	111.63121
34500.00000	111.87519	-708.18873	111.87519
34550.00000	112.13832	-710.63279	112.13832
34600.00000	112.40308	-713.00559	112.40308
34650.00000	112.67855	-715.53286	112.67855
34700.00000	112.93972	-717.96839	112.93972
34750.00000	113.21621	-720.79973	113.21621
34800.00000	113.48759	-723.52766	113.48759
34850.00000	113.77773	-726.39451	113.77773
34900.00000	114.05368	-729.47816	114.05368
34950.00000	114.29326	-732.81824	114.29326
35000.00000	114.48813	-736.06017	114.48813
35050.00000	114.64226	-739.39599	114.64226
35100.00000	114.74177	-742.30424	114.74177
35150.00000	114.89818	-744.63692	114.89818
35200.00000	115.12318	-747.17488	115.12318
35250.00000	115.38689	-749.69484	115.38689
35300.00000	115.64630	-752.69759	115.64630
35350.00000	115.91464	-755.78647	115.91464
35400.00000	116.17109	-759.07965	116.17109
35450.00000	116.41361	-762.54695	116.41361
35500.00000	116.63599	-766.20049	116.63599
35550.00000	116.82872	-769.69068	116.82872
35600.00000	117.01950	-773.37138	117.01950
35650.00000	117.18354	-777.09314	117.18354
35700.00000	117.33153	-780.84516	117.33153
35750.00000	117.46648	-784.52587	117.46648
35800.00000	117.58384	-788.33740	117.58384
35850.00000	117.68079	-792.06457	117.68079
35900.00000	117.76931	-795.72335	117.76931
35950.00000	117.83444	-799.40718	117.83444
36000.00000	117.88750	-802.97041	117.88750
36050.00000	117.91674	-806.55743	117.91674
36100.00000	117.94691	-810.03136	117.94691
36150.00000	117.96448	-813.45832	117.96448
36200.00000	117.97615	-816.88060	117.97615
36250.00000	117.97180	-820.13367	117.97180
36300.00000	117.96442	-823.26860	117.96442
36350.00000	117.95559	-826.43007	117.95559
36400.00000	117.94294	-829.50120	117.94294
36450.00000	117.92471	-832.47133	117.92471
36500.00000	117.91366	-835.30370	117.91366
36550.00000	117.89759	-838.09181	117.89759
36600.00000	117.87848	-840.73195	117.87848
36650.00000	117.86801	-843.36548	117.86801
36700.00000	117.86130	-845.88534	117.86130
36750.00000	117.86146	-848.33408	117.86146
36800.00000	117.87826	-850.81940	117.87826
36850.00000	117.89082	-853.11961	117.89082
36900.00000	117.90184	-855.44488	117.90184
36950.00000	117.93351	-857.71747	117.93351
37000.00000	117.97024	-859.87953	117.97024
37050.00000	118.01967	-862.03262	118.01967
37100.00000	118.07018	-864.19973	118.07018
37150.00000	118.12670	-866.30199	118.12670
37200.00000	118.18737	-868.32187	118.18737
37250.00000	118.27555	-870.35815	118.27555
37300.00000	118.35798	-872.19856	118.35798
37350.00000	118.45894	-874.12253	118.45894
37400.00000	118.58693	-875.95558	118.58693
37450.00000	118.72668	-877.69668	118.72668
37500.00000	118.88906	-879.39957	118.88906
37550.00000	119.08452	-881.14720	119.08452
37600.00000	119.30334	-882.87799	119.30334
37650.00000	119.57268	-884.63418	119.57268
37700.00000	119.86718	-886.37709	119.86718
37750.00000	120.21483	-888.33558	120.21483
37800.00000	120.58464	-890.52403	120.58464
37850.00000	120.99995	-892.93546	120.99995
37900.00000	121.43612	-895.83685	121.43612
37950.00000	121.86755	-899.05314	121.86755
38000.00000	122.31736	-902.58991	122.31736
38050.00000	122.73474	-906.67380	122.73474
38100.00000	123.12752	-910.89757	123.12752
38150.00000	123.48295	-915.53147	123.48295
38200.00000	123.80913	-920.32403	123.80913
38250.00000	124.08524	-925.19145	124.08524
38300.00000	124.33700	-930.18457	124.33700
38350.00000	124.55037	-935.34853	124.55037
38400.00000	124.72105	-940.43494	124.72105
38450.00000	124.86330	-945.54320	124.86330
38500.00000	124.97983	-950.64909	124.97983
38550.00000	125.07063	-955.77648	125.07063
38600.00000	125.13401	-960.80721	125.13401
38650.00000	125.18681	-965.82365	125.18681
38700.00000	125.21062	-970.78615	125.21062
38750.00000	125.22050	-975.69726	125.22050
38800.00000	125.20459	-980.54594	125.20459
38850.00000	125.19238	-985.39209	125.19238
38900.00000	125.15789	-990.11776	125.15789
38950.00000	125.11538	-994.82047	125.11538
39000.00000	125.06351	-999.49548	125.06351
39050.00000	125.00098	-1004.22650	125.00098
39100.00000	124.92263	-1008.95448	124.92263
39150.00000	124.82746	-1013.52958	124.82746
39200.00000	124.72278	-1018.12513	124.72278
39250.00000	124.60593	-1022.61920	124.60593
39300.00000	124.47973	-1027.04364	124.47973
39350.00000	124.35261	-1031.42860	124.35261
39400.00000	124.22772	-1035.83284	124.22772
39450.00000	124.10315	-1040.19491	124.10315
39500.00000	123.95902	-1044.60543	123.95902
39550.00000	123.81160	-1048.99476	123.81160
39600.00000	123.63865	-1053.51294	123.63865
39650.00000	123.45497	-1057.94185	123.45497
39700.00000	123.24806	-1062.38499	123.24806
39750.00000	123.01216	-1066.72974	123.01216
39800.00000	122.75437	-1070.99638	122.75437
39850.00000	122.48382	-1075.17802	122.48382
39900.00000	122.19410	-1079.20473	122.19410
39950.00000	121.89382	-1083.15092	121.89382
40000.00000	121.58726	-1086.95061	121.58726
40050.00000	121.26787	-1090.60286	121.26787
40100.00000	120.94402	-1094.17376	120.94402
40150.00000	120.61728	-1097.57233	120.61728
40200.00000	120.27707	-1100.91095	120.27707
40250.00000	119.94239	-1104.06544	119.94239
40300.00000	119.59831	-1107.02142	119.59831
40350.00000	119.26808	-1109.93525	119.26808
40400.00000	118.92028	-1112.72010	118.92028
40450.00000	118.57980	-1115.39269	118.57980
40500.00000	118.25142	-1117.88790	118.25142
40550.00000	117.90937	-1120.34225	117.90937
40600.00000	117.58445	-1122.59587	117.58445
40650.00000	117.26298	-1124.83686	117.26298
40700.00000	116.93456	-1126.92722	116.93456
40750.00000	116.63095	-1128.79462	116.63095
40800.00000	116.32631	-1130.67967	116.32631
40850.00000	116.05187	-1132.28948	116.05187
40900.00000	115.77677	-1133.97317	115.77677
40950.00000	115.52411	-1135.63145	115.52411
41000.00000	115.27868	-1137.04116	115.27868
41050.00000	115.04837	-1138.48941	115.04837
41100.00000	114.81965	-1139.80589	114.81965
41150.00000	114.64378	-1141.11788	114.64378
41200.00000	114.46017	-1142.31762	114.46017
41250.00000	114.30045	-1143.52363	114.30045
41300.00000	114.16834	-1144.75848	114.16834
41350.00000	114.04030	-1146.02117	114.04030
41400.00000	113.93141	-1147.34043	113.93141
41450.00000	113.85318	-1148.48199	113.85318
41500.00000	113.75440	-1149.66506	113.75440
41550.00000	113.67729	-1150.93550	113.67729
41600.00000	113.63056	-1152.37270	113.63056
41650.00000	113.59341	-1153.67210	113.59341
41700.00000	113.58452	-1155.15407	113.58452
41750.00000	113.58266	-1156.65091	113.58266
41800.00000	113.58229	-1158.35788	113.58229
41850.00000	113.58470	-1160.16912	113.58470
41900.00000	113.60219	-1162.25093	113.60219
41950.00000	113.60286	-1164.16760	113.60286
42000.00000	113.60266	-1166.24257	113.60266
42050.00000	113.58743	-1168.38655	113.58743
42100.00000	113.60040	-1170.43349	113.60040
42150.00000	113.56044	-1172.74282	113.56044
42200.00000	113.53519	-1174.99024	113.53519
42250.00000	113.47842	-1177.24137	113.47842
42300.00000	113.42047	-1179.53865	113.42047
42350.00000	113.35449	-1181.76110	113.35449
42400.00000	113.29352	-1183.94579	113.29352
42450.00000	113.21779	-1186.25499	113.21779
42500.00000	113.11301	-1188.30348	113.11301
42550.00000	113.01500	-1190.37212	113.01500
42600.00000	112.93094	-1192.58202	112.93094
42650.00000	112.85884	-1194.63810	112.85884
42700.00000	112.74417	-1196.40849	112.74417
42750.00000	112.67153	-1198.56115	112.67153
42800.00000	112.59697	-1200.38413	112.59697
42850.00000	112.52575	-1202.25882	112.52575
42900.00000	112.48177	-1204.19062	112.48177
42950.00000	112.37702	-1206.08356	112.37702
43000.00000	112.33398	-1207.67992	112.33398
43050.00000	112.26389	-1209.32468	112.26389
43100.00000	112.23155	-1211.52840	112.23155
43150.00000	112.18388	-1212.76347	112.18388
43200.00000	112.11452	-1214.91169	112.11452
43250.00000	112.06015	-1216.41658	112.06015
43300.00000	112.03589	-1218.18888	112.03589
43350.00000	111.96039	-1219.57988	111.96039
43400.00000	111.94790	-1221.48599	111.94790
43450.00000	111.89150	-1223.16930	111.89150
43500.00000	111.81882	-1225.10865	111.81882
43550.00000	111.82423	-1226.62822	111.82423
43600.00000	111.68960	-1228.40981	111.68960
43650.00000	111.68709	-1230.29462	111.68709
43700.00000	111.63868	-1231.58230	111.63868
43750.00000	111.62620	-1233.67862	111.62620
43800.00000	111.59246	-1234.99361	111.59246
43850.00000	111.49046	-1236.81170	111.49046
43900.00000	111.52567	-1238.42585	111.52567
43950.00000	111.50918	-1240.10382	111.50918
44000.00000	111.46308	-1241.38097	111.46308
44050.00000	111.47588	-1242.86185	111.47588
44100.00000	111.44979	-1244.25840	111.44979
44150.00000	111.45942	-1245.33169	111.45942
44200.00000	111.48812	-1246.70727	111.48812
44250.00000	111.50611	-1247.90011	111.50611
44300.00000	111.56969	-1249.20683	111.56969
44350.00000	111.62894	-1250.57521	111.62894
44400.00000	111.71778	-1251.44602	111.71778
44450.00000	111.73654	-1252.69225	111.73654
44500.00000	111.82601	-1253.73631	111.82601
44550.00000	111.90560	-1254.89593	111.90560
44600.00000	112.03890	-1256.26641	112.03890
44650.00000	112.12518	-1257.82543	112.12518
44700.00000	112.28826	-1259.09283	112.28826
44750.00000	112.41648	-1260.50450	112.41648
44800.00000	112.55590	-1261.91355	112.55590
44850.00000	112.74390	-1263.72807	112.74390
44900.00000	112.87637	-1265.58076	112.87637
44950.00000	113.13082	-1267.39908	113.13082
45000.00000	113.31018	-1269.13594	113.31018
45050.00000	113.54582	-1271.03430	113.54582
45100.00000	113.74741	-1273.17657	113.74741
45150.00000	113.97335	-1275.06422	113.97335
45200.00000	114.21895	-1276.96767	114.21895
45250.00000	114.45203	-1279.59896	114.45203
45300.00000	114.64540	-1281.63150	114.64540
45350.00000	114.90892	-1284.01856	114.90892
45400.00000	115.18882	-1286.56453	115.18882
45450.00000	115.46009	-1289.21382	115.46009
45500.00000	115.66965	-1291.73477	115.66965
45550.00000	115.96687	-1294.72437	115.96687
45600.00000	116.23675	-1297.82342	116.23675
45650.00000	116.50018	-1301.04183	116.50018
45700.00000	116.74906	-1304.57916	116.74906
45750.00000	117.01362	-1308.20900	117.01362
45800.00000	117.22433	-1312.29899	117.22433
45850.00000	117.43473	-1316.35824	117.43473
45900.00000	117.57555	-1320.79213	117.57555
45950.00000	117.70857	-1325.17682	117.70857
46000.00000	117.79853	-1329.60772	117.79853
46050.00000	117.88096	-1334.06661	117.88096
46100.00000	117.90828	-1338.28950	117.90828
46150.00000	117.95507	-1342.81701	117.95507
46200.00000	117.93529	-1347.09062	117.93529
46250.00000	117.89693	-1351.54139	117.89693
46300.00000	117.87825	-1355.54007	117.87825
46350.00000	117.77522	-1359.56904	117.77522
46400.00000	117.66866	-1363.53560	117.66866
46450.00000	117.55877	-1367.26587	117.55877
46500.00000	117.42342	-1371.05893	117.42342
46550.00000	117.28548	-1374.62658	117.28548
46600.00000	117.13462	-1377.93781	117.13462
46650.00000	117.01691	-1381.09858	117.01691
46700.00000	116.93143	-1384.42621	116.93143
46750.00000	116.80965	-1387.76314	116.80965
46800.00000	116.71219	-1390.65494	116.71219
46850.00000	116.59529	-1394.17923	116.59529
46900.00000	116.47704	-1397.27420	116.47704
46950.00000	116.40735	-1400.30369	116.40735
47000.00000	116.26740	-1403.70386	116.26740
47050.00000	116.15081	-1406.76515	116.15081
47100.00000	116.10568	-1409.53367	116.10568
47150.00000	115.95976	-1412.29760	115.95976
47200.00000	115.86041	-1415.56616	115.86041
47250.00000	115.73617	-1418.58956	115.73617
47300.00000	115.67420	-1421.48555	115.67420
47350.00000	115.61772	-1424.12769	115.61772
47400.00000	115.46556	-1427.29151	115.46556
47450.00000	115.39967	-1430.12381	115.39967
47500.00000	115.31190	-1432.90192	115.31190
47550.00000	115.25139	-1436.00081	115.25139
47600.00000	115.11508	-1439.35586	115.11508
47650.00000	114.99114	-1441.93445	114.99114
47700.00000	114.95285	-1445.17695	114.95285
47750.00000	114.79532	-1448.09020	114.79532
47800.00000	114.74808	-1450.84873	114.74808
47850.00000	114.60152	-1454.03675	114.60152
47900.00000	114.53597	-1456.79059	114.53597
47950.00000	114.47248	-1460.06827	114.47248
48000.00000	114.35502	-1463.35251	114.35502
48050.00000	114.28154	-1466.06730	114.28154
48100.00000	114.18857	-1469.76096	114.18857
48150.00000	114.12190	-1472.78528	114.12190
48200.00000	113.98353	-1476.25042	113.98353
48250.00000	113.81479	-1479.29325	113.81479
48300.00000	113.78517	-1482.28720	113.78517
48350.00000	113.67084	-1485.66156	113.67084
48400.00000	113.44101	-1489.24867	113.44101
48450.00000	113.31154	-1492.77236	113.31154
48500.00000	113.12243	-1496.08440	113.12243
48550.00000	112.93443	-1499.09039	112.93443
48600.00000	112.73517	-1503.49533	112.73517
48650.00000	112.55220	-1506.46711	112.55220
48700.00000	112.26723	-1509.50571	112.26723
48750.00000	112.07090	-1513.33123	112.07090
48800.00000	111.73093	-1516.43405	111.73093
48850.00000	111.38807	-1520.44340	111.38807
48900.00000	111.22344	-1523.29051	111.22344
48950.00000	110.71138	-1526.27876	110.71138
49000.00000	110.43895	-1529.69651	110.43895
49050.00000	110.10862	-1532.85716	110.10862
49100.00000	109.65380	-1534.76918	109.65380
49150.00000	109.29269	-1537.48731	109.29269
49200.00000	108.75757	-1538.90344	108.75757
49250.00000	108.47450	-1540.40198	108.47450
49300.00000	108.07293	-1541.90064	108.07293
49350.00000	107.58322	-1542.95700	107.58322
49400.00000	107.15388	-1545.24488	107.15388
49450.00000	106.93989	-1545.46748	106.93989
49500.00000	106.58608	-1545.91956	106.58608
49550.00000	106.33715	-1547.01238	106.33715
49600.00000	106.08557	-1187.69069	106.08557
49650.00000	105.85175	-1189.02153	105.85175
49700.00000	105.47108	-829.48145	105.47108
49750.00000	105.36119	-469.40940	105.36119
49800.00000	105.16331	-468.72219	105.16331
49850.00000	105.04133	248.21446	105.04133
49900.00000	104.95120	248.93930	104.95120
49950.00000	104.77798	609.13058	104.77798
50000.00000	104.77745	607.82241	104.77745
50050.00000	104.68314	607.31367	104.68314
50100.00000	104.57578	606.85926	104.57578
50150.00000	104.66524	605.92817	104.66524
50200.00000	104.60401	604.76939	104.60401
50250.00000	104.48355	604.44476	104.48355
50300.00000	104.65795	603.14251	104.65795
50350.00000	104.53543	603.13906	104.53543
50400.00000	104.64724	601.23115	104.64724
50450.00000	104.64827	600.63174	104.64827
50500.00000	104.65149	599.45197	104.65149
50550.00000	104.56000	598.16390	104.56000
50600.00000	104.78228	596.57553	104.78228
50650.00000	104.80742	595.32709	104.80742
50700.00000	104.80499	592.92519	104.80499
50750.00000	104.75010	591.20389	104.75010
50800.00000	104.84055	589.29042	104.84055
50850.00000	104.81947	588.00240	104.81947
50900.00000	104.81445	585.69701	104.81445
50950.00000	104.89594	583.70558	104.89594
51000.00000	105.02442	581.23674	105.02442
51050.00000	104.97777	579.82473	104.97777
51100.00000	104.97009	577.38487	104.97009
51150.00000	104.84316	575.10747	104.84316
51200.00000	104.77117	573.13662	104.77117
51250.00000	104.77308	571.14855	104.77308
51300.00000	104.82113	568.17206	104.82113
51350.00000	104.76540	566.85935	104.76540
51400.00000	104.59733	563.65419	104.59733
51450.00000	104.48710	561.75293	104.48710
51500.00000	104.35232	559.85836	104.35232
51550.00000	104.25738	558.02634	104.25738
51600.00000	104.09180	555.55236	104.09180
51650.00000	103.85154	553.48751	103.85154
51700.00000	103.70542	551.24352	103.70542
51750.00000	103.47318	550.46369	103.47318
51800.00000	103.34044	548.56102	103.34044
51850.00000	103.20411	546.61188	103.20411
51900.00000	102.95854	545.49032	102.95854
51950.00000	102.57183	544.29159	102.57183
52000.00000	102.35211	544.00825	102.35211
52050.00000	102.43757	542.86378	102.43757
52100.00000	102.13961	542.78442	102.13961
52150.00000	102.02428	542.73887	102.02428
52200.00000	101.88037	542.43619	101.88037
52250.00000	101.91684	542.22678	101.91684
52300.00000	101.60613	543.41186	101.60613
52350.00000	101.81401	542.77797	101.81401
52400.00000	101.71191	542.10964	101.71191
52450.00000	101.85978	541.64613	101.85978
52500.00000	101.95990	541.18939	101.95990
52550.00000	102.00108	541.69484	102.00108
52600.00000	101.96216	540.95256	101.96216
52650.00000	102.07879	540.67742	102.07879
52700.00000	102.40733	540.37347	102.40733
52750.00000	102.45777	539.45079	102.45777
52800.00000	102.72719	538.92469	102.72719
52850.00000	102.75483	537.84679	102.75483
52900.00000	103.08557	536.63447	103.08557
52950.00000	103.20792	535.93906	103.20792
53000.00000	103.42253	533.94384	103.42253
53050.00000	103.51824	532.66668	103.51824
53100.00000	103.84304	531.29959	103.84304
53150.00000	104.09298	529.89629	104.09298
53200.00000	104.08355	528.07145	104.08355
53250.00000	104.39278	526.96223	104.39278
53300.00000	104.43502	523.68497	104.43502
53350.00000	104.50670	522.74013	104.50670
53400.00000	104.89721	521.14026	104.89721
53450.00000	104.98331	518.25551	104.98331
53500.00000	105.17037	516.62657	105.17037
53550.00000	105.35887	513.73044	105.35887
53600.00000	105.43856	511.18670	105.43856
53650.00000	105.58756	509.21878	105.58756
53700.00000	105.75252	506.65507	105.75252
53750.00000	105.76816	504.33788	105.76816
53800.00000	105.84131	501.86789	105.84131
53850.00000	105.96452	499.83782	105.96452
53900.00000	106.04241	497.65892	106.04241
53950.00000	106.07751	494.52541	106.07751
54000.00000	106.07329	492.07305	106.07329
54050.00000	106.14912	489.41654	106.14912
54100.00000	106.24597	487.59874	106.24597
54150.00000	106.19322	484.43984	106.19322
54200.00000	106.04865	483.04538	106.04865
54250.00000	106.19542	479.91584	106.19542
54300.00000	106.23106	478.36872	106.23106
54350.00000	106.22476	476.18126	106.22476
54400.00000	106.32160	474.72166	106.32160
54450.00000	106.25137	472.03676	106.25137
54500.00000	106.15440	471.19514	106.15440
54550.00000	106.20981	469.29085	106.20981
54600.00000	106.19618	467.81041	106.19618
54650.00000	106.35694	465.40130	106.35694
54700.00000	106.29834	463.75692	106.29834
54750.00000	106.50866	462.84639	106.50866
54800.00000	106.44103	461.06078	106.44103
54850.00000	106.44762	459.65725	106.44762
54900.00000	106.65993	458.03567	106.65993
54950.00000	106.70394	457.30470	106.70394
55000.00000	106.97590	455.50074	106.97590
55050.00000	106.98109	453.68807	106.98109
55100.00000	107.25051	451.94417	107.25051
55150.00000	107.46273	450.46260	107.46273
55200.00000	107.56345	448.42700	107.56345
55250.00000	107.79796	446.51718	107.79796
55300.00000	108.02860	444.49163	108.02860
55350.00000	108.25305	442.60346	108.25305
55400.00000	108.42919	440.08854	108.42919
55450.00000	108.67625	438.13892	108.67625
55500.00000	108.91547	435.19545	108.91547
55550.00000	109.13635	432.79950	109.13635
55600.00000	109.29139	429.88509	109.29139
55650.00000	109.58573	427.29175	109.58573
55700.00000	109.70599	424.31120	109.70599
55750.00000	109.88241	421.71399	109.88241
55800.00000	110.13830	418.49023	110.13830
55850.00000	110.32857	415.39374	110.32857
55900.00000	110.46965	412.50128	110.46965
55950.00000	110.64005	409.43543	110.64005
56000.00000	110.85246	406.13505	110.85246
56050.00000	110.99825	403.11493	110.99825
56100.00000	111.15603	399.60037	111.15603
56150.00000	111.29406	396.35468	111.29406
56200.00000	111.44056	392.91512	111.44056
56250.00000	111.54799	389.55812	111.54799
56300.00000	111.67832	385.92421	111.67832
56350.00000	111.81339	382.54501	111.81339
56400.00000	111.93689	379.17349	111.93689
56450.00000	112.03111	375.31036	112.03111
56500.00000	112.15911	371.85090	112.15911
56550.00000	112.20217	367.97521	112.20217
56600.00000	112.26455	364.35280	112.26455
56650.00000	112.36621	360.59337	112.36621
56700.00000	112.43372	356.72563	112.43372
56750.00000	112.48047	352.85172	112.48047
56800.00000	112.47722	348.98880	112.47722
56850.00000	112.53681	345.26532	112.53681
56900.00000	112.52634	341.20787	112.52634
56950.00000	112.51897	337.56697	112.51897
57000.00000	112.47386	333.42481	112.47386
57050.00000	112.42672	329.59310	112.42672
57100.00000	112.35799	325.65149	112.35799
57150.00000	112.27315	321.74944	112.27315
57200.00000	112.18454	318.13630	112.18454
57250.00000	112.11511	314.22925	112.11511
57300.00000	112.00727	310.58848	112.00727
57350.00000	111.84565	307.06719	111.84565
57400.00000	111.70999	303.67854	111.70999
57450.00000	111.55111	300.24323	111.55111
57500.00000	111.38362	296.75643	111.38362
57550.00000	111.25907	293.58845	111.25907
57600.00000	111.05666	290.52278	111.05666
57650.00000	110.87536	287.66728	110.87536
57700.00000	110.69019	284.91444	110.69019
57750.00000	110.53687	282.06822	110.53687
57800.00000	110.34938	279.55417	110.34938
57850.00000	110.21402	277.22945	110.21402
57900.00000	110.04089	274.98257	110.04089
57950.00000	109.91929	272.83615	109.91929
58000.00000	109.81859	270.80002	109.81859
58050.00000	109.76568	268.81621	109.76568
58100.00000	109.72292	266.48399	109.72292
58150.00000	109.68079	264.48582	109.68079
58200.00000	109.67562	261.97224	109.67562
58250.00000	109.69002	259.40884	109.69002
58300.00000	109.67124	256.68530	109.67124
58350.00000	109.69332	253.82453	109.69332
58400.00000	109.67209	251.07981	109.67209
58450.00000	109.63770	248.14371	109.63770
58500.00000	109.58272	245.24984	109.58272
58550.00000	109.53586	242.23566	109.53586
58600.00000	109.46983	239.28095	109.46983
58650.00000	109.38344	236.46602	109.38344
58700.00000	109.28830	233.44895	109.28830
58750.00000	109.20027	230.50890	109.20027
58800.00000	109.12629	227.63982	109.12629
58850.00000	109.03141	224.86777	109.03141
58900.00000	108.90232	222.07043	108.90232
58950.00000	108.78583	219.22500	108.78583
59000.00000	108.63998	216.45216	108.63998
59050.00000	108.50251	213.78942	108.50251
59100.00000	108.34991	211.09070	108.34991
59150.00000	108.21942	208.86293	108.21942
59200.00000	108.08234	206.30507	108.08234
59250.00000	107.90815	204.09978	107.90815
59300.00000	107.80138	201.89600	107.80138
59350.00000	107.63492	199.57357	107.63492
59400.00000	107.54512	197.81986	107.54512
59450.00000	107.38033	195.60456	107.38033
59500.00000	107.29321	193.76438	107.29321
59550.00000	107.21639	192.04243	107.21639
59600.00000	107.14704	190.13257	107.14704
59650.00000	107.11833	188.10287	107.11833
59700.00000	107.09569	186.44506	107.09569
59750.00000	107.09169	184.44078	107.09169
59800.00000	107.05695	182.54600	107.05695
59850.00000	107.10690	180.46253	107.10690
59900.00000	107.13943	178.28014	107.13943
59950.00000	107.19057	176.06911	107.19057
60000.00000	107.25561	173.51291	107.25561
60050.00000	107.31394	170.68305	107.31394
60100.00000	107.32700	167.75874	107.32700
60150.00000	107.35978	164.91965	107.35978
60200.00000	107.39131	161.34106	107.39131
60250.00000	107.35989	157.91224	107.35989
60300.00000	107.30606	154.47915	107.30606
60350.00000	107.16422	151.05237	107.16422
60400.00000	107.02649	147.49197	107.02649
60450.00000	106.84110	144.35488	106.84110
60500.00000	106.60760	141.07874	106.60760
60550.00000	106.33348	138.38080	106.33348
60600.00000	106.08924	136.09893	106.08924
60650.00000	105.84183	133.86425	105.84183
60700.00000	105.60826	131.83933	105.60826
60750.00000	105.39141	129.85209	105.39141
60800.00000	105.17169	128.51707	105.17169
60850.00000	105.00600	126.95182	105.00600
60900.00000	104.85037	125.39515	104.85037
60950.00000	104.69579	124.37972	104.69579
61000.00000	104.59198	122.96047	104.59198
61050.00000	104.50625	121.71887	104.50625
61100.00000	104.47317	120.42284	104.47317
61150.00000	104.42062	119.01855	104.42062
61200.00000	104.40155	117.67749	104.40155
61250.00000	104.38524	116.22095	104.38524
61300.00000	104.36038	114.93284	104.36038
61350.00000	104.39180	113.50420	104.39180
61400.00000	104.43670	111.93476	104.43670
61450.00000	104.43499	110.30241	104.43499
61500.00000	104.50270	108.66681	104.50270
61550.00000	104.57856	106.97473	104.57856
61600.00000	104.66349	105.40348	104.66349
61650.00000	104.74980	103.28749	104.74980
61700.00000	104.84047	101.19810	104.84047
61750.00000	104.93328	99.11122	104.93328
61800.00000	105.01103	96.91556	105.01103
61850.00000	105.11756	94.46815	105.11756
61900.00000	105.23383	91.98221	105.23383
61950.00000	105.30192	89.48243	105.30192
62000.00000	105.34465	86.83442	105.34465
62050.00000	105.42850	84.24701	105.42850
62100.00000	105.49146	81.57545	105.49146
62150.00000	105.51534	78.77008	105.51534
62200.00000	105.55328	75.92440	105.55328
62250.00000	105.57875	73.17701	105.57875
62300.00000	105.60818	70.27717	105.60818
62350.00000	105.62772	67.41479	105.62772
62400.00000	105.63982	64.44291	105.63982
62450.00000	105.60705	61.61267	105.60705
62500.00000	105.59596	58.63991	105.59596
62550.00000	105.57914	55.74783	105.57914
62600.00000	105.49679	52.80862	105.49679
62650.00000	105.44921	49.85508	105.44921
62700.00000	105.38832	47.20063	105.38832
62750.00000	105.29419	44.39510	105.29419
62800.00000	105.20237	41.51507	105.20237
62850.00000	105.15548	38.89146	105.15548
62900.00000	105.05625	36.41193	105.05625
62950.00000	104.94241	34.00776	104.94241
63000.00000	104.88440	31.71536	104.88440
63050.00000	104.74220	29.75290	104.74220
63100.00000	104.65385	27.35217	104.65385
63150.00000	104.61934	25.14418	104.61934
63200.00000	104.52053	23.65915	104.52053
63250.00000	104.43849	21.79077	104.43849
63300.00000	104.44835	19.95901	104.44835
63350.00000	104.40934	18.27071	104.40934
63400.00000	104.39029	16.58696	104.39029
63450.00000	104.44569	14.79497	104.44569
63500.00000	104.49716	13.02870	104.49716
63550.00000	104.58508	11.63645	104.58508
63600.00000	104.67575	 9.42577	104.67575
63650.00000	104.81198	 7.76079	104.81198
63700.00000	104.92047	 5.65355	104.92047
63750.00000	105.08815	 3.35736	105.08815
63800.00000	105.26870	 1.29584	105.26870
63850.00000	105.41547	-1.15255	105.41547
63900.00000	105.62067	-3.56263	105.62067
63950.00000	105.84030	-6.34289	105.84030
64000.00000	106.04467	-9.28716	106.04467
64050.00000	106.26094	-12.35988	106.26094
64100.00000	106.53256	-15.66013	106.53256
64150.00000	106.75185	-19.17574	106.75185
64200.00000	106.96031	-23.03925	106.96031
64250.00000	107.14497	-27.18879	107.14497
64300.00000	107.35439	-31.82276	107.35439
64350.00000	107.51328	-36.55348	107.51328
64400.00000	107.60273	-41.57540	107.60273
64450.00000	107.60047	-46.76576	107.60047
64500.00000	107.57430	-52.04963	107.57430
64550.00000	107.44363	-57.52475	107.44363
64600.00000	107.28395	-62.31282	107.28395
64650.00000	106.99706	-66.81472	106.99706
64700.00000	106.78895	-70.88561	106.78895
64750.00000	106.53644	-74.21525	106.53644
64800.00000	106.33333	-77.50008	106.33333
64850.00000	106.29680	-81.60860	106.29680
64900.00000	106.20530	-84.94811	106.20530
64950.00000	106.10245	-88.87371	106.10245
65000.00000	106.10140	-93.64912	106.10140
65050.00000	105.94762	-98.07452	105.94762
65100.00000	105.81947	-103.40152	105.81947
65150.00000	105.55405	-109.04848	105.55405
65200.00000	105.19915	-114.37943	105.19915
65250.00000	104.70768	-119.81270	104.70768
65300.00000	104.17592	-125.39704	104.17592
65350.00000	103.40012	-130.24492	103.40012
65400.00000	102.53715	-133.42297	102.53715
65450.00000	101.71392	-136.21453	101.71392
65500.00000	100.79824	-136.92234	100.79824
65550.00000	99.95274	-136.30750	99.95274
65600.00000	99.42584	-134.50876	99.42584
65650.00000	99.05254	-132.59181	99.05254
65700.00000	98.91717	-131.37470	98.91717
65750.00000	98.82237	-130.38550	98.82237
65800.00000	98.89926	-130.37862	98.89926
65850.00000	99.06373	-130.32749	99.06373
65900.00000	99.09431	-131.91596	99.09431
65950.00000	99.21415	-132.46616	99.21415
66000.00000	99.23351	-133.91094	99.23351
66050.00000	99.30261	-135.48431	99.30261
66100.00000	99.41654	-137.36826	99.41654
66150.00000	99.51720	-139.15183	99.51720
66200.00000	99.58999	-141.60214	99.58999
66250.00000	99.77023	-144.26799	99.77023
66300.00000	99.80125	-147.19011	99.80125
66350.00000	99.78153	-151.27642	99.78153
66400.00000	99.77324	-154.43522	99.77324
66450.00000	99.71074	-157.63248	99.71074
66500.00000	99.55548	-161.15749	99.55548
66550.00000	99.36506	-164.72961	99.36506
66600.00000	99.10151	-167.29427	99.10151
66650.00000	98.81300	-170.36669	98.81300
66700.00000	98.58292	-172.68482	98.58292
66750.00000	98.24871	-174.48399	98.24871
66800.00000	98.05103	-176.35794	98.05103
66850.00000	97.86790	-178.46675	97.86790
66900.00000	97.65915	-180.29390	97.65915
66950.00000	97.47528	-181.66047	97.47528
67000.00000	97.35002	-183.83384	97.35002
67050.00000	97.21817	-185.31755	97.21817
67100.00000	97.08223	-187.00490	97.08223
67150.00000	96.99138	-188.95388	96.99138
67200.00000	96.90632	-190.00011	96.90632
67250.00000	96.77513	-192.04263	96.77513
67300.00000	96.69891	-193.91756	96.69891
67350.00000	96.60134	-194.96028	96.60134
67400.00000	96.58851	-196.71508	96.58851
67450.00000	96.55894	-198.67120	96.55894
67500.00000	96.40413	-200.16549	96.40413
67550.00000	96.41268	-202.50399	96.41268
67600.00000	96.42135	-204.38693	96.42135
67650.00000	96.23831	-206.48572	96.23831
67700.00000	96.23518	-208.77201	96.23518
67750.00000	96.12398	-210.62712	96.12398
67800.00000	95.97446	-212.53231	95.97446
67850.00000	95.92254	-214.42297	95.92254
67900.00000	95.83485	-216.01696	95.83485
67950.00000	95.73217	-217.47513	95.73217
68000.00000	95.59470	-219.12269	95.59470
68050.00000	95.57836	-220.63171	95.57836
68100.00000	95.50205	-221.92526	95.50205
68150.00000	95.45094	-223.23026	95.45094
68200.00000	95.55426	-224.16817	95.55426
68250.00000	95.61035	-225.51402	95.61035
68300.00000	95.70807	-226.86001	95.70807
68350.00000	95.77951	-228.47300	95.77951
68400.00000	95.90468	-230.32965	95.90468
68450.00000	96.00938	-232.20690	96.00938
68500.00000	96.23816	-233.71947	96.23816
68550.00000	96.37328	-235.77283	96.37328
68600.00000	96.58773	-238.26781	96.58773
68650.00000	96.78624	-240.60812	96.78624
68700.00000	96.97294	-243.47410	96.97294
68750.00000	97.26839	-246.68811	97.26839
68800.00000	97.38653	-249.94216	97.38653
68850.00000	97.58859	-253.27440	97.58859
68900.00000	97.79815	-257.49317	97.79815
68950.00000	97.93046	-261.32169	97.93046
69000.00000	98.05158	-265.61677	98.05158
69050.00000	98.08280	-269.90649	98.08280
69100.00000	98.17771	-274.56596	98.17771
69150.00000	98.17081	-279.40637	98.17081
69200.00000	98.13703	-283.55381	98.13703
69250.00000	98.07290	-288.14039	98.07290
69300.00000	98.03519	-293.12190	98.03519
69350.00000	97.97393	-297.60998	97.97393
69400.00000	97.77810	-302.39788	97.77810
69450.00000	97.69770	-307.17738	97.69770
69500.00000	97.55349	-312.11551	97.55349
69550.00000	97.34093	-317.53146	97.34093
69600.00000	97.09717	-322.80869	97.09717
69650.00000	96.78450	-327.62757	96.78450
69700.00000	96.42665	-333.41114	96.42665
69750.00000	96.02313	-338.59464	96.02313
69800.00000	95.49816	-344.09674	95.49816
69850.00000	94.91615	-349.82544	94.91615
69900.00000	94.19347	-354.56842	94.19347
69950.00000	93.40832	-359.26113	93.40832
70000.00000	92.47314	-363.39691	92.47314
70050.00000	91.61176	-365.92576	91.61176
70100.00000	90.38806	-369.45958	90.38806
70150.00000	89.37097	-371.84941	89.37097
70200.00000	88.10490	-370.06968	88.10490
70250.00000	86.94685	-369.35497	86.94685
70300.00000	85.72320	-365.51399	85.72320
70350.00000	84.78391	-357.70870	84.78391
70400.00000	84.11470	-353.81739	84.11470
70450.00000	84.17659	-346.45158	84.17659
70500.00000	84.40525	-338.77316	84.40525
70550.00000	84.54937	-334.89787	84.54937
70600.00000	85.57627	-330.58305	85.57627
70650.00000	85.80526	-328.07663	85.80526
70700.00000	86.44147	-328.42610	86.44147
70750.00000	87.22953	-327.62825	87.22953
70800.00000	87.58207	-328.26833	87.58207
70850.00000	87.96725	-330.19650	87.96725
70900.00000	88.55178	-330.82514	88.55178
70950.00000	88.99090	-332.05307	88.99090
71000.00000	89.41169	-334.68769	89.41169
71050.00000	89.99275	-336.49553	89.99275
71100.00000	90.24767	-338.77520	90.24767
71150.00000	90.95197	-341.76375	90.95197
71200.00000	91.45329	-344.43188	91.45329
71250.00000	91.81462	-348.08420	91.81462
71300.00000	92.36077	-352.94065	92.36077
71350.00000	92.75874	-357.02567	92.75874
71400.00000	92.92307	-363.57756	92.92307
71450.00000	93.35789	-368.94402	93.35789
71500.00000	93.37669	-373.33831	93.37669
71550.00000	93.45686	-379.97926	93.45686
71600.00000	93.77982	-385.53368	93.77982
71650.00000	93.41197	-391.17968	93.41197
71700.00000	93.34763	-399.16149	93.34763
71750.00000	93.42763	-403.46730	93.42763
71800.00000	92.96089	-409.27716	92.96089
71850.00000	92.72645	-416.02779	92.72645
71900.00000	92.34385	-419.78543	92.34385
71950.00000	91.68747	-427.83308	91.68747
72000.00000	91.48131	-429.86135	91.48131
72050.00000	90.71538	-432.23919	90.71538
72100.00000	90.15017	-437.26165	90.15017
72150.00000	90.25722	-438.17959	90.25722
72200.00000	89.79557	-442.30234	89.79557
72250.00000	89.68784	-448.01742	89.68784
72300.00000	89.57469	-448.87772	89.57469
72350.00000	88.70645	-455.83627	88.70645
72400.00000	88.81951	-461.05023	88.81951
72450.00000	88.15868	-463.67372	88.15868
72500.00000	87.40318	-469.48893	87.40318
72550.00000	87.16587	-473.70324	87.16587
72600.00000	85.76910	-473.01992	85.76910
72650.00000	84.78053	-483.18535	84.78053
72700.00000	84.28239	-482.67432	84.28239
72750.00000	82.38261	-483.30957	82.38261
72800.00000	81.55779	-487.15413	81.55779
72850.00000	81.35133	-477.34578	81.35133
72900.00000	79.48260	-471.20350	79.48260
72950.00000	79.60472	-472.74431	79.60472
73000.00000	79.94391	-456.31530	79.94391
73050.00000	79.22944	-455.41679	79.22944
73100.00000	80.72836	-456.60366	80.72836
73150.00000	81.07247	-448.23378	81.07247
73200.00000	80.88892	-455.11113	80.88892
73250.00000	82.25127	-455.98922	82.25127
73300.00000	82.18401	-454.07052	82.18401
73350.00000	82.32690	-461.31575	82.32690
73400.00000	83.23043	-462.51369	83.23043
73450.00000	82.78515	-463.24554	82.78515
73500.00000	83.05448	-470.76357	83.05448
73550.00000	83.71216	-466.82879	83.71216
73600.00000	83.48731	-469.86645	83.48731
73650.00000	84.39543	-477.31478	84.39543
73700.00000	84.66371	-473.63785	84.66371
73750.00000	84.60780	-481.28734	84.60780
73800.00000	85.70786	-486.58275	85.70786
73850.00000	85.85824	-488.54484	85.85824
73900.00000	86.07712	-498.70999	86.07712
73950.00000	87.35845	-502.31896	87.35845
74000.00000	86.74830	-508.98455	86.74830
74050.00000	87.73056	-523.44333	87.73056
74100.00000	87.89269	-526.01681	87.89269
74150.00000	87.80804	-542.39378	87.80804
74200.00000	88.39042	-551.29823	88.39042
74250.00000	87.50497	-561.81142	87.50497
74300.00000	88.62116	-589.23145	88.62116
74350.00000	88.43560	-600.40606	88.43560
74400.00000	85.98538	-661.48972	85.98538
74450.00000	82.77847	-835.69084	82.77847
74500.00000	86.62493	-905.74661	86.62493
74550.00000	86.10633	-942.82572	86.10633
74600.00000	85.61834	-961.62219	85.61834
74650.00000	85.80401	-980.64023	85.80401
74700.00000	85.24097	-995.48220	85.24097
74750.00000	85.61332	-1007.12328	85.61332
74800.00000	85.40944	-1022.55577	85.40944
74850.00000	85.20869	-1034.03924	85.20869
74900.00000	84.96743	-1049.81106	84.96743
74950.00000	85.28703	-1061.47586	85.28703
75000.00000	84.89049	-1071.57184	84.89049
75050.00000	85.13350	-1085.65521	85.13350
75100.00000	85.17590	-1094.10654	85.17590
75150.00000	84.49238	-1103.69039	84.49238
75200.00000	85.67040	-1115.47998	85.67040
75250.00000	84.57541	-1122.17280	84.57541
75300.00000	84.89973	-1134.47736	84.89973
75350.00000	85.35480	-1136.25268	85.35480
75400.00000	84.26888	-1145.59552	84.26888
75450.00000	85.24808	-1153.50763	85.24808
75500.00000	84.65417	-1152.87875	84.65417
75550.00000	84.51057	-1166.91702	84.51057
75600.00000	85.47272	-1166.81021	85.47272
75650.00000	84.28727	-1173.58646	84.28727
75700.00000	85.31710	-1184.59356	85.31710
75750.00000	85.16345	-1180.94603	85.16345
75800.00000	84.33097	-1193.72223	84.33097
75850.00000	85.67109	-1194.89740	85.67109
75900.00000	84.49568	-1195.76122	84.49568
75950.00000	84.93530	-1206.10887	84.93530
76000.00000	85.48334	-1204.59601	85.48334
76050.00000	83.92377	-1212.63889	83.92377
76100.00000	85.66251	-1218.34244	85.66251
76150.00000	84.69393	-1212.36965	84.69393
76200.00000	84.38522	-1227.50958	84.38522
76250.00000	86.02035	-1225.36955	86.02035
76300.00000	83.88924	-1227.12325	83.88924
76350.00000	85.08268	-1241.26328	85.08268
76400.00000	85.27406	-1228.12875	85.27406
76450.00000	83.17491	-1240.52640	83.17491
76500.00000	85.87909	-1246.41495	85.87909
76550.00000	84.46625	-1237.73734	84.46625
76600.00000	84.23031	-1258.78307	84.23031
76650.00000	85.96375	-1248.97388	85.96375
76700.00000	82.84065	-1253.33807	82.84065
76750.00000	85.72018	-1267.28390	85.72018
76800.00000	85.13912	-1251.75681	85.13912
76850.00000	83.40945	-1273.15464	83.40945
76900.00000	86.86629	-1269.80480	86.86629
76950.00000	83.07669	-1261.26242	83.07669
77000.00000	84.63074	-1288.60589	84.63074
77050.00000	85.97171	-1268.25533	85.97171
77100.00000	82.30357	-1281.06904	82.30357
77150.00000	86.45390	-1294.42564	86.45390
77200.00000	84.78773	-1274.62419	84.78773
77250.00000	83.14438	-1307.71118	83.14438
77300.00000	86.30413	-1295.90408	86.30413
77350.00000	82.39839	-1283.58482	82.39839
77400.00000	84.60954	-1320.09160	84.60954
77450.00000	85.37317	-1293.80041	85.37317
77500.00000	79.84941	-1311.95658	79.84941
77550.00000	85.79311	-1319.55926	85.79311
77600.00000	83.07465	-1295.50667	83.07465
77650.00000	81.92422	-1336.77413	81.92422
77700.00000	85.18259	-1313.44381	85.18259
77750.00000	79.04899	-1304.33408	79.04899
77800.00000	84.01793	-1337.68785	84.01793
77850.00000	84.35420	-1306.56649	84.35420
77900.00000	78.89542	-1335.17132	78.89542
77950.00000	84.99113	-1333.84845	84.99113
78000.00000	81.21184	-1310.45960	81.21184
78050.00000	81.73168	-1353.00408	81.73168
78100.00000	84.60852	-1328.76715	84.60852
78150.00000	78.97717	-1327.69987	78.97717
78200.00000	83.67247	-1352.73174	83.67247
78250.00000	83.03234	-1325.39678	83.03234
78300.00000	79.31592	-1357.82532	79.31592
78350.00000	84.26764	-1348.30772	84.26764
78400.00000	80.27877	-1329.88773	80.27877
78450.00000	82.25383	-1368.38429	82.25383
78500.00000	83.48375	-1342.62767	83.48375
78550.00000	78.46395	-1353.18656	78.46395
78600.00000	83.47488	-1365.40971	83.47488
78650.00000	81.58769	-1344.56415	81.58769
78700.00000	80.53976	-1375.65467	80.53976
78750.00000	83.52988	-1359.03469	83.52988
78800.00000	79.48658	-1359.96163	79.48658
78850.00000	82.57792	-1377.82191	82.57792
78900.00000	81.88272	-1358.12009	81.88272
78950.00000	80.09760	-1382.43101	80.09760
79000.00000	83.05164	-1375.93322	83.05164
79050.00000	79.81106	-1368.66871	79.81106
79100.00000	81.41001	-1392.39547	81.41001
79150.00000	82.12484	-1375.06380	82.12484
79200.00000	79.66933	-1387.79472	79.66933
79250.00000	82.41766	-1390.91283	82.41766
79300.00000	80.53104	-1381.67747	80.53104
79350.00000	80.80585	-1404.04152	80.80585
79400.00000	82.08298	-1391.05583	82.08298
79450.00000	79.78029	-1399.41970	79.78029
79500.00000	81.91064	-1405.59507	81.91064
79550.00000	80.64856	-1396.36947	80.64856
79600.00000	80.86660	-1416.51900	80.86660
79650.00000	81.87133	-1407.59172	81.87133
79700.00000	79.58907	-1413.96160	79.58907
79750.00000	81.49192	-1420.37300	81.49192
79800.00000	80.55072	-1415.23154	80.55072
79850.00000	80.26186	-1429.33136	80.26186
79900.00000	80.98864	-1424.71195	80.98864
79950.00000	79.30360	-1429.97379	79.30360
80000.00000	80.63760	-1436.26058	80.63760
80050.00000	79.71330	-1431.18142	79.71330
80100.00000	78.98107	-1447.61952	78.98107
80150.00000	79.69322	-1442.08921	79.69322
80200.00000	78.28102	-1446.73074	78.28102
80250.00000	79.26940	-1454.63737	79.26940
80300.00000	78.15805	-1449.98592	78.15805
80350.00000	77.56883	-1465.88032	77.56883
80400.00000	77.71645	-1462.24372	77.71645
80450.00000	75.68030	-1464.11223	75.68030
80500.00000	76.23491	-1472.39781	76.23491
80550.00000	74.90095	-1464.72425	74.90095
80600.00000	74.13882	-1475.61260	74.13882
80650.00000	74.63331	-1468.32342	74.63331
80700.00000	72.06019	-1468.91429	72.06019
80750.00000	73.48575	-1474.40672	73.48575
80800.00000	72.15079	-1464.01227	72.15079
80850.00000	71.45670	-1471.30758	71.45670
80900.00000	72.43304	-1465.18342	72.43304
80950.00000	70.45414	-1464.37946	70.45414
81000.00000	71.65212	-1469.65648	71.65212
81050.00000	71.37218	-1460.40087	71.37218
81100.00000	70.53589	-1471.92659	70.53589
81150.00000	71.70109	-1469.19929	71.70109
81200.00000	69.41311	-1473.68870	69.41311
81250.00000	70.02368	-1484.46700	70.02368
81300.00000	67.75461	-1473.12471	67.75461
81350.00000	67.23537	-1486.72219	67.23537
81400.00000	66.75141	-1474.06206	66.75141
81450.00000	62.59028	-1473.34931	62.59028
81500.00000	64.13054	-1465.89013	64.13054
81550.00000	62.50001	-1445.28256	62.50001
81600.00000	59.83038	-1432.37797	59.83038
81650.00000	63.11363	-1423.64171	63.11363
81700.00000	63.93573	-1387.40772	63.93573
81750.00000	64.91679	-1404.51631	64.91679
81800.00000	67.29750	-1393.74588	67.29750
81850.00000	66.92811	-1388.77265	66.92811
81900.00000	69.77532	-1394.04296	69.77532
81950.00000	70.14413	-1389.72414	70.14413
82000.00000	70.73368	-1393.79957	70.73368
82050.00000	72.29027	-1393.25430	72.29027
82100.00000	72.62621	-1391.77239	72.62621
82150.00000	73.87208	-1394.09314	73.87208
82200.00000	74.32426	-1394.27908	74.32426
82250.00000	75.30054	-1396.83205	75.30054
82300.00000	75.86566	-1399.40390	75.86566
82350.00000	76.43181	-1400.91260	76.43181
82400.00000	77.00114	-1399.54302	77.00114
82450.00000	77.50893	-1399.83256	77.50893
82500.00000	78.10694	-1404.06800	78.10694
82550.00000	78.99115	-1402.67324	78.99115
82600.00000	79.51392	-1405.55879	79.51392
82650.00000	80.71229	-1406.44172	80.71229
82700.00000	81.45419	-1407.65979	81.45419
82750.00000	82.74637	-1410.97142	82.74637
82800.00000	83.95388	-1415.11568	83.95388
82850.00000	84.66712	-1421.95345	84.66712
82900.00000	85.55090	-1428.70188	85.55090
82950.00000	86.11516	-1435.58452	86.11516
83000.00000	86.85881	-1442.58850	86.85881
83050.00000	87.28157	-1447.59569	87.28157
83100.00000	88.02892	-1453.80201	88.02892
83150.00000	88.48799	-1458.66290	88.48799
83200.00000	88.96349	-1463.82650	88.96349
83250.00000	89.40597	-1468.81295	89.40597
83300.00000	89.88906	-1474.15374	89.88906
83350.00000	90.24040	-1478.28267	90.24040
83400.00000	90.73726	-1483.68213	90.73726
83450.00000	91.13256	-1488.65190	91.13256
83500.00000	91.48944	-1494.28437	91.48944
83550.00000	91.80699	-1500.57856	91.80699
83600.00000	92.11999	-1505.65838	92.11999
83650.00000	92.26724	-1512.35742	92.26724
83700.00000	92.55200	-1517.51003	92.55200
83750.00000	92.75015	-1524.33723	92.75015
83800.00000	92.87591	-1531.42925	92.87591
83850.00000	92.97253	-1537.46113	92.97253
83900.00000	92.97553	-1544.98672	92.97553
83950.00000	92.96850	-1551.48971	92.96850
84000.00000	92.84201	-1559.53560	92.84201
84050.00000	92.56582	-1565.81047	92.56582
84100.00000	92.13776	-1573.18936	92.13776
84150.00000	91.75959	-1579.16715	91.75959
84200.00000	91.21289	-1584.03634	91.21289
84250.00000	90.53342	-1588.33541	90.53342
84300.00000	89.78034	-1591.96353	89.78034
84350.00000	89.35856	-1593.17869	89.35856
84400.00000	88.89014	-1592.37714	88.89014
84450.00000	88.79776	-1592.42514	88.79776
84500.00000	89.00110	-1592.53205	89.00110
84550.00000	89.33064	-1593.43702	89.33064
84600.00000	89.78037	-1596.77667	89.78037
84650.00000	90.40695	-1600.40374	90.40695
84700.00000	90.73385	-1604.90082	90.73385
84750.00000	90.97609	-1610.03562	90.97609
84800.00000	91.13370	-1616.64244	91.13370
84850.00000	91.29006	-1622.33522	91.29006
84900.00000	91.31608	-1629.03022	91.31608
84950.00000	91.27585	-1634.72431	91.27585
85000.00000	91.15747	-1641.14066	91.15747
85050.00000	91.00066	-1647.73307	91.00066
85100.00000	90.81938	-1653.36615	90.81938
85150.00000	90.55422	-1659.94248	90.55422
85200.00000	90.19687	-1665.56473	90.19687
85250.00000	90.31382	-1671.54624	90.31382
85300.00000	89.62248	-1677.12157	89.62248
85350.00000	89.10123	-1681.96171	89.10123
85400.00000	88.66156	-1686.85690	88.66156
85450.00000	88.23020	-1691.61459	88.23020
85500.00000	87.58219	-1696.55855	87.58219
85550.00000	87.19012	-1700.85208	87.19012
85600.00000	86.44753	-1705.38822	86.44753
85650.00000	86.04167	-1709.01329	86.04167
85700.00000	85.42819	-1712.95184	85.42819
85750.00000	84.83440	-1716.13658	84.83440
85800.00000	84.28814	-1717.22998	84.28814
85850.00000	83.43439	-1721.43064	83.43439
85900.00000	82.79498	-1723.95952	82.79498
85950.00000	82.43160	-1725.25535	82.43160
86000.00000	82.11254	-1724.53793	82.11254
86050.00000	81.46631	-1726.89656	81.46631
86100.00000	81.36721	-1726.57026	81.36721
86150.00000	80.88797	-1729.99191	80.88797
86200.00000	80.90013	-1729.92273	80.90013
86250.00000	80.42583	-1732.00967	80.42583
86300.00000	79.81843	-1733.75009	79.81843
86350.00000	79.64567	-1735.70690	79.64567
86400.00000	79.06551	-1738.98215	79.06551
86450.00000	78.71546	-1740.73693	78.71546
86500.00000	78.57359	-1739.58639	78.57359
86550.00000	77.98254	-1744.65492	77.98254
86600.00000	77.48881	-1743.50602	77.48881
86650.00000	77.49515	-1744.09370	77.49515
86700.00000	76.66099	-1743.52011	76.66099
86750.00000	76.74447	-1743.27912	76.74447
86800.00000	76.68694	-1747.12271	76.68694
86850.00000	75.83316	-1746.77855	75.83316
86900.00000	75.44823	-1746.09866	75.44823
86950.00000	75.55369	-1748.20617	75.55369
87000.00000	75.28262	-1747.19356	75.28262
87050.00000	75.51071	-1748.34018	75.51071
87100.00000	74.71238	-1746.00834	74.71238
87150.00000	74.57902	-1748.43268	74.57902
87200.00000	74.36903	-1749.06362	74.36903
87250.00000	74.68478	-1747.75731	74.68478
87300.00000	73.68850	-1748.78491	73.68850
87350.00000	73.84807	-1750.16277	73.84807
87400.00000	74.03867	-1749.74567	74.03867
87450.00000	73.43199	-1746.70015	73.43199
87500.00000	73.53073	-1749.18902	73.53073
87550.00000	73.58937	-1747.47119	73.58937
87600.00000	73.78186	-1750.69983	73.78186
87650.00000	74.21476	-1747.50309	74.21476
87700.00000	73.78814	-1747.63486	73.78814
87750.00000	73.89064	-1748.06831	73.89064
87800.00000	73.77662	-1749.88686	73.77662
87850.00000	74.27024	-1748.90425	74.27024
87900.00000	74.10663	-1745.22057	74.10663
87950.00000	73.48828	-1746.91878	73.48828
88000.00000	74.33900	-1745.52252	74.33900
88050.00000	74.41709	-1749.66017	74.41709
88100.00000	74.82398	-1750.21612	74.82398
88150.00000	75.02645	-1749.32403	75.02645
88200.00000	75.03962	-1751.72712	75.03962
88250.00000	75.09621	-1750.76945	75.09621
88300.00000	75.27479	-1752.85091	75.27479
88350.00000	75.51673	-1755.04244	75.51673
88400.00000	75.58021	-1755.29025	75.58021
88450.00000	75.95810	-1757.74011	75.95810
88500.00000	76.13886	-1761.99581	76.13886
88550.00000	76.48752	-1764.70529	76.48752
88600.00000	76.89469	-1765.81142	76.89469
88650.00000	76.72853	-1766.47177	76.72853
88700.00000	76.66606	-1768.68210	76.66606
88750.00000	77.33637	-1771.03513	77.33637
88800.00000	77.31577	-1774.96479	77.31577
88850.00000	77.38403	-1776.14490	77.38403
88900.00000	77.37718	-1777.74185	77.37718
88950.00000	77.34533	-1779.51193	77.34533
89000.00000	77.51908	-1783.49945	77.51908
89050.00000	77.43499	-1786.47430	77.43499
89100.00000	77.59429	-1787.55092	77.59429
89150.00000	77.14561	-1790.84890	77.14561
89200.00000	77.47453	-1793.09081	77.47453
89250.00000	77.33478	-1794.17557	77.33478
89300.00000	77.31274	-1798.05771	77.31274
89350.00000	77.54475	-1798.82402	77.54475
89400.00000	77.51936	-1800.75636	77.51936
89450.00000	77.75093	-1800.74314	77.75093
89500.00000	77.98212	-1806.49953	77.98212
89550.00000	77.51458	-1806.65191	77.51458
89600.00000	77.48089	-1808.78013	77.48089
89650.00000	77.54193	-1811.81928	77.54193
89700.00000	77.33760	-1809.90192	77.33760
89750.00000	77.38191	-1813.27756	77.38191
89800.00000	76.98671	-1811.47429	76.98671
89850.00000	76.92825	-1811.25886	76.92825
89900.00000	76.69629	-1813.12794	76.69629
89950.00000	77.27958	-1808.78748	77.27958
90000.00000	77.15592	-1802.82117	77.15592
90050.00000	78.02938	-1795.74007	78.02938
90100.00000	80.37762	-1796.92730	80.37762
90150.00000	81.55568	-1794.54124	81.55568
90200.00000	84.43554	-1802.15897	84.43554
90250.00000	85.54049	-1824.28348	85.54049
90300.00000	85.60386	-1843.54949	85.60386
90350.00000	84.21911	-1854.15906	84.21911
90400.00000	83.42735	-1857.87656	83.42735
90450.00000	82.76405	-1860.37179	82.76405
90500.00000	82.27024	-1863.39464	82.27024
90550.00000	82.10350	-1866.37457	82.10350
90600.00000	81.73509	-1866.12428	81.73509
90650.00000	82.12442	-1869.62771	82.12442
90700.00000	81.81823	-1872.41740	81.81823
90750.00000	81.74813	-1871.18986	81.74813
90800.00000	81.73151	-1874.64966	81.73151
90850.00000	81.95635	-1876.51875	81.95635
90900.00000	82.12671	-1880.17102	82.12671
90950.00000	82.18565	-1881.56767	82.18565
91000.00000	82.48761	-1883.47774	82.48761
91050.00000	82.72342	-1887.59589	82.72342
91100.00000	82.98552	-1890.69221	82.98552
91150.00000	82.92963	-1891.77094	82.92963
91200.00000	83.13414	-1896.33111	83.13414
91250.00000	83.45949	-1899.95783	83.45949
91300.00000	83.63550	-1903.07718	83.63550
91350.00000	83.81959	-1907.68385	83.81959
91400.00000	83.85886	-1910.93542	83.85886
91450.00000	83.85994	-1911.89698	83.85994
91500.00000	84.16773	-1918.02635	84.16773
91550.00000	84.12622	-1921.57354	84.12622
91600.00000	84.37373	-1925.15570	84.37373
91650.00000	84.37583	-1927.90740	84.37583
91700.00000	84.63621	-1932.76415	84.63621
91750.00000	84.51541	-1936.00050	84.51541
91800.00000	84.91235	-1940.51063	84.91235
91850.00000	84.94253	-1944.24458	84.94253
91900.00000	85.13600	-1947.99944	85.13600
91950.00000	84.94280	-1951.58206	84.94280
92000.00000	85.04896	-1956.24126	85.04896
92050.00000	85.18082	-1961.02898	85.18082
92100.00000	85.22924	-1965.24772	85.22924
92150.00000	85.24201	-1969.14906	85.24201
92200.00000	85.22355	-1973.00747	85.22355
92250.00000	85.10803	-1976.84134	85.10803
92300.00000	85.52546	-1980.45632	85.52546
92350.00000	85.42648	-1985.14154	85.42648
92400.00000	85.27556	-1990.66161	85.27556
92450.00000	85.39563	-1993.26559	85.39563
92500.00000	85.24326	-1998.66252	85.24326
92550.00000	85.31417	-2002.21505	85.31417
92600.00000	85.28951	-2005.90879	85.28951
92650.00000	85.08673	-2010.61114	85.08673
92700.00000	85.22501	-2013.31111	85.22501
92750.00000	85.06515	-2018.70634	85.06515
92800.00000	84.93420	-2021.61745	84.93420
92850.00000	84.91193	-2025.74101	84.91193
92900.00000	84.85116	-2031.33872	84.85116
92950.00000	84.64072	-2033.80646	84.64072
93000.00000	84.89047	-2037.39382	84.89047
93050.00000	84.61937	-2042.44630	84.61937
93100.00000	84.64192	-2045.92711	84.64192
93150.00000	84.62542	-2050.66368	84.62542
93200.00000	84.46171	-2054.51480	84.46171
93250.00000	84.42302	-2055.07711	84.42302
93300.00000	84.36796	-2061.66276	84.36796
93350.00000	84.10131	-2065.70750	84.10131
93400.00000	84.19893	-2068.13982	84.19893
93450.00000	84.05698	-2073.95520	84.05698
93500.00000	84.14995	-2078.14615	84.14995
93550.00000	83.96345	-2083.04577	83.96345
93600.00000	84.12931	-2087.86833	84.12931
93650.00000	83.91383	-2090.60442	83.91383
93700.00000	83.92012	-2094.40599	83.92012
93750.00000	83.62749	-2101.03384	83.62749
93800.00000	83.54921	-2105.00378	83.54921
93850.00000	83.48029	-2109.54618	83.48029
93900.00000	83.37424	-2114.36317	83.37424
93950.00000	83.27543	-2118.96808	83.27543
94000.00000	82.96333	-2123.57419	82.96333
94050.00000	82.82129	-2128.74657	82.82129
94100.00000	82.65725	-2133.27788	82.65725
94150.00000	82.31880	-2137.70697	82.31880
94200.00000	82.20565	-2142.11917	82.20565
94250.00000	82.03366	-2147.37984	82.03366
94300.00000	81.88387	-2151.57472	81.88387
94350.00000	81.50105	-2156.92852	81.50105
94400.00000	81.28296	-2160.56835	81.28296
94450.00000	80.84082	-2167.38780	80.84082
94500.00000	80.71228	-2170.13533	80.71228
94550.00000	80.79008	-2175.81600	80.79008
94600.00000	80.09117	-2178.13115	80.09117
94650.00000	79.73883	-2184.56352	79.73883
94700.00000	79.62531	-2189.99419	79.62531
94750.00000	79.52811	-2191.72082	79.52811
94800.00000	78.97295	-2199.52547	78.97295
94850.00000	78.73916	-2203.15391	78.73916
94900.00000	78.23371	-2204.63498	78.23371
94950.00000	78.38148	-2212.39157	78.38148
95000.00000	77.44746	-2218.65871	77.44746
95050.00000	76.98770	-2219.29035	76.98770
95100.00000	77.02637	-2225.17822	77.02637
95150.00000	76.22195	-2230.69154	76.22195
95200.00000	75.39601	-2231.93683	75.39601
95250.00000	75.04636	-2238.86819	75.04636
95300.00000	75.47588	-2242.58405	75.47588
95350.00000	74.87241	-2246.67230	74.87241
95400.00000	73.77160	-2247.96308	73.77160
95450.00000	73.40767	-2257.43093	73.40767
95500.00000	72.24789	-2256.88130	72.24789
95550.00000	72.61809	-2258.24150	72.61809
95600.00000	72.87825	-2257.14936	72.87825
95650.00000	71.69487	-2251.66647	71.69487
95700.00000	71.41537	-2257.94508	71.41537
95750.00000	70.69472	-2258.92799	70.69472
95800.00000	70.42711	-2258.67546	70.42711
95850.00000	71.95146	-2258.79652	71.95146
95900.00000	69.83774	-2254.32516	69.83774
95950.00000	72.03209	-2251.10844	72.03209
96000.00000	70.96104	-2257.21825	70.96104
96050.00000	71.67173	-2273.44209	71.67173
96100.00000	72.26519	-2276.65576	72.26519
96150.00000	70.89609	-2289.08449	70.89609
96200.00000	71.64015	-2293.50768	71.64015
96250.00000	70.83220	-2304.27679	70.83220
96300.00000	73.30592	-2307.55683	73.30592
96350.00000	72.77399	-2319.35128	72.77399
96400.00000	72.15675	-2322.60228	72.15675
96450.00000	70.83041	-2330.64195	70.83041
96500.00000	72.00580	-2326.71076	72.00580
96550.00000	70.16041	-2343.25456	70.16041
96600.00000	69.84538	-2374.79276	69.84538
96650.00000	70.64443	-2360.98189	70.64443
96700.00000	69.56421	-2357.93063	69.56421
96750.00000	70.87784	-2369.93276	70.87784
96800.00000	69.42244	-2392.99817	69.42244
96850.00000	69.63307	-2384.02006	69.63307
96900.00000	73.30456	-2400.65743	73.30456
96950.00000	71.75990	-2412.08690	71.75990
97000.00000	69.87344	-2417.98223	69.87344
97050.00000	70.21878	-2419.94792	70.21878
97100.00000	68.30954	-2435.54847	68.30954
97150.00000	72.08877	-2466.66047	72.08877
97200.00000	70.83145	-2489.08934	70.83145
97250.00000	70.36377	-2500.99449	70.36377
97300.00000	71.69195	-2508.70796	71.69195
97350.00000	68.20981	-2525.52716	68.20981
97400.00000	67.23444	-2524.39462	67.23444
97450.00000	61.10260	-2542.47779	61.10260
97500.00000	64.85351	-2546.29134	64.85351
97550.00000	64.39674	-2543.98164	64.39674
97600.00000	62.51733	-2571.72650	62.51733
97650.00000	56.45069	-2535.22341	56.45069
97700.00000	55.45740	-2584.60987	55.45740
97750.00000	58.20453	-2574.69247	58.20453
97800.00000	57.72382	-2563.05988	57.72382
97850.00000	61.22126	-2584.77891	61.22126
97900.00000	59.21513	-2612.29326	59.21513
97950.00000	63.08832	-2600.76040	63.08832
98000.00000	60.68909	-2584.55040	60.68909
98050.00000	63.00511	-2603.63109	63.00511
98100.00000	58.35341	-2586.94784	58.35341
98150.00000	56.07319	-2624.64361	56.07319
98200.00000	60.91895	-2612.84257	60.91895
98250.00000	62.78744	-2638.80321	62.78744
98300.00000	59.02830	-2630.40456	59.02830
98350.00000	59.01437	-2635.36285	59.01437
98400.00000	58.67155	-2625.08254	58.67155
98450.00000	60.61184	-2615.32972	60.61184
98500.00000	61.04216	-2653.45969	61.04216
98550.00000	56.79389	-2648.53138	56.79389
98600.00000	57.17939	-2669.63425	57.17939
98650.00000	59.21265	-2654.84324	59.21265
98700.00000	60.70871	-2681.08075	60.70871
98750.00000	52.76584	-2618.43721	52.76584
98800.00000	56.39025	-2707.14013	56.39025
98850.00000	58.89070	-2700.79312	58.89070
98900.00000	56.64806	-2706.85974	56.64806
98950.00000	51.78278	-2636.48651	51.78278
99000.00000	41.89465	-2597.61444	41.89465
99050.00000	55.49348	-2723.62433	55.49348
99100.00000	50.36195	-2754.38018	50.36195
99150.00000	39.47541	-2580.44932	39.47541
99200.00000	39.39110	-2437.41887	39.39110
99250.00000	55.64332	-2401.41655	55.64332
99300.00000	51.99469	-2394.98909	51.99469
99350.00000	58.33032	-2420.34812	58.33032
99400.00000	52.29860	-2418.23204	52.29860
99450.00000	55.12050	-2422.21219	55.12050
99500.00000	53.04439	-2378.09885	53.04439
99550.00000	53.73125	-2464.76812	53.73125
99600.00000	53.85407	-2467.93165	53.85407
99650.00000	55.32831	-2484.87211	55.32831
99700.00000	49.25077	-2490.04854	49.25077
99750.00000	53.28541	-2454.37435	53.28541
99800.00000	55.16277	-2500.50387	55.16277
99850.00000	51.50569	-2495.51691	51.50569
99900.00000	56.62623	-2521.69499	56.62623
99950.00000	56.90364	-2547.52308	56.90364
