---ACOUSTIC CALIBRATION---
Filename: C:\Data\AZH DATA\AZH51\RightPrimary.calib
Date: 8/27/2019 11:15:36 AM
Format: 4
Probe Tube Correction File: C:\Data\Probe Tube Calibrations\50_ProbeTube.calib
Experiment VIs: 850
EPL_CFTS.exe V12.0.1 (2012)
DAQmx V9.6

Attenuation (dB): 40.000000
Min Freq (Hz): 50.000000
Max Freq (Hz): 49950.000000
Freq Step (Hz): 50.000000
Sample Rate (Hz): 100000.000000
[Smoothing]
Method=None
MA.Iterations=0
MA.Length=0
Loess.Length=0
Loess.Type=Linear
Loess.Robust=FALSE


Freq(Hz)	Mag(dB)	Phase(deg)	Unsmoothed(dB)

50.00000	91.25892	328.70118	91.25892
100.00000	73.51608	402.52005	73.51608
150.00000	83.01737	479.14225	83.01737
200.00000	74.59724	506.94221	74.59724
250.00000	88.70055	458.14334	88.70055
300.00000	86.97330	459.15615	86.97330
350.00000	79.00674	434.94858	79.00674
400.00000	78.62180	365.79816	78.62180
450.00000	83.87472	343.75389	83.87472
500.00000	84.56995	377.99748	84.56995
550.00000	90.45451	359.83725	90.45451
600.00000	93.17497	358.05095	93.17497
650.00000	95.18448	346.60936	95.18448
700.00000	97.18710	332.50238	97.18710
750.00000	99.04886	317.02265	99.04886
800.00000	99.82845	291.78257	99.82845
850.00000	99.23335	276.16907	99.23335
900.00000	97.77768	259.41127	97.77768
950.00000	95.98892	257.81842	95.98892
1000.00000	94.14556	258.62876	94.14556
1050.00000	92.97140	274.04038	92.97140
1100.00000	94.83317	295.34012	94.83317
1150.00000	97.70870	298.85864	97.70870
1200.00000	100.39026	297.31579	100.39026
1250.00000	102.27071	290.48032	102.27071
1300.00000	103.73715	284.30649	103.73715
1350.00000	104.98096	274.99342	104.98096
1400.00000	105.74494	268.20816	105.74494
1450.00000	106.71357	261.42920	106.71357
1500.00000	107.88218	255.25612	107.88218
1550.00000	108.78039	246.82683	108.78039
1600.00000	110.16688	236.26967	110.16688
1650.00000	111.12375	219.88067	111.12375
1700.00000	109.84921	209.42013	109.84921
1750.00000	109.61131	204.31059	109.61131
1800.00000	109.32994	200.36657	109.32994
1850.00000	109.43438	199.66953	109.43438
1900.00000	110.57603	194.92297	110.57603
1950.00000	111.21159	182.45115	111.21159
2000.00000	110.23134	170.60457	110.23134
2050.00000	108.89012	175.47822	108.89012
2100.00000	110.74595	175.10042	110.74595
2150.00000	111.40443	164.29664	111.40443
2200.00000	111.35907	154.21721	111.35907
2250.00000	110.75912	147.66335	110.75912
2300.00000	110.85223	142.05290	110.85223
2350.00000	110.59163	135.85554	110.59163
2400.00000	110.28850	130.27116	110.28850
2450.00000	109.97218	123.69436	109.97218
2500.00000	109.56900	118.72573	109.56900
2550.00000	109.06925	113.45239	109.06925
2600.00000	108.48484	109.34970	108.48484
2650.00000	107.93187	105.28693	107.93187
2700.00000	107.18342	101.43337	107.18342
2750.00000	106.53683	98.25796	106.53683
2800.00000	105.68479	95.83286	105.68479
2850.00000	104.77182	94.80159	104.77182
2900.00000	103.76839	94.04946	103.76839
2950.00000	102.69066	95.59356	102.69066
3000.00000	101.51119	98.60720	101.51119
3050.00000	100.00301	105.30588	100.00301
3100.00000	98.96215	118.45987	98.96215
3150.00000	98.97514	136.32756	98.97514
3200.00000	100.61659	152.69420	100.61659
3250.00000	102.85269	160.63635	102.85269
3300.00000	104.80325	164.16442	104.80325
3350.00000	106.74465	165.68954	106.74465
3400.00000	108.82297	166.13530	108.82297
3450.00000	110.90248	162.89571	110.90248
3500.00000	112.84912	156.40256	112.84912
3550.00000	114.27465	148.07366	114.27465
3600.00000	115.53710	140.21944	115.53710
3650.00000	116.52853	131.19142	116.52853
3700.00000	117.32691	122.52083	117.32691
3750.00000	117.96935	113.73622	117.96935
3800.00000	118.42672	105.15965	118.42672
3850.00000	118.71573	97.69321	118.71573
3900.00000	119.05201	91.48466	119.05201
3950.00000	119.51804	85.23616	119.51804
4000.00000	119.97757	78.51819	119.97757
4050.00000	120.45904	71.61172	120.45904
4100.00000	120.94445	64.19007	120.94445
4150.00000	121.55441	55.89088	121.55441
4200.00000	121.78928	46.46826	121.78928
4250.00000	121.96844	36.94529	121.96844
4300.00000	121.98792	27.42098	121.98792
4350.00000	121.82166	18.17921	121.82166
4400.00000	121.55688	 9.78177	121.55688
4450.00000	121.24360	 1.92069	121.24360
4500.00000	120.92894	-5.35989	120.92894
4550.00000	120.63173	-12.54789	120.63173
4600.00000	120.27994	-19.55703	120.27994
4650.00000	119.97633	-26.63140	119.97633
4700.00000	119.59318	-34.34508	119.59318
4750.00000	119.04216	-42.44962	119.04216
4800.00000	118.25979	-50.40005	118.25979
4850.00000	117.19121	-57.15257	117.19121
4900.00000	115.95663	-61.68907	115.95663
4950.00000	114.79452	-63.73952	114.79452
5000.00000	113.75723	-63.92781	113.75723
5050.00000	112.94437	-63.66753	112.94437
5100.00000	112.14953	-60.09878	112.14953
5150.00000	112.41772	-56.35070	112.41772
5200.00000	112.67961	-54.15739	112.67961
5250.00000	113.72012	-59.00978	113.72012
5300.00000	113.47726	-67.40264	113.47726
5350.00000	112.78009	-71.29944	112.78009
5400.00000	112.26218	-73.11226	112.26218
5450.00000	111.91688	-74.36204	111.91688
5500.00000	111.67059	-75.72889	111.67059
5550.00000	111.46583	-76.81966	111.46583
5600.00000	111.29957	-77.92708	111.29957
5650.00000	111.21646	-79.01616	111.21646
5700.00000	111.16450	-80.32439	111.16450
5750.00000	111.20452	-81.75664	111.20452
5800.00000	111.24535	-83.67548	111.24535
5850.00000	111.31928	-86.13161	111.31928
5900.00000	111.35734	-89.02697	111.35734
5950.00000	111.37024	-92.03425	111.37024
6000.00000	111.31860	-94.93103	111.31860
6050.00000	111.21822	-97.84144	111.21822
6100.00000	111.12606	-100.66597	111.12606
6150.00000	111.01954	-103.46544	111.01954
6200.00000	110.88327	-106.08049	110.88327
6250.00000	110.76513	-108.54003	110.76513
6300.00000	110.65227	-111.17416	110.65227
6350.00000	110.52643	-113.66212	110.52643
6400.00000	110.38005	-116.05419	110.38005
6450.00000	110.31426	-118.56219	110.31426
6500.00000	110.17771	-120.99058	110.17771
6550.00000	110.04124	-123.46715	110.04124
6600.00000	109.92462	-125.83267	109.92462
6650.00000	109.82549	-127.99567	109.82549
6700.00000	109.73516	-130.42892	109.73516
6750.00000	109.64938	-132.74748	109.64938
6800.00000	109.56925	-135.06420	109.56925
6850.00000	109.49590	-137.42361	109.49590
6900.00000	109.42112	-139.68650	109.42112
6950.00000	109.34464	-141.84577	109.34464
7000.00000	109.27849	-144.23144	109.27849
7050.00000	109.18723	-146.63159	109.18723
7100.00000	109.12247	-149.14221	109.12247
7150.00000	109.06808	-151.38569	109.06808
7200.00000	108.98542	-153.97580	108.98542
7250.00000	108.89491	-156.61589	108.89491
7300.00000	108.82594	-159.12500	108.82594
7350.00000	108.71005	-161.63338	108.71005
7400.00000	108.62164	-164.30413	108.62164
7450.00000	108.51921	-166.87024	108.51921
7500.00000	108.40147	-169.56667	108.40147
7550.00000	108.28803	-172.08008	108.28803
7600.00000	108.14787	-174.48227	108.14787
7650.00000	108.01054	-176.93706	108.01054
7700.00000	107.90982	-179.42518	107.90982
7750.00000	107.73899	-181.77521	107.73899
7800.00000	107.57822	-183.86053	107.57822
7850.00000	107.42681	-185.93179	107.42681
7900.00000	107.30045	-187.82849	107.30045
7950.00000	107.17630	-189.88440	107.17630
8000.00000	107.06357	-191.90884	107.06357
8050.00000	106.96345	-194.13768	106.96345
8100.00000	106.89443	-195.50590	106.89443
8150.00000	106.79350	-197.49917	106.79350
8200.00000	106.73006	-199.00174	106.73006
8250.00000	106.66098	-200.85250	106.66098
8300.00000	106.64327	-202.53566	106.64327
8350.00000	106.59089	-204.01900	106.59089
8400.00000	106.53168	-206.17130	106.53168
8450.00000	106.42582	-208.03706	106.42582
8500.00000	106.35957	-209.99608	106.35957
8550.00000	106.36864	-211.98013	106.36864
8600.00000	106.31883	-214.65347	106.31883
8650.00000	106.25734	-217.01645	106.25734
8700.00000	106.24618	-220.34501	106.24618
8750.00000	106.19081	-222.06028	106.19081
8800.00000	106.22195	-225.20275	106.22195
8850.00000	106.19953	-227.98073	106.19953
8900.00000	106.19235	-230.28828	106.19235
8950.00000	106.19965	-233.21831	106.19965
9000.00000	106.09220	-235.76646	106.09220
9050.00000	106.05012	-238.82937	106.05012
9100.00000	105.94873	-241.48805	105.94873
9150.00000	105.84353	-244.29074	105.84353
9200.00000	105.77792	-247.45757	105.77792
9250.00000	105.59099	-250.39984	105.59099
9300.00000	105.50586	-253.44278	105.50586
9350.00000	105.43246	-256.50506	105.43246
9400.00000	105.27842	-258.99237	105.27842
9450.00000	105.21438	-261.35379	105.21438
9500.00000	105.21709	-262.85666	105.21709
9550.00000	105.25383	-264.84318	105.25383
9600.00000	105.27448	-267.76469	105.27448
9650.00000	105.11214	-270.44958	105.11214
9700.00000	104.92727	-272.48235	104.92727
9750.00000	104.80493	-275.44250	104.80493
9800.00000	104.58362	-277.67106	104.58362
9850.00000	104.40580	-279.99087	104.40580
9900.00000	104.09395	-282.70895	104.09395
9950.00000	103.95711	-284.99133	103.95711
10000.00000	103.81540	-287.86170	103.81540
10050.00000	103.65653	-290.10175	103.65653
10100.00000	103.49969	-292.12593	103.49969
10150.00000	103.26916	-294.82855	103.26916
10200.00000	103.10246	-296.93187	103.10246
10250.00000	102.88391	-299.38355	102.88391
10300.00000	102.76733	-301.64644	102.76733
10350.00000	102.52928	-303.93734	102.52928
10400.00000	102.26591	-306.68887	102.26591
10450.00000	102.18238	-309.50577	102.18238
10500.00000	102.08859	-312.04759	102.08859
10550.00000	101.95804	-314.65806	101.95804
10600.00000	101.81808	-316.93254	101.81808
10650.00000	101.66869	-318.76358	101.66869
10700.00000	101.54451	-321.66587	101.54451
10750.00000	101.41913	-323.94306	101.41913
10800.00000	101.18619	-325.87504	101.18619
10850.00000	100.96941	-328.96736	100.96941
10900.00000	100.76165	-331.34977	100.76165
10950.00000	100.53540	-333.41332	100.53540
11000.00000	100.28384	-335.90118	100.28384
11050.00000	99.93451	-338.29796	99.93451
11100.00000	99.65244	-340.89222	99.65244
11150.00000	99.28147	-342.80219	99.28147
11200.00000	99.04157	-344.66231	99.04157
11250.00000	98.64946	-346.82135	98.64946
11300.00000	98.22600	-348.84978	98.22600
11350.00000	97.85392	-350.25066	97.85392
11400.00000	97.39354	-351.81738	97.39354
11450.00000	97.04520	-353.71213	97.04520
11500.00000	96.81034	-354.41708	96.81034
11550.00000	96.38165	-355.07806	96.38165
11600.00000	96.18626	-356.36496	96.18626
11650.00000	95.82828	-355.93362	95.82828
11700.00000	95.60005	-356.21515	95.60005
11750.00000	95.39095	-356.52022	95.39095
11800.00000	95.12847	-357.20714	95.12847
11850.00000	94.98671	-356.54545	94.98671
11900.00000	94.65205	-357.33597	94.65205
11950.00000	94.53485	-357.15759	94.53485
12000.00000	94.34565	-357.02008	94.34565
12050.00000	94.15394	-356.77440	94.15394
12100.00000	94.08878	-357.73250	94.08878
12150.00000	93.96798	-358.17024	93.96798
12200.00000	93.94011	-358.90638	93.94011
12250.00000	93.89795	-358.78995	93.89795
12300.00000	94.99507	-359.53637	94.99507
12350.00000	93.86590	-360.14836	93.86590
12400.00000	93.81885	-359.87406	93.81885
12450.00000	93.76336	-360.38809	93.76336
12500.00000	93.73101	-361.55112	93.73101
12550.00000	93.70374	-362.37549	93.70374
12600.00000	93.58917	-363.93850	93.58917
12650.00000	93.70924	-364.91048	93.70924
12700.00000	93.56694	-366.08507	93.56694
12750.00000	93.48104	-367.66367	93.48104
12800.00000	93.39179	-368.39023	93.39179
12850.00000	92.99652	-369.12923	92.99652
12900.00000	92.92822	-370.72618	92.92822
12950.00000	92.85634	-371.82098	92.85634
13000.00000	92.70993	-373.28325	92.70993
13050.00000	92.66002	-372.92626	92.66002
13100.00000	92.44563	-373.48699	92.44563
13150.00000	92.34722	-375.06449	92.34722
13200.00000	92.27627	-374.15570	92.27627
13250.00000	92.09378	-374.38723	92.09378
13300.00000	91.90619	-372.58682	91.90619
13350.00000	91.83746	-373.34878	91.83746
13400.00000	91.94453	-373.69415	91.94453
13450.00000	91.69919	-372.61057	91.69919
13500.00000	91.79846	-371.59351	91.79846
13550.00000	91.62259	-371.77732	91.62259
13600.00000	91.68376	-371.28131	91.68376
13650.00000	91.73154	-371.30093	91.73154
13700.00000	91.66722	-371.17698	91.66722
13750.00000	91.72269	-370.91492	91.72269
13800.00000	91.71102	-372.32880	91.71102
13850.00000	91.75500	-373.28299	91.75500
13900.00000	91.78380	-372.94873	91.78380
13950.00000	92.00220	-372.88335	92.00220
14000.00000	92.27818	-371.98034	92.27818
14050.00000	92.48314	-372.03988	92.48314
14100.00000	92.45793	-371.91826	92.45793
14150.00000	92.68607	-372.57074	92.68607
14200.00000	92.87354	-372.64961	92.87354
14250.00000	93.35066	-371.72806	93.35066
14300.00000	93.41703	-372.93662	93.41703
14350.00000	93.51387	-371.76864	93.51387
14400.00000	93.40262	-372.99783	93.40262
14450.00000	93.54315	-372.74539	93.54315
14500.00000	93.62071	-373.85549	93.62071
14550.00000	93.91527	-373.74392	93.91527
14600.00000	93.92758	-375.15761	93.92758
14650.00000	94.32118	-373.85526	94.32118
14700.00000	94.49450	-378.27754	94.49450
14750.00000	94.62232	-378.43353	94.62232
14800.00000	94.73052	-378.43156	94.73052
14850.00000	95.11925	-378.24049	95.11925
14900.00000	95.38277	-378.95713	95.38277
14950.00000	95.69535	-379.51890	95.69535
15000.00000	95.88665	-380.36204	95.88665
15050.00000	95.96143	-379.22070	95.96143
15100.00000	96.21749	-379.23160	96.21749
15150.00000	96.63431	-380.49844	96.63431
15200.00000	96.88964	-379.54377	96.88964
15250.00000	97.04614	-381.32639	97.04614
15300.00000	97.56275	-382.25646	97.56275
15350.00000	97.83896	-383.75817	97.83896
15400.00000	98.12298	-383.67851	98.12298
15450.00000	98.47639	-385.23525	98.47639
15500.00000	98.94612	-386.52671	98.94612
15550.00000	99.38258	-388.01001	99.38258
15600.00000	99.71944	-389.45681	99.71944
15650.00000	100.28945	-389.42922	100.28945
15700.00000	100.49772	-392.56988	100.49772
15750.00000	101.00371	-394.12012	101.00371
15800.00000	101.43944	-395.62484	101.43944
15850.00000	101.80339	-397.66845	101.80339
15900.00000	102.11095	-400.48284	102.11095
15950.00000	102.54586	-403.06582	102.54586
16000.00000	102.89654	-405.14787	102.89654
16050.00000	103.33626	-407.73014	103.33626
16100.00000	103.53097	-410.98056	103.53097
16150.00000	103.83553	-413.74191	103.83553
16200.00000	104.15264	-417.46349	104.15264
16250.00000	104.50651	-420.11822	104.50651
16300.00000	104.93583	-423.13261	104.93583
16350.00000	105.14769	-426.21656	105.14769
16400.00000	105.39571	-429.11676	105.39571
16450.00000	105.63892	-432.23619	105.63892
16500.00000	105.86209	-435.56391	105.86209
16550.00000	106.14849	-439.38725	106.14849
16600.00000	106.36556	-442.27833	106.36556
16650.00000	106.52176	-445.44912	106.52176
16700.00000	106.71685	-448.43963	106.71685
16750.00000	106.78671	-452.13627	106.78671
16800.00000	107.00290	-455.60182	107.00290
16850.00000	107.25044	-458.74574	107.25044
16900.00000	107.43286	-462.08668	107.43286
16950.00000	107.56087	-465.47693	107.56087
17000.00000	107.55021	-468.69190	107.55021
17050.00000	107.76387	-471.29585	107.76387
17100.00000	107.82849	-473.64872	107.82849
17150.00000	108.09466	-477.53067	108.09466
17200.00000	108.19990	-480.62365	108.19990
17250.00000	108.27768	-484.38644	108.27768
17300.00000	108.47195	-487.48680	108.47195
17350.00000	108.47210	-490.47058	108.47210
17400.00000	108.67177	-493.74758	108.67177
17450.00000	108.70411	-497.44562	108.70411
17500.00000	108.82928	-500.70805	108.82928
17550.00000	108.90485	-503.92534	108.90485
17600.00000	109.09687	-506.88383	109.09687
17650.00000	109.14895	-511.04245	109.14895
17700.00000	109.20452	-514.65949	109.20452
17750.00000	109.41592	-517.35462	109.41592
17800.00000	109.37005	-521.47790	109.37005
17850.00000	109.43789	-524.53308	109.43789
17900.00000	109.45952	-528.18001	109.45952
17950.00000	109.56875	-531.99177	109.56875
18000.00000	109.58241	-535.96716	109.58241
18050.00000	109.71409	-539.14150	109.71409
18100.00000	109.64166	-543.26565	109.64166
18150.00000	109.64118	-546.36270	109.64118
18200.00000	109.56986	-550.52765	109.56986
18250.00000	109.61242	-553.32834	109.61242
18300.00000	109.63811	-556.88187	109.63811
18350.00000	109.58080	-560.28412	109.58080
18400.00000	109.47684	-564.13608	109.47684
18450.00000	109.37441	-568.80678	109.37441
18500.00000	109.33426	-572.20350	109.33426
18550.00000	109.24057	-574.99992	109.24057
18600.00000	109.22799	-578.78990	109.22799
18650.00000	108.98969	-581.85293	108.98969
18700.00000	108.86789	-585.60169	108.86789
18750.00000	108.80569	-588.82384	108.80569
18800.00000	108.79578	-591.28763	108.79578
18850.00000	108.54108	-594.55950	108.54108
18900.00000	108.37592	-597.43122	108.37592
18950.00000	108.26230	-600.86321	108.26230
19000.00000	107.99906	-603.40469	107.99906
19050.00000	108.01992	-606.17475	108.01992
19100.00000	107.81748	-608.81013	107.81748
19150.00000	107.81755	-611.32911	107.81755
19200.00000	107.64318	-613.57914	107.64318
19250.00000	107.52385	-617.37653	107.52385
19300.00000	107.34244	-619.25427	107.34244
19350.00000	107.24103	-621.74423	107.24103
19400.00000	107.07631	-624.14045	107.07631
19450.00000	107.07047	-626.05056	107.07047
19500.00000	106.87134	-629.48898	106.87134
19550.00000	106.80007	-631.59293	106.80007
19600.00000	106.77864	-634.55815	106.77864
19650.00000	106.59902	-636.47321	106.59902
19700.00000	106.39408	-639.09161	106.39408
19750.00000	106.30626	-640.98568	106.30626
19800.00000	106.29237	-644.07511	106.29237
19850.00000	106.21024	-646.20957	106.21024
19900.00000	106.04612	-649.22086	106.04612
19950.00000	105.92571	-651.53577	105.92571
20000.00000	105.82763	-653.91903	105.82763
20050.00000	105.74740	-656.34883	105.74740
20100.00000	105.55447	-658.78960	105.55447
20150.00000	105.50582	-660.18849	105.50582
20200.00000	105.36285	-663.26612	105.36285
20250.00000	105.18709	-665.46605	105.18709
20300.00000	104.99327	-667.78795	104.99327
20350.00000	104.93476	-670.18687	104.93476
20400.00000	104.73283	-671.59849	104.73283
20450.00000	104.51775	-673.66803	104.51775
20500.00000	104.43470	-676.12715	104.43470
20550.00000	104.06047	-677.18345	104.06047
20600.00000	103.98598	-678.75140	103.98598
20650.00000	103.84084	-680.48335	103.84084
20700.00000	103.62529	-681.79795	103.62529
20750.00000	103.54486	-683.04025	103.54486
20800.00000	103.37270	-683.94311	103.37270
20850.00000	103.31345	-685.06019	103.31345
20900.00000	103.13331	-686.01715	103.13331
20950.00000	103.03897	-686.36558	103.03897
21000.00000	102.99601	-686.95357	102.99601
21050.00000	103.12156	-687.24964	103.12156
21100.00000	103.10827	-687.63346	103.10827
21150.00000	103.24314	-688.55207	103.24314
21200.00000	103.36783	-689.15572	103.36783
21250.00000	103.48398	-691.22040	103.48398
21300.00000	103.67369	-691.87388	103.67369
21350.00000	103.79951	-693.19485	103.79951
21400.00000	103.93239	-695.16990	103.93239
21450.00000	104.08841	-697.01762	104.08841
21500.00000	104.24245	-699.51346	104.24245
21550.00000	104.26347	-701.11455	104.26347
21600.00000	104.44397	-703.60491	104.44397
21650.00000	104.49990	-706.13022	104.49990
21700.00000	104.54882	-708.16970	104.54882
21750.00000	104.62952	-710.62050	104.62952
21800.00000	104.66388	-712.98966	104.66388
21850.00000	104.60490	-715.13222	104.60490
21900.00000	104.66258	-717.54003	104.66258
21950.00000	104.67280	-719.39812	104.67280
22000.00000	104.73607	-721.63486	104.73607
22050.00000	104.69879	-723.25939	104.69879
22100.00000	104.71834	-725.65975	104.71834
22150.00000	104.71537	-727.40920	104.71537
22200.00000	104.79514	-729.43152	104.79514
22250.00000	104.75778	-731.02372	104.75778
22300.00000	104.66706	-732.89808	104.66706
22350.00000	104.81026	-735.10643	104.81026
22400.00000	104.87951	-737.35719	104.87951
22450.00000	104.86932	-739.08652	104.86932
22500.00000	104.82146	-740.09908	104.82146
22550.00000	104.89155	-742.43132	104.89155
22600.00000	104.90020	-745.18262	104.90020
22650.00000	104.96045	-746.91520	104.96045
22700.00000	104.96868	-748.77769	104.96868
22750.00000	104.97176	-749.02967	104.97176
22800.00000	105.03897	-753.32610	105.03897
22850.00000	105.18776	-755.86938	105.18776
22900.00000	105.16611	-756.56890	105.16611
22950.00000	105.25125	-758.52244	105.25125
23000.00000	105.28217	-760.20208	105.28217
23050.00000	105.25960	-763.29681	105.25960
23100.00000	105.45416	-764.43832	105.45416
23150.00000	105.27224	-765.74947	105.27224
23200.00000	105.44417	-769.00353	105.44417
23250.00000	105.32326	-772.18338	105.32326
23300.00000	105.65918	-774.11491	105.65918
23350.00000	105.42041	-776.52452	105.42041
23400.00000	105.45083	-778.59856	105.45083
23450.00000	105.58565	-781.43408	105.58565
23500.00000	105.50622	-782.74884	105.50622
23550.00000	105.44900	-783.37580	105.44900
23600.00000	105.42506	-787.50754	105.42506
23650.00000	105.53388	-789.53815	105.53388
23700.00000	105.71654	-793.92082	105.71654
23750.00000	105.63180	-794.92024	105.63180
23800.00000	105.36879	-796.02743	105.36879
23850.00000	105.52588	-797.79023	105.52588
23900.00000	105.91091	-800.58467	105.91091
23950.00000	105.59025	-804.13305	105.59025
24000.00000	105.41882	-807.08068	105.41882
24050.00000	105.62040	-808.06372	105.62040
24100.00000	105.89483	-811.63817	105.89483
24150.00000	105.82536	-814.27720	105.82536
24200.00000	105.76156	-817.93935	105.76156
24250.00000	105.38736	-819.05084	105.38736
24300.00000	105.78558	-821.73999	105.78558
24350.00000	105.56316	-824.67904	105.56316
24400.00000	105.46263	-828.47036	105.46263
24450.00000	105.10449	-830.19568	105.10449
24500.00000	105.58456	-832.12282	105.58456
24550.00000	105.33161	-837.24325	105.33161
24600.00000	105.70670	-478.31911	105.70670
24650.00000	105.27449	-122.70504	105.27449
24700.00000	105.13037	236.86984	105.13037
24750.00000	105.12255	591.84427	105.12255
24800.00000	104.99764	949.75207	104.99764
24850.00000	104.58252	1308.17856	104.58252
24900.00000	104.53068	1666.93981	104.53068
24950.00000	104.79312	2022.75433	104.79312
25000.00000	104.52771	2015.71922	104.52771
25050.00000	104.10245	2016.83253	104.10245
25100.00000	103.88018	2013.11786	103.88018
25150.00000	104.18742	2013.08553	104.18742
25200.00000	103.83196	2008.87338	103.83196
25250.00000	103.89468	2008.25368	103.89468
25300.00000	103.75309	2006.68560	103.75309
25350.00000	103.51214	2000.42901	103.51214
25400.00000	103.43639	1997.54059	103.43639
25450.00000	103.40111	1996.79291	103.40111
25500.00000	103.18896	1995.10922	103.18896
25550.00000	103.10487	1991.73229	103.10487
25600.00000	103.06186	1989.69917	103.06186
25650.00000	102.90875	1989.69485	102.90875
25700.00000	102.90434	1986.60299	102.90434
25750.00000	102.59036	1984.41306	102.59036
25800.00000	102.58285	1980.98196	102.58285
25850.00000	102.47957	1979.44149	102.47957
25900.00000	102.46842	1975.46462	102.46842
25950.00000	102.19187	1977.58486	102.19187
26000.00000	102.22178	1972.83356	102.22178
26050.00000	102.21455	1971.10104	102.21455
26100.00000	102.08826	1968.39376	102.08826
26150.00000	102.02132	1966.31291	102.02132
26200.00000	102.10240	1964.02268	102.10240
26250.00000	101.99236	1961.88711	101.99236
26300.00000	101.97910	1958.42422	101.97910
26350.00000	101.57179	1958.20547	101.57179
26400.00000	101.65329	1955.11961	101.65329
26450.00000	101.89319	1952.22118	101.89319
26500.00000	101.61479	1949.14494	101.61479
26550.00000	101.56553	1943.82551	101.56553
26600.00000	101.44315	1942.15514	101.44315
26650.00000	101.49653	1941.84437	101.49653
26700.00000	101.41203	1938.38822	101.41203
26750.00000	101.21176	1935.11600	101.21176
26800.00000	101.02286	1931.14568	101.02286
26850.00000	101.31837	1929.89335	101.31837
26900.00000	101.24059	1927.89818	101.24059
26950.00000	101.18832	1923.74950	101.18832
27000.00000	100.69376	1922.19068	100.69376
27050.00000	100.85600	1918.91166	100.85600
27100.00000	100.56626	1916.64697	100.56626
27150.00000	100.34909	1911.97890	100.34909
27200.00000	100.29766	1910.52588	100.29766
27250.00000	99.87302	1909.40630	99.87302
27300.00000	99.52297	1904.75103	99.52297
27350.00000	99.62384	1905.53050	99.62384
27400.00000	99.20028	1902.13457	99.20028
27450.00000	98.88254	1900.69249	98.88254
27500.00000	98.95748	1898.31460	98.95748
27550.00000	98.78249	1896.23519	98.78249
27600.00000	98.88121	1892.70287	98.88121
27650.00000	98.16536	1893.00415	98.16536
27700.00000	98.11082	1887.91934	98.11082
27750.00000	97.94852	1885.30821	97.94852
27800.00000	97.84781	1882.05619	97.84781
27850.00000	97.74697	1884.38593	97.74697
27900.00000	97.34067	1883.35914	97.34067
27950.00000	96.56132	1879.95471	96.56132
28000.00000	96.54575	1879.56074	96.54575
28050.00000	97.09691	1877.42593	97.09691
28100.00000	96.26220	1876.99022	96.26220
28150.00000	96.24490	1875.66002	96.24490
28200.00000	96.24323	1871.54725	96.24323
28250.00000	95.80688	1868.74844	95.80688
28300.00000	95.47884	1869.44729	95.47884
28350.00000	95.59290	1870.54883	95.59290
28400.00000	95.40619	1870.03669	95.40619
28450.00000	95.77418	1867.65322	95.77418
28500.00000	95.26223	1866.87954	95.26223
28550.00000	95.06396	1869.58919	95.06396
28600.00000	95.02753	1867.86098	95.02753
28650.00000	95.30952	1863.48503	95.30952
28700.00000	94.86871	1865.90930	94.86871
28750.00000	95.45224	1865.03831	95.45224
28800.00000	95.03791	1865.05345	95.03791
28850.00000	94.33732	1860.66229	94.33732
28900.00000	94.68503	1861.04941	94.68503
28950.00000	94.39847	1860.96483	94.39847
29000.00000	94.57111	1859.62463	94.57111
29050.00000	94.34808	1860.91061	94.34808
29100.00000	94.40314	1861.70119	94.40314
29150.00000	94.19988	1860.09009	94.19988
29200.00000	94.08891	1857.98487	94.08891
29250.00000	94.49547	1858.09700	94.49547
29300.00000	94.20903	1857.11311	94.20903
29350.00000	94.55998	1854.47849	94.55998
29400.00000	94.38435	1854.83597	94.38435
29450.00000	94.22387	1855.65315	94.22387
29500.00000	94.56228	1855.73265	94.56228
29550.00000	94.54737	1850.29737	94.54737
29600.00000	94.43731	1851.78717	94.43731
29650.00000	94.56473	1851.60611	94.56473
29700.00000	94.56396	1852.33626	94.56396
29750.00000	94.42114	1853.68303	94.42114
29800.00000	94.38407	1850.58800	94.38407
29850.00000	94.60210	1849.04468	94.60210
29900.00000	94.80487	1849.83849	94.80487
29950.00000	94.09384	1849.80534	94.09384
30000.00000	94.48333	1850.99925	94.48333
30050.00000	94.94333	1848.47730	94.94333
30100.00000	94.65202	1851.51183	94.65202
30150.00000	94.74520	1848.73330	94.74520
30200.00000	94.95787	1848.86035	94.95787
30250.00000	94.79332	1848.61332	94.79332
30300.00000	94.66915	1850.03362	94.66915
30350.00000	95.02711	1851.93792	95.02711
30400.00000	94.98114	1849.71621	94.98114
30450.00000	94.87155	1850.30951	94.87155
30500.00000	95.14323	1849.56207	95.14323
30550.00000	95.21157	1851.84808	95.21157
30600.00000	95.40415	1852.95913	95.40415
30650.00000	95.64875	1854.32713	95.64875
30700.00000	95.84333	1852.56388	95.84333
30750.00000	95.83531	1855.10810	95.83531
30800.00000	96.19028	1855.82859	96.19028
30850.00000	96.59489	1857.08112	96.59489
30900.00000	96.67609	1859.17370	96.67609
30950.00000	97.33263	1858.85626	97.33263
31000.00000	97.79534	1858.57649	97.79534
31050.00000	98.28074	1859.18248	98.28074
31100.00000	98.94232	1859.86276	98.94232
31150.00000	99.07921	1859.03269	99.07921
31200.00000	100.04913	1858.15995	100.04913
31250.00000	100.48240	1856.61449	100.48240
31300.00000	101.00444	1856.21350	101.00444
31350.00000	101.75620	1854.37559	101.75620
31400.00000	102.07238	1851.81781	102.07238
31450.00000	102.73727	1849.31855	102.73727
31500.00000	103.17405	1845.62030	103.17405
31550.00000	103.70252	1843.78200	103.70252
31600.00000	104.28841	1839.25343	104.28841
31650.00000	104.62388	1835.52098	104.62388
31700.00000	105.07266	1832.72435	105.07266
31750.00000	105.45381	1829.94081	105.45381
31800.00000	105.81391	1825.46537	105.81391
31850.00000	106.13316	1821.67484	106.13316
31900.00000	106.21083	1817.39348	106.21083
31950.00000	106.62492	1813.33549	106.62492
32000.00000	106.79496	1809.25616	106.79496
32050.00000	107.00555	1805.62354	107.00555
32100.00000	107.15002	1800.88180	107.15002
32150.00000	107.38965	1798.05763	107.38965
32200.00000	107.46483	1793.15080	107.46483
32250.00000	107.50607	1788.70735	107.50607
32300.00000	107.56618	1785.45989	107.56618
32350.00000	107.62538	1781.89621	107.62538
32400.00000	107.74850	1778.96640	107.74850
32450.00000	107.79260	1774.80769	107.79260
32500.00000	107.90312	1771.26986	107.90312
32550.00000	108.08379	1766.76741	108.08379
32600.00000	108.02000	1764.10093	108.02000
32650.00000	108.13699	1760.14622	108.13699
32700.00000	108.03488	1756.26185	108.03488
32750.00000	108.04800	1751.88920	108.04800
32800.00000	108.21077	1749.74405	108.21077
32850.00000	108.30070	1745.85043	108.30070
32900.00000	108.23180	1741.55554	108.23180
32950.00000	108.06560	1737.58291	108.06560
33000.00000	108.14674	1735.75771	108.14674
33050.00000	108.07465	1730.30076	108.07465
33100.00000	108.08418	1728.13928	108.08418
33150.00000	108.17654	1724.94660	108.17654
33200.00000	108.23966	1722.72524	108.23966
33250.00000	108.07409	1719.23358	108.07409
33300.00000	108.07717	1714.21836	108.07717
33350.00000	108.04087	1710.94368	108.04087
33400.00000	108.03016	1708.69118	108.03016
33450.00000	107.90606	1704.25651	107.90606
33500.00000	107.99170	1703.07995	107.99170
33550.00000	107.63470	1697.80115	107.63470
33600.00000	107.74505	1694.91516	107.74505
33650.00000	107.59727	1692.71753	107.59727
33700.00000	107.59016	1688.56552	107.59016
33750.00000	107.30902	1685.94226	107.30902
33800.00000	107.36050	1682.76816	107.36050
33850.00000	107.07482	1679.85749	107.07482
33900.00000	107.10400	1676.06113	107.10400
33950.00000	107.00013	1673.46660	107.00013
34000.00000	106.91939	1671.10658	106.91939
34050.00000	106.62146	1668.68274	106.62146
34100.00000	106.39652	1666.03657	106.39652
34150.00000	106.36240	1662.85738	106.36240
34200.00000	106.15436	1662.72017	106.15436
34250.00000	106.11242	1658.26893	106.11242
34300.00000	105.95724	1656.37927	105.95724
34350.00000	105.84189	1654.37260	105.84189
34400.00000	105.45958	1654.56710	105.45958
34450.00000	105.47014	1649.99798	105.47014
34500.00000	105.24907	1648.54403	105.24907
34550.00000	105.23520	1647.10146	105.23520
34600.00000	104.93020	1644.40011	104.93020
34650.00000	104.94630	1645.69728	104.94630
34700.00000	104.56109	1646.90142	104.56109
34750.00000	104.75035	1640.61697	104.75035
34800.00000	104.77769	1642.03093	104.77769
34850.00000	104.93924	1643.91793	104.93924
34900.00000	104.90260	1639.67181	104.90260
34950.00000	104.86702	1639.63681	104.86702
35000.00000	104.84850	1637.81743	104.84850
35050.00000	104.87480	1636.82550	104.87480
35100.00000	105.12174	1635.31781	105.12174
35150.00000	104.84857	1634.64711	104.84857
35200.00000	105.10318	1633.05398	105.10318
35250.00000	104.98167	1630.68980	104.98167
35300.00000	105.41512	1629.69626	105.41512
35350.00000	105.61934	1627.84545	105.61934
35400.00000	105.51843	1625.43147	105.51843
35450.00000	105.63730	1626.94188	105.63730
35500.00000	105.38323	1624.18048	105.38323
35550.00000	105.77583	1622.49679	105.77583
35600.00000	105.87961	1620.46216	105.87961
35650.00000	106.00685	1619.22276	106.00685
35700.00000	106.16856	1617.04397	106.16856
35750.00000	106.23009	1616.96954	106.23009
35800.00000	106.32148	1617.14607	106.32148
35850.00000	106.77661	1614.52748	106.77661
35900.00000	106.89148	1611.34836	106.89148
35950.00000	107.30585	1609.25968	107.30585
36000.00000	107.38077	1608.49454	107.38077
36050.00000	107.62729	1605.07215	107.62729
36100.00000	107.87106	1603.20788	107.87106
36150.00000	107.80242	1600.74733	107.80242
36200.00000	107.94677	1599.25319	107.94677
36250.00000	108.14254	1596.70768	108.14254
36300.00000	108.14982	1594.14444	108.14982
36350.00000	108.36455	1591.42416	108.36455
36400.00000	108.42360	1590.22150	108.42360
36450.00000	108.71618	1587.02066	108.71618
36500.00000	108.96175	1585.84157	108.96175
36550.00000	108.94648	1581.43156	108.94648
36600.00000	109.05445	1579.46882	109.05445
36650.00000	109.61709	1576.38130	109.61709
36700.00000	109.60735	1573.11692	109.60735
36750.00000	109.59195	1570.88305	109.59195
36800.00000	109.66110	1567.98030	109.66110
36850.00000	109.64812	1565.74494	109.64812
36900.00000	109.76764	1562.56598	109.76764
36950.00000	109.85369	1558.72537	109.85369
37000.00000	109.59625	1557.89993	109.59625
37050.00000	109.76244	1554.61578	109.76244
37100.00000	109.91031	1551.87205	109.91031
37150.00000	109.99869	1547.94057	109.99869
37200.00000	110.30170	1546.45263	110.30170
37250.00000	110.08179	1542.94875	110.08179
37300.00000	110.02150	1541.03058	110.02150
37350.00000	110.32076	1538.63912	110.32076
37400.00000	110.15171	1536.55257	110.15171
37450.00000	110.17497	1534.25721	110.17497
37500.00000	110.50741	1531.38055	110.50741
37550.00000	110.30702	1528.86352	110.30702
37600.00000	110.40820	1526.22617	110.40820
37650.00000	110.37415	1524.52469	110.37415
37700.00000	110.56576	1520.31498	110.56576
37750.00000	110.63989	1519.94892	110.63989
37800.00000	110.71337	1515.96379	110.71337
37850.00000	110.70717	1513.29031	110.70717
37900.00000	110.92382	1510.13090	110.92382
37950.00000	110.97263	1508.83566	110.97263
38000.00000	110.97080	1505.94211	110.97080
38050.00000	111.29544	1503.33493	111.29544
38100.00000	111.46573	1499.86834	111.46573
38150.00000	111.75073	1496.76263	111.75073
38200.00000	111.84293	1493.08774	111.84293
38250.00000	112.01343	1490.44454	112.01343
38300.00000	112.21021	1486.19810	112.21021
38350.00000	112.36582	1483.55280	112.36582
38400.00000	112.58314	1479.59665	112.58314
38450.00000	112.80347	1475.59900	112.80347
38500.00000	112.82427	1471.02102	112.82427
38550.00000	113.07623	1467.33322	113.07623
38600.00000	113.32850	1462.48652	113.32850
38650.00000	113.39706	1457.77558	113.39706
38700.00000	113.48838	1452.65780	113.48838
38750.00000	113.61560	1448.07301	113.61560
38800.00000	113.69374	1443.54895	113.69374
38850.00000	113.69277	1437.77830	113.69277
38900.00000	113.67633	1432.73739	113.67633
38950.00000	113.56118	1427.14272	113.56118
39000.00000	113.45079	1422.13247	113.45079
39050.00000	113.37062	1417.86717	113.37062
39100.00000	113.13363	1412.57258	113.13363
39150.00000	112.95635	1407.79991	112.95635
39200.00000	112.72693	1403.47561	112.72693
39250.00000	112.53045	1399.16626	112.53045
39300.00000	112.21216	1394.67353	112.21216
39350.00000	112.04280	1391.38573	112.04280
39400.00000	111.65733	1386.85551	111.65733
39450.00000	111.47525	1383.23326	111.47525
39500.00000	111.16759	1379.74798	111.16759
39550.00000	110.94404	1375.56646	110.94404
39600.00000	110.49871	1372.83344	110.49871
39650.00000	110.19901	1369.34639	110.19901
39700.00000	109.90886	1366.42510	109.90886
39750.00000	109.72488	1363.57238	109.72488
39800.00000	109.33637	1360.71219	109.33637
39850.00000	108.98771	1358.38140	108.98771
39900.00000	108.62591	1356.33892	108.62591
39950.00000	108.39524	1354.17308	108.39524
40000.00000	108.01270	1352.76135	108.01270
40050.00000	107.85595	1349.53178	107.85595
40100.00000	107.61467	1347.79589	107.61467
40150.00000	107.17644	1345.68695	107.17644
40200.00000	107.07703	1343.46335	107.07703
40250.00000	106.80842	1342.34268	106.80842
40300.00000	106.55646	1341.24982	106.55646
40350.00000	106.13203	1339.83799	106.13203
40400.00000	105.92546	1338.66488	105.92546
40450.00000	105.80815	1336.87880	105.80815
40500.00000	105.60008	1336.72637	105.60008
40550.00000	105.37267	1334.89178	105.37267
40600.00000	105.00840	1334.53278	105.00840
40650.00000	104.93297	1333.92861	104.93297
40700.00000	104.81509	1333.79657	104.81509
40750.00000	104.65647	1333.35498	104.65647
40800.00000	104.47149	1330.39475	104.47149
40850.00000	104.29882	1332.13787	104.29882
40900.00000	104.00479	1331.16278	104.00479
40950.00000	103.78176	1331.28064	103.78176
41000.00000	103.61774	1332.02135	103.61774
41050.00000	103.65157	1331.17680	103.65157
41100.00000	103.85321	1331.40310	103.85321
41150.00000	103.90933	1333.79016	103.90933
41200.00000	103.86654	1332.14904	103.86654
41250.00000	103.59907	1331.85422	103.59907
41300.00000	103.34612	1333.46352	103.34612
41350.00000	103.39360	1334.13323	103.39360
41400.00000	103.54796	1329.25927	103.54796
41450.00000	103.42471	1333.04991	103.42471
41500.00000	103.52621	1331.88806	103.52621
41550.00000	103.27218	1336.60898	103.27218
41600.00000	103.04337	1334.53302	103.04337
41650.00000	103.55998	1334.52593	103.55998
41700.00000	104.00154	1336.56035	104.00154
41750.00000	103.48409	1341.92897	103.48409
41800.00000	102.72036	1335.27360	102.72036
41850.00000	102.84501	1337.12784	102.84501
41900.00000	102.53720	1337.80424	102.53720
41950.00000	103.85813	1342.27183	103.85813
42000.00000	102.91915	1336.32165	102.91915
42050.00000	102.13366	1336.18136	102.13366
42100.00000	102.95632	1338.37400	102.95632
42150.00000	102.37753	1336.45927	102.37753
42200.00000	102.01411	1342.32001	102.01411
42250.00000	102.25845	1343.34776	102.25845
42300.00000	101.36473	1339.64966	101.36473
42350.00000	102.33452	1342.37178	102.33452
42400.00000	101.61900	1343.94266	101.61900
42450.00000	102.30956	1339.99925	102.30956
42500.00000	101.52788	1342.04338	101.52788
42550.00000	102.52069	1353.81282	102.52069
42600.00000	102.20219	1343.36620	102.20219
42650.00000	101.64593	1346.73602	101.64593
42700.00000	101.69917	1342.41573	101.69917
42750.00000	102.36289	1342.13117	102.36289
42800.00000	102.11171	1335.16319	102.11171
42850.00000	102.17423	1332.29200	102.17423
42900.00000	103.42437	1339.95718	103.42437
42950.00000	102.38946	1332.96392	102.38946
43000.00000	103.65634	1319.90966	103.65634
43050.00000	102.51889	1318.04839	102.51889
43100.00000	103.10675	1321.10687	103.10675
43150.00000	101.78638	1315.42840	101.78638
43200.00000	103.02008	1313.83928	103.02008
43250.00000	102.94977	1306.21730	102.94977
43300.00000	103.34386	1302.08102	103.34386
43350.00000	104.22967	1297.90797	104.22967
43400.00000	103.91061	1294.51395	103.91061
43450.00000	104.88214	1291.49544	104.88214
43500.00000	103.51596	1281.02888	103.51596
43550.00000	104.50421	1275.75803	104.50421
43600.00000	103.92637	1270.35485	103.92637
43650.00000	104.18255	1261.46005	104.18255
43700.00000	104.71543	1259.50078	104.71543
43750.00000	104.10502	1254.81293	104.10502
43800.00000	104.70324	1246.86033	104.70324
43850.00000	105.36026	1240.77174	105.36026
43900.00000	105.01097	1237.87416	105.01097
43950.00000	105.69129	1230.60802	105.69129
44000.00000	105.08967	1223.91530	105.08967
44050.00000	105.78046	1217.08561	105.78046
44100.00000	105.46195	1204.78756	105.46195
44150.00000	105.57928	1206.02680	105.57928
44200.00000	105.26965	1203.97986	105.26965
44250.00000	105.62369	1197.40346	105.62369
44300.00000	105.94502	1188.30546	105.94502
44350.00000	105.50501	1190.35050	105.50501
44400.00000	105.94461	1177.84611	105.94461
44450.00000	106.10499	1175.88155	106.10499
44500.00000	105.22394	1168.42954	105.22394
44550.00000	106.95860	1159.95563	106.95860
44600.00000	105.76312	1159.20293	105.76312
44650.00000	105.14200	1150.01067	105.14200
44700.00000	105.13949	1144.44008	105.13949
44750.00000	105.53572	1145.86965	105.53572
44800.00000	105.58656	1137.56737	105.58656
44850.00000	104.99872	1131.89226	104.99872
44900.00000	104.84100	1129.55856	104.84100
44950.00000	105.16131	1123.16681	105.16131
45000.00000	105.12192	1114.81407	105.12192
45050.00000	103.91324	1119.50481	103.91324
45100.00000	104.06094	1109.78592	104.06094
45150.00000	104.32245	1099.27570	104.32245
45200.00000	103.25350	1103.91794	103.25350
45250.00000	103.37998	1099.46170	103.37998
45300.00000	103.36193	1092.36168	103.36193
45350.00000	102.99058	1084.45340	102.99058
45400.00000	103.07641	1086.06632	103.07641
45450.00000	103.27563	1077.47856	103.27563
45500.00000	101.16510	1073.42176	101.16510
45550.00000	101.19167	1076.81557	101.19167
45600.00000	102.30663	1065.89467	102.30663
45650.00000	100.44303	1059.55920	100.44303
45700.00000	100.64664	1059.01406	100.64664
45750.00000	101.03232	1062.18660	101.03232
45800.00000	99.48872	1053.31991	99.48872
45850.00000	99.78073	1051.57164	99.78073
45900.00000	99.50325	1049.69417	99.50325
45950.00000	99.20132	1051.27992	99.20132
46000.00000	97.66535	1033.81629	97.66535
46050.00000	98.58166	1032.30483	98.58166
46100.00000	96.79811	1036.61042	96.79811
46150.00000	96.89598	1035.43720	96.89598
46200.00000	94.63603	1026.70071	94.63603
46250.00000	95.72726	1026.45529	95.72726
46300.00000	94.74617	1024.60509	94.74617
46350.00000	96.02502	1027.93714	96.02502
46400.00000	94.41759	1018.08562	94.41759
46450.00000	92.44778	1019.61865	92.44778
46500.00000	93.10723	1022.03176	93.10723
46550.00000	92.34570	1028.05379	92.34570
46600.00000	92.86494	1026.61654	92.86494
46650.00000	90.69590	1023.34439	90.69590
46700.00000	90.80818	1031.96914	90.80818
46750.00000	91.30220	1040.81714	91.30220
46800.00000	90.64292	1042.19812	90.64292
46850.00000	90.92544	691.12024	90.92544
46900.00000	90.80839	678.60534	90.80839
46950.00000	89.78552	684.32626	89.78552
47000.00000	90.60446	683.93796	90.60446
47050.00000	92.61723	675.17846	92.61723
47100.00000	91.43228	676.69878	91.43228
47150.00000	92.16351	680.39826	92.16351
47200.00000	90.52059	679.01594	90.52059
47250.00000	93.56809	677.86596	93.56809
47300.00000	92.89512	663.33646	92.89512
47350.00000	92.49363	316.45545	92.49363
47400.00000	91.39035	317.38770	91.39035
47450.00000	93.26114	313.64623	93.26114
47500.00000	91.83356	308.32360	91.83356
47550.00000	91.14019	-51.76444	91.14019
47600.00000	91.65362	-48.90478	91.65362
47650.00000	93.24066	-54.33187	93.24066
47700.00000	93.00306	-59.11838	93.00306
47750.00000	89.94279	-56.13312	89.94279
47800.00000	90.28662	-72.19434	90.28662
47850.00000	91.65966	-424.57107	91.65966
47900.00000	92.82496	-765.44346	92.82496
47950.00000	91.40757	-780.50802	91.40757
48000.00000	89.95805	-771.94338	89.95805
48050.00000	92.58685	-786.79658	92.58685
48100.00000	90.93471	-787.95604	90.93471
48150.00000	91.92736	-1143.37660	91.92736
48200.00000	91.36227	-1134.88815	91.36227
48250.00000	90.32421	-1142.15306	90.32421
48300.00000	91.64321	-1146.06372	91.64321
48350.00000	91.70470	-1152.64824	91.70470
48400.00000	93.02088	-1491.62165	93.02088
48450.00000	93.17408	-1505.83885	93.17408
48500.00000	92.33686	-1510.17134	92.33686
48550.00000	90.85239	-1512.98632	90.85239
48600.00000	93.37041	-1868.84007	93.37041
48650.00000	92.59715	-1871.42706	92.59715
48700.00000	93.74332	-1880.71296	93.74332
48750.00000	92.10208	-2231.54724	92.10208
48800.00000	92.89125	-2245.58212	92.89125
48850.00000	93.02904	-2244.63950	93.02904
48900.00000	91.92862	-2601.67715	91.92862
48950.00000	92.10909	-2621.17322	92.10909
49000.00000	92.84349	-2612.13105	92.84349
49050.00000	93.29804	-2619.14874	93.29804
49100.00000	93.97523	-2978.18831	93.97523
49150.00000	93.82490	-3336.26830	93.82490
49200.00000	93.74766	-3356.11818	93.74766
49250.00000	91.48781	-3698.19871	91.48781
49300.00000	91.96680	-3365.14481	91.96680
49350.00000	91.43219	-3323.06014	91.43219
49400.00000	90.63803	-3004.59047	90.63803
49450.00000	89.40214	-2637.04795	89.40214
49500.00000	91.98989	-2282.56316	91.98989
49550.00000	91.10481	-1929.84898	91.10481
49600.00000	90.19522	-1914.37483	90.19522
49650.00000	90.29207	-1896.80685	90.29207
49700.00000	88.31588	-1566.74250	88.31588
49750.00000	90.37220	-1576.22893	90.37220
49800.00000	80.40401	-1572.02323	80.40401
49850.00000	88.08671	-1552.10581	88.08671
49900.00000	87.63951	-1196.79472	87.63951
49950.00000	90.00838	-849.73109	90.00838
