---ACOUSTIC CALIBRATION---
Filename: C:\Data\AZH DATA\AZH51\RightPrimary.calib
Date: 8/27/2019 11:12:48 AM
Format: 4
Probe Tube Correction File: C:\Data\Probe Tube Calibrations\50_ProbeTube.calib
Experiment VIs: 850
EPL_CFTS.exe V12.0.1 (2012)
DAQmx V9.6

Attenuation (dB): 40.000000
Min Freq (Hz): 50.000000
Max Freq (Hz): 49950.000000
Freq Step (Hz): 50.000000
Sample Rate (Hz): 100000.000000
[Smoothing]
Method=None
MA.Iterations=0
MA.Length=0
Loess.Length=0
Loess.Type=Linear
Loess.Robust=FALSE


Freq(Hz)	Mag(dB)	Phase(deg)	Unsmoothed(dB)

50.00000	108.03724	654.96646	108.03724
100.00000	82.65638	565.00694	82.65638
150.00000	82.33531	488.20956	82.33531
200.00000	73.41751	472.29401	73.41751
250.00000	91.08357	465.74337	91.08357
300.00000	87.58734	394.03335	87.58734
350.00000	86.20033	350.71565	86.20033
400.00000	88.31150	370.94293	88.31150
450.00000	88.71869	349.09680	88.71869
500.00000	92.81581	365.59336	92.81581
550.00000	93.63164	355.77079	93.63164
600.00000	95.49211	352.67269	95.49211
650.00000	98.94478	339.78105	98.94478
700.00000	101.32348	329.36816	101.32348
750.00000	102.76508	307.77454	102.76508
800.00000	103.45773	286.47672	103.45773
850.00000	102.80964	268.92750	102.80964
900.00000	100.69618	253.76895	100.69618
950.00000	98.96333	254.79627	98.96333
1000.00000	97.39582	259.63089	97.39582
1050.00000	96.25192	277.78241	96.25192
1100.00000	98.81698	296.20119	98.81698
1150.00000	101.71352	297.22318	101.71352
1200.00000	104.11007	294.14631	104.11007
1250.00000	105.79346	286.17098	105.79346
1300.00000	107.31495	280.64710	107.31495
1350.00000	108.58401	271.44246	108.58401
1400.00000	109.54308	264.40647	109.54308
1450.00000	110.58857	257.74912	110.58857
1500.00000	111.65608	250.37151	111.65608
1550.00000	112.47170	241.32670	112.47170
1600.00000	113.82618	231.16345	113.82618
1650.00000	114.68235	214.59899	114.68235
1700.00000	113.41210	204.83230	113.41210
1750.00000	113.04655	200.01504	113.04655
1800.00000	112.85421	196.61302	112.85421
1850.00000	113.23547	196.31586	113.23547
1900.00000	114.62077	190.18726	114.62077
1950.00000	114.97622	175.23706	114.97622
2000.00000	113.72843	164.49642	113.72843
2050.00000	112.71682	171.33878	112.71682
2100.00000	114.67137	168.56784	114.67137
2150.00000	115.08505	156.69649	115.08505
2200.00000	114.84835	146.63647	114.84835
2250.00000	114.17899	140.07497	114.17899
2300.00000	114.19152	134.49884	114.19152
2350.00000	113.86582	128.48344	113.86582
2400.00000	113.50177	122.76901	113.50177
2450.00000	113.11802	116.84726	113.11802
2500.00000	112.56263	111.77044	112.56263
2550.00000	111.97066	106.99688	111.97066
2600.00000	111.26553	102.97010	111.26553
2650.00000	110.55765	99.96923	110.55765
2700.00000	109.79590	96.70384	109.79590
2750.00000	108.79609	94.82672	108.79609
2800.00000	107.71177	94.06150	107.71177
2850.00000	106.55383	96.11317	106.55383
2900.00000	105.36562	100.02858	105.36562
2950.00000	104.25372	108.42259	104.25372
3000.00000	103.62535	121.08634	103.62535
3050.00000	103.94326	137.27185	103.94326
3100.00000	105.68365	150.72281	105.68365
3150.00000	107.92939	156.26199	107.92939
3200.00000	109.90660	157.40889	109.90660
3250.00000	111.65759	155.92754	111.65759
3300.00000	113.25551	153.34340	113.25551
3350.00000	114.75985	149.91922	114.75985
3400.00000	116.33418	146.54388	116.33418
3450.00000	117.88612	140.22271	117.88612
3500.00000	119.38290	131.92938	119.38290
3550.00000	120.39403	121.65876	120.39403
3600.00000	121.21085	112.27077	121.21085
3650.00000	121.74924	102.13835	121.74924
3700.00000	122.06798	92.79420	122.06798
3750.00000	122.23487	84.09770	122.23487
3800.00000	122.24810	76.50899	122.24810
3850.00000	122.22374	70.32992	122.22374
3900.00000	122.35419	65.41633	122.35419
3950.00000	122.67997	60.15685	122.67997
4000.00000	123.04511	54.13665	123.04511
4050.00000	123.38967	47.78667	123.38967
4100.00000	123.74003	40.94944	123.74003
4150.00000	124.19554	33.33127	124.19554
4200.00000	124.31021	24.91732	124.31021
4250.00000	124.38412	16.41530	124.38412
4300.00000	124.35546	 8.03413	124.35546
4350.00000	124.19531	-0.27666	124.19531
4400.00000	123.96514	-7.88722	123.96514
4450.00000	123.68938	-15.14877	123.68938
4500.00000	123.42248	-22.05104	123.42248
4550.00000	123.12720	-29.06487	123.12720
4600.00000	122.78462	-36.00561	122.78462
4650.00000	122.45689	-42.86145	122.45689
4700.00000	122.02704	-50.27170	122.02704
4750.00000	121.42934	-57.77734	121.42934
4800.00000	120.64120	-64.85008	120.64120
4850.00000	119.64352	-70.65722	119.64352
4900.00000	118.55753	-74.51024	118.55753
4950.00000	117.55444	-76.26254	117.55444
5000.00000	116.72253	-76.70347	116.72253
5050.00000	116.02099	-76.88578	116.02099
5100.00000	115.44454	-73.83557	115.44454
5150.00000	115.82284	-72.87724	115.82284
5200.00000	116.10071	-75.07164	116.10071
5250.00000	115.99031	-81.26501	115.99031
5300.00000	115.29401	-84.44162	115.29401
5350.00000	114.78992	-84.87591	114.78992
5400.00000	114.50601	-84.95696	114.50601
5450.00000	114.37429	-85.05618	114.37429
5500.00000	114.33033	-85.43097	114.33033
5550.00000	114.40584	-86.04481	114.40584
5600.00000	114.57660	-87.17363	114.57660
5650.00000	114.81659	-89.22942	114.81659
5700.00000	115.00463	-92.25687	115.00463
5750.00000	115.13060	-95.76095	115.13060
5800.00000	115.15078	-99.47478	115.15078
5850.00000	115.12930	-103.15848	115.12930
5900.00000	115.06392	-106.54747	115.06392
5950.00000	114.97997	-109.85316	114.97997
6000.00000	114.88802	-112.82997	114.88802
6050.00000	114.77082	-115.82920	114.77082
6100.00000	114.68735	-118.84743	114.68735
6150.00000	114.59124	-121.73559	114.59124
6200.00000	114.48777	-124.64421	114.48777
6250.00000	114.39572	-127.41552	114.39572
6300.00000	114.31067	-130.15304	114.31067
6350.00000	114.21896	-133.00949	114.21896
6400.00000	114.13513	-135.73507	114.13513
6450.00000	114.07542	-138.56306	114.07542
6500.00000	113.98932	-141.37958	113.98932
6550.00000	113.91259	-144.18482	113.91259
6600.00000	113.84022	-146.98223	113.84022
6650.00000	113.79406	-149.75601	113.79406
6700.00000	113.75029	-152.75665	113.75029
6750.00000	113.72590	-155.63120	113.72590
6800.00000	113.69221	-158.68621	113.69221
6850.00000	113.67383	-161.68241	113.67383
6900.00000	113.65223	-164.79363	113.65223
6950.00000	113.63582	-167.94109	113.63582
7000.00000	113.62637	-171.23331	113.62637
7050.00000	113.61129	-174.76728	113.61129
7100.00000	113.62473	-178.43536	113.62473
7150.00000	113.59896	-182.10891	113.59896
7200.00000	113.54999	-186.02037	113.54999
7250.00000	113.48131	-190.07681	113.48131
7300.00000	113.42354	-194.18314	113.42354
7350.00000	113.31747	-198.34476	113.31747
7400.00000	113.20844	-202.84473	113.20844
7450.00000	113.04071	-207.27174	113.04071
7500.00000	112.85388	-211.74101	112.85388
7550.00000	112.63366	-216.18556	112.63366
7600.00000	112.35503	-220.61826	112.35503
7650.00000	112.04780	-224.99145	112.04780
7700.00000	111.74640	-229.39188	111.74640
7750.00000	111.33994	-233.74327	111.33994
7800.00000	110.91963	-237.93329	110.91963
7850.00000	110.49234	-241.81700	110.49234
7900.00000	110.07707	-245.54659	110.07707
7950.00000	109.64279	-249.24590	109.64279
8000.00000	109.21326	-252.64245	109.21326
8050.00000	108.79983	-255.93181	108.79983
8100.00000	108.38160	-258.23098	108.38160
8150.00000	107.90610	-260.64319	107.90610
8200.00000	107.47000	-262.47391	107.47000
8250.00000	106.97456	-264.45640	106.97456
8300.00000	106.52714	-266.04430	106.52714
8350.00000	106.00249	-267.38642	106.00249
8400.00000	105.48266	-269.23814	105.48266
8450.00000	104.90535	-270.90051	104.90535
8500.00000	104.34524	-272.80395	104.34524
8550.00000	103.87026	-274.68786	103.87026
8600.00000	103.41975	-277.02171	103.41975
8650.00000	103.02200	-279.04105	103.02200
8700.00000	102.70071	-281.53420	102.70071
8750.00000	102.39969	-282.08086	102.39969
8800.00000	102.17982	-283.66648	102.17982
8850.00000	101.95621	-284.48477	101.95621
8900.00000	101.74531	-284.40090	101.74531
8950.00000	101.48702	-284.74335	101.48702
9000.00000	101.09565	-284.64469	101.09565
9050.00000	100.74646	-285.09807	100.74646
9100.00000	100.28329	-285.31483	100.28329
9150.00000	99.86622	-285.90088	99.86622
9200.00000	99.48814	-287.25127	99.48814
9250.00000	99.07004	-288.81326	99.07004
9300.00000	98.81617	-290.66253	98.81617
9350.00000	98.69257	-292.53827	98.69257
9400.00000	98.55411	-293.47857	98.55411
9450.00000	98.57220	-293.81399	98.57220
9500.00000	98.67835	-293.00696	98.67835
9550.00000	98.79974	-292.59723	98.79974
9600.00000	98.84301	-292.62121	98.84301
9650.00000	98.70607	-292.35188	98.70607
9700.00000	98.48981	-291.61895	98.48981
9750.00000	98.30460	-292.59657	98.30460
9800.00000	97.97967	-292.95923	97.97967
9850.00000	97.75039	-293.93855	97.75039
9900.00000	97.46276	-295.70640	97.46276
9950.00000	97.40952	-297.11711	97.40952
10000.00000	97.43826	-298.93711	97.43826
10050.00000	97.47606	-300.04195	97.47606
10100.00000	97.52487	-300.36653	97.52487
10150.00000	97.48767	-301.15046	97.48767
10200.00000	97.47778	-301.32601	97.47778
10250.00000	97.37113	-301.99455	97.37113
10300.00000	97.32480	-302.76779	97.32480
10350.00000	97.16621	-303.84544	97.16621
10400.00000	97.01020	-305.70397	97.01020
10450.00000	97.04901	-308.03442	97.04901
10500.00000	97.14472	-310.24163	97.14472
10550.00000	97.23883	-312.55136	97.23883
10600.00000	97.35009	-314.37597	97.35009
10650.00000	97.42217	-315.44043	97.42217
10700.00000	97.45771	-317.81487	97.45771
10750.00000	97.52244	-319.42234	97.52244
10800.00000	97.43507	-320.93414	97.43507
10850.00000	97.31851	-323.91400	97.31851
10900.00000	97.22418	-326.05189	97.22418
10950.00000	97.12070	-328.50599	97.12070
11000.00000	97.02388	-331.42865	97.02388
11050.00000	96.80980	-333.83205	96.80980
11100.00000	96.70153	-336.78339	96.70153
11150.00000	96.45963	-338.99688	96.45963
11200.00000	96.33134	-340.93128	96.33134
11250.00000	96.02892	-343.41307	96.02892
11300.00000	95.65361	-345.64029	95.65361
11350.00000	95.33919	-347.35848	95.33919
11400.00000	94.90237	-349.51444	94.90237
11450.00000	94.62594	-351.92399	94.62594
11500.00000	94.42998	-352.96376	94.42998
11550.00000	94.05459	-354.02124	94.05459
11600.00000	93.86404	-355.77082	93.86404
11650.00000	93.54231	-355.64921	93.54231
11700.00000	93.31430	-356.23757	93.31430
11750.00000	93.06674	-357.16355	93.06674
11800.00000	92.82255	-357.99493	92.82255
11850.00000	92.70201	-357.72455	92.70201
11900.00000	92.35825	-358.95711	92.35825
11950.00000	92.24685	-358.93493	92.24685
12000.00000	91.99506	-358.54629	91.99506
12050.00000	91.72684	-358.57813	91.72684
12100.00000	91.56018	-359.74588	91.56018
12150.00000	91.34805	-360.17221	91.34805
12200.00000	91.28236	-361.53680	91.28236
12250.00000	91.21595	-361.85493	91.21595
12300.00000	92.30021	-362.86137	92.30021
12350.00000	91.13709	-362.84104	91.13709
12400.00000	91.08528	-362.00595	91.08528
12450.00000	90.95195	-361.74651	90.95195
12500.00000	90.78468	-362.55863	90.78468
12550.00000	90.60037	-363.38247	90.60037
12600.00000	90.36850	-364.95207	90.36850
12650.00000	90.50622	-366.53900	90.50622
12700.00000	90.40548	-367.63685	90.40548
12750.00000	90.33098	-368.15798	90.33098
12800.00000	90.25125	-368.65471	90.25125
12850.00000	89.82998	-368.15173	89.82998
12900.00000	89.55163	-369.41608	89.55163
12950.00000	89.34959	-370.35624	89.34959
13000.00000	89.06806	-372.62040	89.06806
13050.00000	89.00712	-371.52339	89.00712
13100.00000	88.89220	-372.64914	88.89220
13150.00000	88.74078	-372.53301	88.74078
13200.00000	88.65795	-371.20572	88.65795
13250.00000	88.49655	-370.46067	88.49655
13300.00000	88.15022	-367.54040	88.15022
13350.00000	87.93146	-367.39413	87.93146
13400.00000	87.92219	-367.76468	87.92219
13450.00000	87.66581	-365.82962	87.66581
13500.00000	87.63702	-365.13179	87.63702
13550.00000	87.50523	-365.05299	87.50523
13600.00000	87.67929	-363.04824	87.67929
13650.00000	87.65968	-360.85601	87.65968
13700.00000	87.55789	-358.80400	87.55789
13750.00000	87.35102	-357.98201	87.35102
13800.00000	87.24861	-358.46598	87.24861
13850.00000	87.18896	-360.01004	87.18896
13900.00000	87.34376	-358.87394	87.34376
13950.00000	87.73337	-357.58526	87.73337
14000.00000	88.25713	-354.10588	88.25713
14050.00000	88.43442	-351.33627	88.43442
14100.00000	88.42199	-349.46813	88.42199
14150.00000	88.53310	-348.59942	88.53310
14200.00000	88.70037	-348.37618	88.70037
14250.00000	89.35210	-346.48227	89.35210
14300.00000	89.75013	-346.49244	89.75013
14350.00000	90.11976	-343.79388	90.11976
14400.00000	90.16638	-342.92349	90.16638
14450.00000	90.48524	-340.73628	90.48524
14500.00000	90.75390	-340.87543	90.75390
14550.00000	91.15993	-340.16652	91.15993
14600.00000	91.42342	-341.26749	91.42342
14650.00000	92.17336	-339.18529	92.17336
14700.00000	92.71488	-343.45364	92.71488
14750.00000	93.14487	-342.89534	93.14487
14800.00000	93.48883	-342.05968	93.48883
14850.00000	94.06529	-341.14384	94.06529
14900.00000	94.54759	-341.99254	94.54759
14950.00000	95.04166	-342.96955	95.04166
15000.00000	95.64506	-344.58480	95.64506
15050.00000	96.10900	-344.02598	96.10900
15100.00000	96.64282	-344.58536	96.64282
15150.00000	97.40273	-346.30997	97.40273
15200.00000	97.79508	-346.15266	97.79508
15250.00000	98.06864	-348.50118	98.06864
15300.00000	98.74995	-350.94843	98.74995
15350.00000	99.22497	-354.37870	99.22497
15400.00000	99.70069	-355.60311	99.70069
15450.00000	100.23972	-357.89333	100.23972
15500.00000	100.81207	-359.94835	100.81207
15550.00000	101.30561	-362.82798	101.30561
15600.00000	101.71368	-365.49378	101.71368
15650.00000	102.28659	-366.94376	102.28659
15700.00000	102.54398	-371.31304	102.54398
15750.00000	103.12140	-374.20894	103.12140
15800.00000	103.60077	-376.36049	103.60077
15850.00000	103.98431	-379.45403	103.98431
15900.00000	104.27037	-383.24548	104.27037
15950.00000	104.68787	-386.63323	104.68787
16000.00000	105.04722	-390.13785	105.04722
16050.00000	105.45553	-393.75779	105.45553
16100.00000	105.64534	-397.64107	105.64534
16150.00000	105.90303	-401.06082	105.90303
16200.00000	106.20861	-405.47933	106.20861
16250.00000	106.45528	-408.85880	106.45528
16300.00000	106.83339	-412.59559	106.83339
16350.00000	107.00423	-416.49694	107.00423
16400.00000	107.20075	-419.84291	107.20075
16450.00000	107.39858	-423.26001	107.39858
16500.00000	107.53716	-427.01924	107.53716
16550.00000	107.74349	-431.26482	107.74349
16600.00000	107.90314	-434.47686	107.90314
16650.00000	107.98055	-438.16969	107.98055
16700.00000	108.17640	-441.21938	108.17640
16750.00000	108.16905	-445.18285	108.16905
16800.00000	108.31940	-448.89863	108.31940
16850.00000	108.53557	-452.16720	108.53557
16900.00000	108.63493	-455.69366	108.63493
16950.00000	108.73481	-459.16928	108.73481
17000.00000	108.70520	-462.64286	108.70520
17050.00000	108.84402	-465.15849	108.84402
17100.00000	108.85944	-467.69241	108.85944
17150.00000	109.06367	-471.50983	109.06367
17200.00000	109.12531	-474.80528	109.12531
17250.00000	109.15437	-478.38425	109.15437
17300.00000	109.32314	-481.53847	109.32314
17350.00000	109.27404	-484.36499	109.27404
17400.00000	109.41962	-487.54324	109.41962
17450.00000	109.41001	-491.31420	109.41001
17500.00000	109.52055	-494.41453	109.52055
17550.00000	109.60110	-497.61474	109.60110
17600.00000	109.73279	-500.29244	109.73279
17650.00000	109.78877	-504.43868	109.78877
17700.00000	109.79948	-507.87811	109.79948
17750.00000	109.97620	-510.42859	109.97620
17800.00000	109.92206	-514.37675	109.92206
17850.00000	109.99342	-517.32533	109.99342
17900.00000	110.01871	-520.80092	110.01871
17950.00000	110.14343	-524.45985	110.14343
18000.00000	110.12178	-528.32650	110.12178
18050.00000	110.28134	-531.35227	110.28134
18100.00000	110.22480	-535.46392	110.22480
18150.00000	110.22779	-538.36799	110.22779
18200.00000	110.16267	-542.46968	110.16267
18250.00000	110.23098	-545.29262	110.23098
18300.00000	110.24098	-548.76329	110.24098
18350.00000	110.20733	-552.31462	110.20733
18400.00000	110.12051	-555.99222	110.12051
18450.00000	110.03024	-560.63126	110.03024
18500.00000	109.98829	-563.90388	109.98829
18550.00000	109.89605	-566.92493	109.89605
18600.00000	109.90805	-570.83689	109.90805
18650.00000	109.67796	-573.74305	109.67796
18700.00000	109.55589	-577.60977	109.55589
18750.00000	109.51288	-580.77435	109.51288
18800.00000	109.50964	-583.41468	109.50964
18850.00000	109.26176	-586.86424	109.26176
18900.00000	109.11414	-589.74560	109.11414
18950.00000	109.01910	-593.36135	109.01910
19000.00000	108.74952	-595.98111	108.74952
19050.00000	108.74276	-598.89439	108.74276
19100.00000	108.56344	-601.60316	108.56344
19150.00000	108.55599	-604.19381	108.55599
19200.00000	108.38099	-606.62586	108.38099
19250.00000	108.25222	-610.49305	108.25222
19300.00000	108.06877	-612.36288	108.06877
19350.00000	107.94827	-615.12020	107.94827
19400.00000	107.79694	-617.48714	107.79694
19450.00000	107.76862	-619.53355	107.76862
19500.00000	107.55663	-622.99585	107.55663
19550.00000	107.46795	-625.33003	107.46795
19600.00000	107.42823	-628.35847	107.42823
19650.00000	107.24955	-630.28122	107.24955
19700.00000	107.03684	-633.01789	107.03684
19750.00000	106.91288	-634.86682	106.91288
19800.00000	106.89669	-638.11587	106.89669
19850.00000	106.78976	-640.30382	106.78976
19900.00000	106.61247	-643.42368	106.61247
19950.00000	106.47485	-645.72693	106.47485
20000.00000	106.36484	-648.22896	106.36484
20050.00000	106.23536	-650.63115	106.23536
20100.00000	106.03159	-653.03569	106.03159
20150.00000	105.95177	-654.52521	105.95177
20200.00000	105.75852	-657.63157	105.75852
20250.00000	105.57762	-659.86444	105.57762
20300.00000	105.34324	-662.02091	105.34324
20350.00000	105.26367	-664.37755	105.26367
20400.00000	105.03259	-665.75126	105.03259
20450.00000	104.78240	-667.83862	104.78240
20500.00000	104.67801	-670.05981	104.67801
20550.00000	104.26780	-671.10057	104.26780
20600.00000	104.16620	-672.37150	104.16620
20650.00000	103.98544	-673.98805	103.98544
20700.00000	103.76467	-675.11164	103.76467
20750.00000	103.65638	-676.06545	103.65638
20800.00000	103.46437	-676.66204	103.46437
20850.00000	103.40554	-677.54517	103.40554
20900.00000	103.23732	-678.06738	103.23732
20950.00000	103.14894	-678.14804	103.14894
21000.00000	103.10870	-678.43977	103.10870
21050.00000	103.23962	-678.46358	103.23962
21100.00000	103.25023	-678.59173	103.25023
21150.00000	103.40756	-679.37675	103.40756
21200.00000	103.58707	-679.68181	103.58707
21250.00000	103.72578	-681.68564	103.72578
21300.00000	103.96283	-682.27955	103.96283
21350.00000	104.12289	-683.54873	104.12289
21400.00000	104.30206	-685.64824	104.30206
21450.00000	104.48461	-687.61575	104.48461
21500.00000	104.68164	-690.05090	104.68164
21550.00000	104.71131	-692.02960	104.71131
21600.00000	104.90731	-694.67238	104.90731
21650.00000	104.95724	-697.38317	104.95724
21700.00000	105.01985	-699.62991	105.01985
21750.00000	105.07036	-702.22522	105.07036
21800.00000	105.10951	-704.79014	105.10951
21850.00000	105.06049	-707.09421	105.06049
21900.00000	105.08304	-709.61032	105.08304
21950.00000	105.08867	-711.64586	105.08867
22000.00000	105.09378	-713.79439	105.09378
22050.00000	105.04224	-715.79533	105.04224
22100.00000	105.01961	-717.89081	105.01961
22150.00000	104.98393	-719.78302	104.98393
22200.00000	105.02587	-721.91035	105.02587
22250.00000	104.98021	-723.53149	104.98021
22300.00000	104.84170	-725.57192	104.84170
22350.00000	104.96265	-727.72202	104.96265
22400.00000	104.97646	-729.60728	104.97646
22450.00000	104.89443	-731.36609	104.89443
22500.00000	104.80996	-732.30529	104.80996
22550.00000	104.83475	-734.52061	104.83475
22600.00000	104.83733	-737.15699	104.83733
22650.00000	104.81444	-738.77530	104.81444
22700.00000	104.82526	-740.44709	104.82526
22750.00000	104.80497	-740.47867	104.80497
22800.00000	104.80339	-744.51490	104.80339
22850.00000	104.87331	-747.01772	104.87331
22900.00000	104.85610	-747.21126	104.85610
22950.00000	104.90334	-749.12742	104.90334
23000.00000	104.86321	-750.37910	104.86321
23050.00000	104.82927	-752.86558	104.82927
23100.00000	104.92618	-753.74418	104.92618
23150.00000	104.78352	-754.70658	104.78352
23200.00000	104.91074	-757.74881	104.91074
23250.00000	104.79038	-760.51355	104.79038
23300.00000	105.07300	-761.94800	105.07300
23350.00000	104.83847	-763.75968	104.83847
23400.00000	104.80646	-765.20070	104.80646
23450.00000	104.96315	-767.56448	104.96315
23500.00000	104.83611	-768.61231	104.83611
23550.00000	104.81438	-768.75679	104.81438
23600.00000	104.73017	-772.23417	104.73017
23650.00000	104.84151	-773.52851	104.84151
23700.00000	105.06357	-777.21498	105.06357
23750.00000	104.95513	-778.42209	104.95513
23800.00000	104.77373	-778.27510	104.77373
23850.00000	104.94669	-780.16385	104.94669
23900.00000	105.38288	-782.02362	105.38288
23950.00000	105.12891	-784.60984	105.12891
24000.00000	104.96615	-787.42154	104.96615
24050.00000	105.15444	-787.73022	105.15444
24100.00000	105.49664	-791.40464	105.49664
24150.00000	105.49226	-792.69093	105.49226
24200.00000	105.53760	-796.22255	105.53760
24250.00000	105.16320	-796.99058	105.16320
24300.00000	105.62150	-799.18689	105.62150
24350.00000	105.55275	-801.87740	105.55275
24400.00000	105.54885	-805.33081	105.54885
24450.00000	105.29805	-806.96664	105.29805
24500.00000	105.84259	-808.47193	105.84259
24550.00000	105.72532	-813.51810	105.72532
24600.00000	106.18979	-814.45132	106.18979
24650.00000	105.83431	-458.71941	105.83431
24700.00000	105.85831	-98.82855	105.85831
24750.00000	105.83322	255.57575	105.83322
24800.00000	105.85169	613.48462	105.85169
24850.00000	105.50977	971.86964	105.50977
24900.00000	105.59554	1330.14384	105.59554
24950.00000	105.89025	1684.86441	105.89025
25000.00000	105.73991	1678.70847	105.73991
25050.00000	105.89530	1678.59550	105.89530
25100.00000	105.33600	1674.74247	105.33600
25150.00000	105.53004	1673.63012	105.53004
25200.00000	105.23757	1668.91543	105.23757
25250.00000	105.35720	1668.03459	105.35720
25300.00000	105.28794	1666.08411	105.28794
25350.00000	105.16010	1660.02720	105.16010
25400.00000	105.08947	1656.11082	105.08947
25450.00000	105.01497	1654.27602	105.01497
25500.00000	104.77228	1652.75038	104.77228
25550.00000	104.69280	1648.68952	104.69280
25600.00000	104.61978	1647.18461	104.61978
25650.00000	104.41214	1645.06021	104.41214
25700.00000	104.38581	1642.37272	104.38581
25750.00000	104.08702	1639.29755	104.08702
25800.00000	103.90310	1636.23124	103.90310
25850.00000	103.87082	1633.43464	103.87082
25900.00000	103.68174	1630.12894	103.68174
25950.00000	103.48088	1632.09539	103.48088
26000.00000	103.36763	1626.64094	103.36763
26050.00000	103.33204	1624.93816	103.33204
26100.00000	103.01661	1622.74592	103.01661
26150.00000	103.02303	1620.59483	103.02303
26200.00000	103.01919	1618.14301	103.01919
26250.00000	102.89476	1616.63317	102.89476
26300.00000	102.90411	1612.87351	102.90411
26350.00000	102.38914	1612.29527	102.38914
26400.00000	102.31815	1610.29941	102.31815
26450.00000	102.52014	1607.22673	102.52014
26500.00000	102.24273	1604.94406	102.24273
26550.00000	102.12378	1600.26347	102.12378
26600.00000	101.86788	1599.13315	101.86788
26650.00000	101.89038	1600.05411	101.89038
26700.00000	101.84703	1596.42088	101.84703
26750.00000	101.54149	1594.18794	101.54149
26800.00000	101.43665	1589.50206	101.43665
26850.00000	101.63872	1589.72958	101.63872
26900.00000	101.69281	1588.79044	101.69281
26950.00000	101.54042	1584.86195	101.54042
27000.00000	100.96717	1583.97004	100.96717
27050.00000	101.38022	1581.76649	101.38022
27100.00000	101.04609	1581.31805	101.04609
27150.00000	101.02757	1576.85844	101.02757
27200.00000	100.97730	1576.29281	100.97730
27250.00000	100.75967	1574.99266	100.75967
27300.00000	100.42552	1571.94637	100.42552
27350.00000	100.64630	1573.28696	100.64630
27400.00000	100.40135	1570.76195	100.40135
27450.00000	100.39281	1568.75113	100.39281
27500.00000	100.39312	1567.17969	100.39312
27550.00000	100.40751	1565.14404	100.40751
27600.00000	100.70502	1562.52458	100.70502
27650.00000	100.23427	1562.77729	100.23427
27700.00000	100.25249	1557.46902	100.25249
27750.00000	100.25211	1555.81125	100.25211
27800.00000	100.38972	1551.92884	100.38972
27850.00000	100.52448	1553.84805	100.52448
27900.00000	100.03569	1551.06986	100.03569
27950.00000	99.57308	1549.09989	99.57308
28000.00000	99.95236	1548.56571	99.95236
28050.00000	100.42717	1544.32964	100.42717
28100.00000	99.81702	1543.06410	99.81702
28150.00000	99.95095	1542.09618	99.95095
28200.00000	100.00905	1537.47059	100.00905
28250.00000	99.80011	1534.06123	99.80011
28300.00000	99.38902	1534.00313	99.38902
28350.00000	99.57228	1532.53503	99.57228
28400.00000	99.48575	1531.24328	99.48575
28450.00000	99.99947	1526.97696	99.99947
28500.00000	99.33247	1526.60010	99.33247
28550.00000	99.17853	1527.13229	99.17853
28600.00000	99.23938	1524.82725	99.23938
28650.00000	99.32313	1519.46734	99.32313
28700.00000	99.15171	1521.17601	99.15171
28750.00000	99.69777	1520.66869	99.69777
28800.00000	99.13891	1518.67927	99.13891
28850.00000	98.53307	1513.66206	98.53307
28900.00000	98.54356	1512.74054	98.54356
28950.00000	98.46692	1512.88696	98.46692
29000.00000	98.52281	1511.02464	98.52281
29050.00000	98.19811	1512.19727	98.19811
29100.00000	97.88671	1510.28036	97.88671
29150.00000	97.64361	1510.19808	97.64361
29200.00000	97.74982	1508.02461	97.74982
29250.00000	97.80648	1508.02816	97.80648
29300.00000	97.39565	1507.28023	97.39565
29350.00000	97.59713	1505.11668	97.59713
29400.00000	97.18667	1505.00391	97.18667
29450.00000	97.43631	1504.78176	97.43631
29500.00000	97.53865	1504.48941	97.53865
29550.00000	97.18907	1503.23006	97.18907
29600.00000	97.08658	1504.35866	97.08658
29650.00000	97.00597	1503.97291	97.00597
29700.00000	96.96570	1505.97394	96.96570
29750.00000	96.85835	1506.58203	96.85835
29800.00000	96.45696	1505.38671	96.45696
29850.00000	96.77235	1504.95943	96.77235
29900.00000	96.99480	1506.68189	96.99480
29950.00000	96.24465	1507.64197	96.24465
30000.00000	96.83681	1509.58168	96.83681
30050.00000	96.86732	1509.25219	96.86732
30100.00000	96.83470	1511.59717	96.83470
30150.00000	96.97364	1509.22902	96.97364
30200.00000	97.19934	1509.30817	97.19934
30250.00000	97.22053	1510.57186	97.22053
30300.00000	97.08265	1513.07028	97.08265
30350.00000	97.47022	1515.03236	97.47022
30400.00000	97.66851	1513.89685	97.66851
30450.00000	97.55343	1514.79169	97.55343
30500.00000	97.83893	1514.88539	97.83893
30550.00000	98.01448	1516.97593	98.01448
30600.00000	98.26662	1518.16199	98.26662
30650.00000	98.60384	1518.90640	98.60384
30700.00000	98.87996	1518.73013	98.87996
30750.00000	98.97291	1520.71106	98.97291
30800.00000	99.29632	1521.46450	99.29632
30850.00000	99.74253	1523.40935	99.74253
30900.00000	99.85383	1524.68320	99.85383
30950.00000	100.47515	1524.56474	100.47515
31000.00000	100.96004	1524.49362	100.96004
31050.00000	101.42720	1525.46300	101.42720
31100.00000	102.07706	1526.39464	102.07706
31150.00000	102.24655	1525.97251	102.24655
31200.00000	103.10951	1525.22232	103.10951
31250.00000	103.57852	1525.38123	103.57852
31300.00000	104.23297	1524.24047	104.23297
31350.00000	104.86288	1523.04583	104.86288
31400.00000	105.23845	1521.13061	105.23845
31450.00000	105.89436	1519.18229	105.89436
31500.00000	106.37097	1516.28585	106.37097
31550.00000	106.97213	1514.32627	106.97213
31600.00000	107.58763	1510.69455	107.58763
31650.00000	108.01714	1507.94924	108.01714
31700.00000	108.50992	1505.68787	108.50992
31750.00000	108.99396	1503.09230	108.99396
31800.00000	109.34414	1498.90691	109.34414
31850.00000	109.83238	1494.93539	109.83238
31900.00000	110.03657	1491.45242	110.03657
31950.00000	110.44731	1487.82376	110.44731
32000.00000	110.79716	1484.00538	110.79716
32050.00000	111.07979	1480.44314	111.07979
32100.00000	111.33070	1476.00643	111.33070
32150.00000	111.67037	1473.05583	111.67037
32200.00000	111.90220	1468.36217	111.90220
32250.00000	112.08669	1463.91623	112.08669
32300.00000	112.26245	1460.67533	112.26245
32350.00000	112.40709	1457.01067	112.40709
32400.00000	112.70171	1453.60403	112.70171
32450.00000	112.78686	1449.18142	112.78686
32500.00000	113.00044	1446.24199	113.00044
32550.00000	113.27910	1441.17128	113.27910
32600.00000	113.36185	1438.00718	113.36185
32650.00000	113.55533	1433.98777	113.55533
32700.00000	113.60103	1429.68815	113.60103
32750.00000	113.74636	1425.75255	113.74636
32800.00000	113.94120	1422.79054	113.94120
32850.00000	114.13925	1418.59690	114.13925
32900.00000	114.18546	1413.81522	114.18546
32950.00000	114.20581	1409.03397	114.20581
33000.00000	114.33099	1407.29665	114.33099
33050.00000	114.37340	1401.77245	114.37340
33100.00000	114.60715	1398.19760	114.60715
33150.00000	114.71115	1394.72112	114.71115
33200.00000	114.92613	1391.69212	114.92613
33250.00000	114.89523	1387.49003	114.89523
33300.00000	114.96440	1382.73196	114.96440
33350.00000	114.96562	1378.20196	114.96562
33400.00000	115.00504	1375.55957	115.00504
33450.00000	115.18129	1370.38079	115.18129
33500.00000	115.37989	1367.87360	115.37989
33550.00000	115.16582	1361.75053	115.16582
33600.00000	115.43309	1358.66701	115.43309
33650.00000	115.46275	1353.85522	115.46275
33700.00000	115.42063	1349.99529	115.42063
33750.00000	115.31530	1345.86424	115.31530
33800.00000	115.46863	1341.35069	115.46863
33850.00000	115.13967	1337.45745	115.13967
33900.00000	115.26825	1332.82967	115.26825
33950.00000	115.25266	1329.53209	115.25266
34000.00000	115.21272	1324.92980	115.21272
34050.00000	115.03276	1320.82703	115.03276
34100.00000	114.89136	1317.99522	114.89136
34150.00000	114.89100	1313.04838	114.89100
34200.00000	114.69916	1311.04754	114.69916
34250.00000	114.59444	1306.25900	114.59444
34300.00000	114.49572	1302.40537	114.49572
34350.00000	114.42697	1299.25872	114.42697
34400.00000	113.98928	1297.75379	113.98928
34450.00000	114.09286	1291.83259	114.09286
34500.00000	113.89241	1289.54077	113.89241
34550.00000	113.88303	1286.26110	113.88303
34600.00000	113.45478	1282.13339	113.45478
34650.00000	113.44263	1281.44157	113.44263
34700.00000	112.80688	1280.27270	112.80688
34750.00000	112.83356	1274.25210	112.83356
34800.00000	112.97349	1275.40981	112.97349
34850.00000	112.86616	1274.74787	112.86616
34900.00000	112.84335	1270.36347	112.84335
34950.00000	112.63009	1269.92631	112.63009
35000.00000	112.62553	1267.17638	112.62553
35050.00000	112.63825	1266.02374	112.63825
35100.00000	112.81778	1264.21734	112.81778
35150.00000	112.53947	1263.18522	112.53947
35200.00000	112.54966	1259.84505	112.54966
35250.00000	112.62480	1257.81108	112.62480
35300.00000	112.68594	1256.07697	112.68594
35350.00000	112.79695	1253.44041	112.79695
35400.00000	112.75649	1252.01546	112.75649
35450.00000	112.74645	1250.82524	112.74645
35500.00000	112.63480	1248.53542	112.63480
35550.00000	112.98998	1247.72774	112.98998
35600.00000	112.90962	1244.79990	112.90962
35650.00000	113.16303	1243.29262	113.16303
35700.00000	113.21083	1241.15282	113.21083
35750.00000	113.10983	1240.33396	113.10983
35800.00000	113.40036	1239.17973	113.40036
35850.00000	113.63831	1235.53930	113.63831
35900.00000	113.75115	1233.58681	113.75115
35950.00000	114.08839	1231.25923	114.08839
36000.00000	114.09651	1230.06169	114.09651
36050.00000	114.41944	1226.70540	114.41944
36100.00000	114.60907	1223.90835	114.60907
36150.00000	114.60674	1221.37694	114.60674
36200.00000	114.78804	1219.22639	114.78804
36250.00000	114.83356	1216.38477	114.83356
36300.00000	114.89628	1214.41118	114.89628
36350.00000	115.20752	1211.39427	115.20752
36400.00000	115.38905	1208.72843	115.38905
36450.00000	115.35355	1205.64581	115.35355
36500.00000	115.51676	1203.43598	115.51676
36550.00000	115.57634	1199.54623	115.57634
36600.00000	115.66501	1197.21904	115.66501
36650.00000	115.82984	1194.52463	115.82984
36700.00000	115.97906	1191.32641	115.97906
36750.00000	116.10330	1188.45818	116.10330
36800.00000	116.12693	1185.47638	116.12693
36850.00000	115.95923	1182.30554	115.95923
36900.00000	116.11194	1179.36897	116.11194
36950.00000	116.02408	1176.44576	116.02408
37000.00000	115.79353	1174.26340	115.79353
37050.00000	115.92076	1172.23455	115.92076
37100.00000	115.99270	1168.54533	115.99270
37150.00000	116.03408	1165.02191	116.03408
37200.00000	116.21216	1164.12989	116.21216
37250.00000	115.82953	1160.80407	115.82953
37300.00000	115.87043	1158.91603	115.87043
37350.00000	116.17595	1157.41321	116.17595
37400.00000	116.15152	1155.65735	116.15152
37450.00000	115.83570	1152.29423	115.83570
37500.00000	116.16358	1149.00796	116.16358
37550.00000	115.90775	1147.53817	115.90775
37600.00000	115.93648	1145.46551	115.93648
37650.00000	115.90120	1143.79725	115.90120
37700.00000	116.01729	1140.49600	116.01729
37750.00000	116.02130	1139.49698	116.02130
37800.00000	115.90947	1136.50903	115.90947
37850.00000	116.02974	1133.01062	116.02974
37900.00000	115.97208	1132.16291	115.97208
37950.00000	116.11742	1130.36252	116.11742
38000.00000	116.11626	1128.67211	116.11626
38050.00000	116.30253	1126.07988	116.30253
38100.00000	116.38183	1122.98032	116.38183
38150.00000	116.43086	1120.35930	116.43086
38200.00000	116.61113	1117.15161	116.61113
38250.00000	116.65022	1114.79748	116.65022
38300.00000	116.88631	1111.08976	116.88631
38350.00000	116.86935	1109.00214	116.86935
38400.00000	117.09100	1105.53966	117.09100
38450.00000	117.13593	1101.21189	117.13593
38500.00000	117.28596	1097.28543	117.28596
38550.00000	117.35798	1094.33147	117.35798
38600.00000	117.54543	1090.61839	117.54543
38650.00000	117.64194	1086.19741	117.64194
38700.00000	117.67706	1081.71319	117.67706
38750.00000	117.74393	1077.21086	117.74393
38800.00000	117.69430	1073.11461	117.69430
38850.00000	117.66416	1068.85948	117.66416
38900.00000	117.70660	1064.49306	117.70660
38950.00000	117.59043	1059.56771	117.59043
39000.00000	117.59061	1054.33048	117.59061
39050.00000	117.44843	1050.02076	117.44843
39100.00000	117.14318	1046.33653	117.14318
39150.00000	116.96494	1041.56964	116.96494
39200.00000	116.86373	1037.58335	116.86373
39250.00000	116.61887	1032.81025	116.61887
39300.00000	116.45605	1028.99286	116.45605
39350.00000	116.18651	1025.55888	116.18651
39400.00000	115.90581	1021.15158	115.90581
39450.00000	115.61225	1018.07002	115.61225
39500.00000	115.38898	1014.55844	115.38898
39550.00000	115.08311	1010.37075	115.08311
39600.00000	114.68051	1007.10543	114.68051
39650.00000	114.51229	1005.02940	114.51229
39700.00000	114.11727	1002.34746	114.11727
39750.00000	113.94776	998.99198	113.94776
39800.00000	113.60421	996.38036	113.60421
39850.00000	113.28281	993.88035	113.28281
39900.00000	113.08480	991.25486	113.08480
39950.00000	112.83257	989.34855	112.83257
40000.00000	112.43794	987.70180	112.43794
40050.00000	112.34229	984.86366	112.34229
40100.00000	112.10790	982.58421	112.10790
40150.00000	111.77867	980.93643	111.77867
40200.00000	111.63223	978.50946	111.63223
40250.00000	111.49026	977.12830	111.49026
40300.00000	111.30201	975.74204	111.30201
40350.00000	110.97054	974.17305	110.97054
40400.00000	110.72260	972.85925	110.72260
40450.00000	110.52447	971.49099	110.52447
40500.00000	110.46126	970.45425	110.46126
40550.00000	110.26936	968.19069	110.26936
40600.00000	110.12108	968.01909	110.12108
40650.00000	110.02209	966.85041	110.02209
40700.00000	109.66237	966.93251	109.66237
40750.00000	109.73797	965.44119	109.73797
40800.00000	109.71644	964.48163	109.71644
40850.00000	109.57103	964.83186	109.57103
40900.00000	109.53083	963.08648	109.53083
40950.00000	109.31665	963.96217	109.31665
41000.00000	109.14829	962.68120	109.14829
41050.00000	109.23185	962.84404	109.23185
41100.00000	109.38960	962.25851	109.38960
41150.00000	109.50675	963.04395	109.50675
41200.00000	109.48831	962.00212	109.48831
41250.00000	109.45854	960.19899	109.45854
41300.00000	109.38607	961.04628	109.38607
41350.00000	109.63163	962.26418	109.63163
41400.00000	109.64278	957.26187	109.64278
41450.00000	109.91179	959.76724	109.91179
41500.00000	109.91089	958.53076	109.91089
41550.00000	109.80683	962.77332	109.80683
41600.00000	109.67436	960.25354	109.67436
41650.00000	110.27510	958.49949	110.27510
41700.00000	110.62720	958.48590	110.62720
41750.00000	110.36674	962.86080	110.36674
41800.00000	109.62447	956.50025	109.62447
41850.00000	109.81792	957.43437	109.81792
41900.00000	109.80420	957.75658	109.80420
41950.00000	111.29293	964.11612	111.29293
42000.00000	110.47182	956.86953	110.47182
42050.00000	109.56673	956.02296	109.56673
42100.00000	110.41673	956.26535	110.41673
42150.00000	109.91874	951.46967	109.91874
42200.00000	110.03257	957.14919	110.03257
42250.00000	110.19042	956.77541	110.19042
42300.00000	109.42492	952.59114	109.42492
42350.00000	110.05146	953.97876	110.05146
42400.00000	110.10666	954.34635	110.10666
42450.00000	110.53110	948.39777	110.53110
42500.00000	109.89562	947.85365	109.89562
42550.00000	110.34753	958.41840	110.34753
42600.00000	110.07119	949.21254	110.07119
42650.00000	109.83297	949.78064	109.83297
42700.00000	109.79926	947.10691	109.79926
42750.00000	110.81478	944.33827	110.81478
42800.00000	110.05754	937.41496	110.05754
42850.00000	109.77040	935.93235	109.77040
42900.00000	111.23768	940.13954	111.23768
42950.00000	110.35403	934.79643	110.35403
43000.00000	111.00230	925.29419	111.00230
43050.00000	110.43782	923.75635	110.43782
43100.00000	110.72313	925.66128	110.72313
43150.00000	109.74272	920.91565	109.74272
43200.00000	110.16739	915.29863	110.16739
43250.00000	110.49464	912.11619	110.49464
43300.00000	110.40771	908.51249	110.40771
43350.00000	111.10516	903.61693	111.10516
43400.00000	110.47306	902.03845	110.47306
43450.00000	111.32662	898.61031	111.32662
43500.00000	110.15226	888.83438	110.15226
43550.00000	110.69788	885.68019	110.69788
43600.00000	110.21196	879.45553	110.21196
43650.00000	110.49843	871.06774	110.49843
43700.00000	110.08232	870.56391	110.08232
43750.00000	109.76094	870.10467	109.76094
43800.00000	110.09643	861.12208	110.09643
43850.00000	110.63288	855.16299	110.63288
43900.00000	110.62774	853.42685	110.62774
43950.00000	110.53419	845.81772	110.53419
44000.00000	110.10928	841.76567	110.10928
44050.00000	110.47433	836.03925	110.47433
44100.00000	110.41202	823.15940	110.41202
44150.00000	109.94570	824.57266	109.94570
44200.00000	109.49854	822.64255	109.49854
44250.00000	109.96819	816.00684	109.96819
44300.00000	110.05845	807.80281	110.05845
44350.00000	109.44107	806.98086	109.44107
44400.00000	109.57838	799.69839	109.57838
44450.00000	109.81128	797.07241	109.81128
44500.00000	109.29199	793.88485	109.29199
44550.00000	110.53127	780.18321	110.53127
44600.00000	109.05536	782.81624	109.05536
44650.00000	108.43862	773.09666	108.43862
44700.00000	108.39856	769.67023	108.39856
44750.00000	108.04390	767.58760	108.04390
44800.00000	108.95919	761.84036	108.95919
44850.00000	108.22045	756.42811	108.22045
44900.00000	107.76493	754.17433	107.76493
44950.00000	107.79004	747.55406	107.79004
45000.00000	107.64693	739.32506	107.64693
45050.00000	106.34855	743.41410	106.34855
45100.00000	106.43696	736.69604	106.43696
45150.00000	106.23113	725.94081	106.23113
45200.00000	105.95125	727.94904	105.95125
45250.00000	105.75125	722.89117	105.75125
45300.00000	105.18096	718.78021	105.18096
45350.00000	104.93674	711.74924	104.93674
45400.00000	104.30381	712.42546	104.30381
45450.00000	104.60953	704.18260	104.60953
45500.00000	102.74162	697.94328	102.74162
45550.00000	102.92328	702.55042	102.92328
45600.00000	104.07700	695.00589	104.07700
45650.00000	101.92630	691.82497	101.92630
45700.00000	102.04461	688.15964	102.04461
45750.00000	103.21302	693.18579	103.21302
45800.00000	101.46959	686.38287	101.46959
45850.00000	101.85830	679.06736	101.85830
45900.00000	101.37027	680.39417	101.37027
45950.00000	99.95340	676.48654	99.95340
46000.00000	99.14484	663.77982	99.14484
46050.00000	98.54372	664.58437	98.54372
46100.00000	98.09280	668.05388	98.09280
46150.00000	97.66721	667.90033	97.66721
46200.00000	95.01058	661.31584	95.01058
46250.00000	97.09934	656.36274	97.09934
46300.00000	95.69938	658.16944	95.69938
46350.00000	96.86851	653.62112	96.86851
46400.00000	94.83302	657.41399	94.83302
46450.00000	92.91014	654.25620	92.91014
46500.00000	94.59147	655.00857	94.59147
46550.00000	94.36268	663.80039	94.36268
46600.00000	93.55606	660.34885	93.55606
46650.00000	90.25233	656.46437	90.25233
46700.00000	91.71023	668.56213	91.71023
46750.00000	92.04345	677.07512	92.04345
46800.00000	90.18749	664.67028	90.18749
46850.00000	91.66759	323.30334	91.66759
46900.00000	91.78467	315.05159	91.78467
46950.00000	92.27177	313.30718	92.27177
47000.00000	92.29552	324.33352	92.29552
47050.00000	93.57451	310.67662	93.57451
47100.00000	92.75022	312.38931	92.75022
47150.00000	93.00786	306.88666	93.00786
47200.00000	92.70657	310.52841	92.70657
47250.00000	93.59332	309.14949	93.59332
47300.00000	93.13721	302.92015	93.13721
47350.00000	93.30650	-48.06189	93.30650
47400.00000	93.32774	-49.35465	93.32774
47450.00000	94.18925	-51.57682	94.18925
47500.00000	92.42821	-61.33143	92.42821
47550.00000	92.43832	-414.03968	92.43832
47600.00000	92.73278	-415.54492	92.73278
47650.00000	94.39388	-422.65015	94.39388
47700.00000	94.04538	-425.78495	94.04538
47750.00000	92.38366	-419.90996	92.38366
47800.00000	92.70043	-437.75820	92.70043
47850.00000	93.95366	-788.63744	93.95366
47900.00000	93.08326	-1146.56464	93.08326
47950.00000	92.51029	-1142.86698	92.51029
48000.00000	92.49568	-1140.52749	92.49568
48050.00000	94.12054	-1153.39867	94.12054
48100.00000	92.99507	-1156.17725	92.99507
48150.00000	92.40194	-1507.44941	92.40194
48200.00000	93.78744	-1507.95882	93.78744
48250.00000	93.49520	-1512.96496	93.49520
48300.00000	94.01564	-1513.83629	94.01564
48350.00000	93.79007	-1521.31350	93.79007
48400.00000	94.37753	-1870.96557	94.37753
48450.00000	94.92094	-1875.80091	94.92094
48500.00000	93.45068	-1872.19680	93.45068
48550.00000	94.05900	-1882.95163	94.05900
48600.00000	95.43932	-2235.84883	95.43932
48650.00000	96.86326	-2237.65912	96.86326
48700.00000	96.54627	-2251.88210	96.54627
48750.00000	96.72299	-2604.26299	96.72299
48800.00000	95.51221	-2607.60551	95.51221
48850.00000	95.76748	-2618.85107	95.76748
48900.00000	95.11073	-2979.02073	95.11073
48950.00000	95.43454	-2990.48438	95.43454
49000.00000	96.16993	-2991.67559	96.16993
49050.00000	96.35594	-2995.08109	96.35594
49100.00000	96.46100	-3361.91783	96.46100
49150.00000	95.92910	-3721.66655	95.92910
49200.00000	97.36730	-3740.52115	97.36730
49250.00000	94.81223	-4096.27865	94.81223
49300.00000	96.20995	-3748.17879	96.20995
49350.00000	93.43771	-3737.81707	93.43771
49400.00000	95.00093	-3389.07658	95.00093
49450.00000	93.78767	-3038.52478	93.78767
49500.00000	92.75805	-2694.49809	92.75805
49550.00000	93.34424	-2333.26927	93.34424
49600.00000	91.03885	-2343.56420	91.03885
49650.00000	94.08310	-2335.12164	94.08310
49700.00000	90.87017	-2012.40491	90.87017
49750.00000	90.01239	-2006.38237	90.01239
49800.00000	91.67450	-2034.21445	91.67450
49850.00000	88.22527	-2023.15364	88.22527
49900.00000	89.11692	-1701.45141	89.11692
49950.00000	91.08759	-1349.81096	91.08759
