---ACOUSTIC CALIBRATION---
Filename: C:\Data\AZH DATA\AZH51\RightPrimary.calib
Date: 8/27/2019 11:14:04 AM
Format: 4
Probe Tube Correction File: C:\Data\Probe Tube Calibrations\50_ProbeTube.calib
Experiment VIs: 850
EPL_CFTS.exe V12.0.1 (2012)
DAQmx V9.6

Attenuation (dB): 40.000000
Min Freq (Hz): 50.000000
Max Freq (Hz): 49950.000000
Freq Step (Hz): 50.000000
Sample Rate (Hz): 100000.000000
[Smoothing]
Method=None
MA.Iterations=0
MA.Length=0
Loess.Length=0
Loess.Type=Linear
Loess.Robust=FALSE


Freq(Hz)	Mag(dB)	Phase(deg)	Unsmoothed(dB)

50.00000	101.38626	611.95475	101.38626
100.00000	83.06819	566.68629	83.06819
150.00000	81.77240	507.56981	81.77240
200.00000	83.06037	463.74683	83.06037
250.00000	91.03661	459.54538	91.03661
300.00000	89.46436	399.27125	89.46436
350.00000	87.77377	386.57312	87.77377
400.00000	89.94833	354.14502	89.94833
450.00000	88.29372	339.71295	88.29372
500.00000	92.21841	348.51479	92.21841
550.00000	95.11042	358.86826	95.11042
600.00000	97.21077	351.12585	97.21077
650.00000	99.29278	340.91320	99.29278
700.00000	102.14240	324.26726	102.14240
750.00000	103.65258	306.54800	103.65258
800.00000	104.28407	283.61703	104.28407
850.00000	103.70253	266.98564	103.70253
900.00000	101.96394	251.74951	101.96394
950.00000	100.00431	251.62981	100.00431
1000.00000	98.56237	255.58492	98.56237
1050.00000	96.95889	272.58518	96.95889
1100.00000	99.41890	292.32875	99.41890
1150.00000	102.19804	295.33345	102.19804
1200.00000	104.80310	293.59064	104.80310
1250.00000	106.48807	285.75648	106.48807
1300.00000	108.07225	280.41099	108.07225
1350.00000	109.45300	270.62052	109.45300
1400.00000	110.28863	263.87047	110.28863
1450.00000	111.42022	257.01184	111.42022
1500.00000	112.43072	250.05907	112.43072
1550.00000	113.28584	240.78364	113.28584
1600.00000	114.64555	230.74790	114.64555
1650.00000	115.60873	214.52852	115.60873
1700.00000	114.37862	204.49807	114.37862
1750.00000	114.05642	199.15206	114.05642
1800.00000	113.83244	195.46717	113.83244
1850.00000	114.15132	194.75367	114.15132
1900.00000	115.43961	189.15404	115.43961
1950.00000	115.93299	174.65765	115.93299
2000.00000	114.73740	163.36593	114.73740
2050.00000	113.57590	169.49153	113.57590
2100.00000	115.48359	167.49202	115.48359
2150.00000	115.96416	155.78068	115.96416
2200.00000	115.78382	146.14966	115.78382
2250.00000	115.13392	139.09886	115.13392
2300.00000	115.14769	133.88251	115.14769
2350.00000	114.86077	127.33770	114.86077
2400.00000	114.47536	121.89649	114.47536
2450.00000	114.13541	115.76831	114.13541
2500.00000	113.62207	110.77610	113.62207
2550.00000	113.14953	105.91318	113.14953
2600.00000	112.49911	101.88811	112.49911
2650.00000	111.86403	98.57610	111.86403
2700.00000	111.18460	94.96824	111.18460
2750.00000	110.37289	92.26472	110.37289
2800.00000	109.44980	90.86241	109.44980
2850.00000	108.48815	90.71656	108.48815
2900.00000	107.44510	91.72147	107.44510
2950.00000	106.31411	95.30329	106.31411
3000.00000	105.23033	102.28593	105.23033
3050.00000	104.35384	113.76800	104.35384
3100.00000	104.69637	129.12923	104.69637
3150.00000	106.08826	140.85197	106.08826
3200.00000	107.91032	148.17221	107.91032
3250.00000	109.70850	150.89501	109.70850
3300.00000	111.40719	151.50130	111.40719
3350.00000	113.06988	150.95554	113.06988
3400.00000	114.81481	149.80484	114.81481
3450.00000	116.58820	145.65963	116.58820
3500.00000	118.32478	138.88088	118.32478
3550.00000	119.58736	130.01285	119.58736
3600.00000	120.69034	121.65395	120.69034
3650.00000	121.53980	112.16600	121.53980
3700.00000	122.17789	103.01477	122.17789
3750.00000	122.65655	93.84593	122.65655
3800.00000	122.92566	85.28572	122.92566
3850.00000	123.04112	78.02721	123.04112
3900.00000	123.25278	72.05749	123.25278
3950.00000	123.61509	66.10776	123.61509
4000.00000	124.00623	59.56178	124.00623
4050.00000	124.39306	52.78293	124.39306
4100.00000	124.79236	45.54561	124.79236
4150.00000	125.31299	37.58226	125.31299
4200.00000	125.47425	28.55189	125.47425
4250.00000	125.61330	19.41538	125.61330
4300.00000	125.59707	10.26913	125.59707
4350.00000	125.43545	 1.22944	125.43545
4400.00000	125.17751	-7.09996	125.17751
4450.00000	124.84974	-14.87505	124.84974
4500.00000	124.51477	-22.26051	124.51477
4550.00000	124.17472	-29.56394	124.17472
4600.00000	123.76661	-36.80678	123.76661
4650.00000	123.37561	-43.88282	123.37561
4700.00000	122.87707	-51.44290	122.87707
4750.00000	122.22160	-59.02820	122.22160
4800.00000	121.36599	-66.18786	121.36599
4850.00000	120.30229	-71.88753	120.30229
4900.00000	119.16876	-75.66993	119.16876
4950.00000	118.11451	-77.38244	118.11451
5000.00000	117.20366	-77.65377	117.20366
5050.00000	116.44154	-77.58850	116.44154
5100.00000	115.70323	-74.12071	115.70323
5150.00000	116.04036	-71.67647	116.04036
5200.00000	116.32730	-70.97690	116.32730
5250.00000	116.89384	-76.90009	116.89384
5300.00000	116.39824	-82.80977	116.39824
5350.00000	115.82012	-85.09726	115.82012
5400.00000	115.43016	-86.23721	115.43016
5450.00000	115.18552	-87.12818	115.18552
5500.00000	114.99734	-88.15090	114.99734
5550.00000	114.86643	-89.12249	114.86643
5600.00000	114.80654	-90.08482	114.80654
5650.00000	114.82644	-91.14322	114.82644
5700.00000	114.90693	-92.73025	114.90693
5750.00000	115.06528	-94.65638	115.06528
5800.00000	115.17924	-97.47493	115.17924
5850.00000	115.25531	-100.72344	115.25531
5900.00000	115.26960	-103.89623	115.26960
5950.00000	115.24521	-107.18493	115.24521
6000.00000	115.18968	-110.24778	115.18968
6050.00000	115.11281	-113.26057	115.11281
6100.00000	115.04484	-116.24597	115.04484
6150.00000	114.95945	-119.17156	114.95945
6200.00000	114.86039	-121.99044	114.86039
6250.00000	114.78802	-124.80938	114.78802
6300.00000	114.71183	-127.54181	114.71183
6350.00000	114.62349	-130.41676	114.62349
6400.00000	114.55056	-133.07892	114.55056
6450.00000	114.49485	-135.90222	114.49485
6500.00000	114.42136	-138.78130	114.42136
6550.00000	114.34285	-141.56726	114.34285
6600.00000	114.27805	-144.34329	114.27805
6650.00000	114.23001	-147.11109	114.23001
6700.00000	114.19817	-150.15392	114.19817
6750.00000	114.16703	-153.07727	114.16703
6800.00000	114.14112	-156.08499	114.14112
6850.00000	114.10743	-159.10685	114.10743
6900.00000	114.08841	-162.22181	114.08841
6950.00000	114.05241	-165.36877	114.05241
7000.00000	114.02942	-168.68526	114.02942
7050.00000	113.98731	-172.16364	113.98731
7100.00000	113.96066	-175.84792	113.96066
7150.00000	113.91025	-179.41721	113.91025
7200.00000	113.83352	-183.19706	113.83352
7250.00000	113.73070	-187.19457	113.73070
7300.00000	113.64710	-191.10991	113.64710
7350.00000	113.50685	-195.09211	113.50685
7400.00000	113.36569	-199.31107	113.36569
7450.00000	113.17782	-203.61269	113.17782
7500.00000	112.97227	-207.67769	112.97227
7550.00000	112.71536	-211.79509	112.71536
7600.00000	112.43080	-215.83054	112.43080
7650.00000	112.11538	-219.81534	112.11538
7700.00000	111.81108	-223.74784	111.81108
7750.00000	111.41030	-227.68717	111.41030
7800.00000	111.02115	-231.36290	111.02115
7850.00000	110.61349	-234.73018	110.61349
7900.00000	110.21549	-237.89267	110.21549
7950.00000	109.80854	-241.16877	109.80854
8000.00000	109.42011	-244.10430	109.42011
8050.00000	109.03797	-247.03610	109.03797
8100.00000	108.66742	-248.90025	108.66742
8150.00000	108.25025	-250.97191	108.25025
8200.00000	107.86440	-252.61375	107.86440
8250.00000	107.44746	-254.40438	107.44746
8300.00000	107.05552	-255.69208	107.05552
8350.00000	106.61508	-256.78117	106.61508
8400.00000	106.18457	-258.42612	106.18457
8450.00000	105.66797	-259.90894	105.66797
8500.00000	105.19780	-261.68696	105.19780
8550.00000	104.80351	-263.31241	104.80351
8600.00000	104.40613	-265.54653	104.40613
8650.00000	104.05280	-267.50480	104.05280
8700.00000	103.81445	-269.90188	103.81445
8750.00000	103.54350	-270.59851	103.54350
8800.00000	103.40583	-272.28620	103.40583
8850.00000	103.22530	-273.15808	103.22530
8900.00000	103.07916	-273.38749	103.07916
8950.00000	102.87718	-273.84831	102.87718
9000.00000	102.59368	-273.86203	102.59368
9050.00000	102.32858	-274.60407	102.32858
9100.00000	101.96550	-275.00113	101.96550
9150.00000	101.60224	-275.71648	101.60224
9200.00000	101.29294	-277.06432	101.29294
9250.00000	100.92726	-278.64512	100.92726
9300.00000	100.75471	-280.56531	100.75471
9350.00000	100.65162	-282.53724	100.65162
9400.00000	100.51930	-283.63365	100.51930
9450.00000	100.56321	-284.12283	100.56321
9500.00000	100.69676	-283.64228	100.69676
9550.00000	100.85445	-283.52241	100.85445
9600.00000	100.96055	-284.05898	100.96055
9650.00000	100.86429	-284.36833	100.86429
9700.00000	100.73749	-284.10338	100.73749
9750.00000	100.63341	-285.28091	100.63341
9800.00000	100.38615	-286.07821	100.38615
9850.00000	100.22706	-287.09930	100.22706
9900.00000	99.98746	-289.24095	99.98746
9950.00000	99.95204	-290.82394	99.95204
10000.00000	100.00224	-293.13379	100.00224
10050.00000	100.03592	-294.62106	100.03592
10100.00000	100.10792	-295.62843	100.10792
10150.00000	100.07928	-297.07728	100.07928
10200.00000	100.10107	-298.01428	100.10107
10250.00000	100.01519	-299.27372	100.01519
10300.00000	99.99773	-300.73502	99.99773
10350.00000	99.85096	-302.37494	99.85096
10400.00000	99.68301	-304.82880	99.68301
10450.00000	99.71446	-307.58022	99.71446
10500.00000	99.76303	-310.17840	99.76303
10550.00000	99.81554	-313.00705	99.81554
10600.00000	99.86127	-315.25851	99.86127
10650.00000	99.87490	-317.07044	99.87490
10700.00000	99.87826	-319.79520	99.87826
10750.00000	99.85556	-321.82963	99.85556
10800.00000	99.69696	-323.79582	99.69696
10850.00000	99.53474	-327.04273	99.53474
10900.00000	99.37241	-329.37696	99.37241
10950.00000	99.21030	-331.98326	99.21030
11000.00000	99.03670	-334.81241	99.03670
11050.00000	98.73660	-337.42330	98.73660
11100.00000	98.55859	-340.28887	98.55859
11150.00000	98.25081	-342.42282	98.25081
11200.00000	98.06688	-344.45154	98.06688
11250.00000	97.71116	-346.76456	97.71116
11300.00000	97.31801	-348.98198	97.31801
11350.00000	96.96112	-350.58968	96.96112
11400.00000	96.50524	-352.48559	96.50524
11450.00000	96.17743	-354.69064	96.17743
11500.00000	95.97802	-355.59479	95.97802
11550.00000	95.58445	-356.48122	95.58445
11600.00000	95.37902	-358.07819	95.37902
11650.00000	95.03417	-357.89295	95.03417
11700.00000	94.80407	-358.46629	94.80407
11750.00000	94.57749	-359.16180	94.57749
11800.00000	94.32410	-360.43903	94.32410
11850.00000	94.18819	-360.08051	94.18819
11900.00000	93.83416	-361.05666	93.83416
11950.00000	93.70200	-361.16877	93.70200
12000.00000	93.44788	-361.01707	93.44788
12050.00000	93.14616	-361.08343	93.14616
12100.00000	92.98174	-362.25449	92.98174
12150.00000	92.76385	-363.19580	92.76385
12200.00000	92.63227	-364.29518	92.63227
12250.00000	92.51926	-364.64580	92.51926
12300.00000	93.56840	-365.29624	93.56840
12350.00000	92.32971	-365.67999	92.32971
12400.00000	92.21475	-365.01668	92.21475
12450.00000	92.00911	-364.66814	92.00911
12500.00000	91.80419	-365.08155	91.80419
12550.00000	91.55650	-365.74071	91.55650
12600.00000	91.30863	-367.26809	91.30863
12650.00000	91.38259	-367.95343	91.38259
12700.00000	91.18609	-368.43588	91.18609
12750.00000	91.09218	-369.03870	91.09218
12800.00000	90.93490	-368.47870	90.93490
12850.00000	90.41355	-368.17458	90.41355
12900.00000	90.28493	-368.56245	90.28493
12950.00000	90.14380	-368.68290	90.14380
13000.00000	89.90239	-369.13714	89.90239
13050.00000	89.87531	-368.43875	89.87531
13100.00000	89.67251	-368.36739	89.67251
13150.00000	89.63171	-368.06165	89.63171
13200.00000	89.56962	-366.34958	89.56962
13250.00000	89.47642	-365.16445	89.47642
13300.00000	89.31739	-362.40646	89.31739
13350.00000	89.24879	-362.05200	89.24879
13400.00000	89.30318	-361.27512	89.30318
13450.00000	89.16753	-359.53407	89.16753
13500.00000	89.24500	-358.08759	89.24500
13550.00000	89.23596	-358.04565	89.23596
13600.00000	89.40447	-355.99236	89.40447
13650.00000	89.57687	-354.35105	89.57687
13700.00000	89.53565	-353.06947	89.53565
13750.00000	89.46881	-351.79443	89.46881
13800.00000	89.45875	-352.96448	89.45875
13850.00000	89.55749	-353.61289	89.55749
13900.00000	89.70336	-353.24448	89.70336
13950.00000	90.15521	-352.03680	90.15521
14000.00000	90.71930	-349.28092	90.71930
14050.00000	91.03187	-347.45434	91.03187
14100.00000	91.02233	-345.89470	91.02233
14150.00000	91.28809	-345.61439	91.28809
14200.00000	91.53676	-345.69699	91.53676
14250.00000	92.21377	-344.63649	92.21377
14300.00000	92.63071	-344.72649	92.63071
14350.00000	93.05416	-342.83260	93.05416
14400.00000	93.08936	-342.34942	93.08936
14450.00000	93.45074	-341.36838	93.45074
14500.00000	93.77388	-342.20050	93.77388
14550.00000	94.24378	-341.98000	94.24378
14600.00000	94.53531	-343.71040	94.53531
14650.00000	95.28262	-342.67823	95.28262
14700.00000	95.68975	-346.77870	95.68975
14750.00000	96.18069	-346.60100	96.18069
14800.00000	96.57345	-346.64476	96.57345
14850.00000	97.12279	-347.19678	97.12279
14900.00000	97.66868	-348.51332	97.66868
14950.00000	98.16187	-350.17542	98.16187
15000.00000	98.72163	-352.07335	98.72163
15050.00000	99.08698	-352.59122	99.08698
15100.00000	99.63122	-353.61476	99.63122
15150.00000	100.30053	-356.11676	100.30053
15200.00000	100.66046	-356.69930	100.66046
15250.00000	100.92346	-359.84719	100.92346
15300.00000	101.56934	-362.89167	101.56934
15350.00000	101.97159	-366.56482	101.97159
15400.00000	102.34805	-368.35596	102.34805
15450.00000	102.82359	-371.59033	102.82359
15500.00000	103.29626	-374.47639	103.29626
15550.00000	103.71110	-377.64858	103.71110
15600.00000	104.01810	-381.28578	104.01810
15650.00000	104.49469	-383.06361	104.49469
15700.00000	104.66694	-387.90708	104.66694
15750.00000	105.08127	-390.90278	105.08127
15800.00000	105.41038	-393.58312	105.41038
15850.00000	105.65125	-396.92112	105.65125
15900.00000	105.81910	-400.88876	105.81910
15950.00000	106.09559	-404.46408	106.09559
16000.00000	106.30239	-407.89316	106.30239
16050.00000	106.57083	-411.12624	106.57083
16100.00000	106.60464	-415.04534	106.60464
16150.00000	106.74879	-418.13189	106.74879
16200.00000	106.90746	-422.27416	106.90746
16250.00000	107.05667	-425.24307	107.05667
16300.00000	107.34226	-428.55769	107.34226
16350.00000	107.42700	-431.74948	107.42700
16400.00000	107.55984	-434.51120	107.55984
16450.00000	107.68021	-437.49928	107.68021
16500.00000	107.76118	-440.79995	107.76118
16550.00000	107.92648	-444.40321	107.92648
16600.00000	108.05383	-447.26917	108.05383
16650.00000	108.11380	-450.20119	108.11380
16700.00000	108.24937	-452.84288	108.24937
16750.00000	108.27819	-456.32222	108.27819
16800.00000	108.39806	-459.68926	108.39806
16850.00000	108.56654	-462.56459	108.56654
16900.00000	108.68647	-465.77831	108.68647
16950.00000	108.80406	-468.76085	108.80406
17000.00000	108.75271	-471.80568	108.75271
17050.00000	108.90498	-474.06413	108.90498
17100.00000	108.91409	-476.30749	108.91409
17150.00000	109.12406	-480.03905	109.12406
17200.00000	109.21095	-482.88309	109.21095
17250.00000	109.25901	-486.43477	109.25901
17300.00000	109.43530	-489.34478	109.43530
17350.00000	109.38473	-491.96767	109.38473
17400.00000	109.56247	-495.15025	109.56247
17450.00000	109.56151	-498.70973	109.56151
17500.00000	109.69718	-501.70931	109.69718
17550.00000	109.76377	-504.84362	109.76377
17600.00000	109.93953	-507.58850	109.93953
17650.00000	109.98550	-511.60162	109.98550
17700.00000	110.00856	-514.84080	110.00856
17750.00000	110.18845	-517.49567	110.18845
17800.00000	110.13753	-521.50128	110.13753
17850.00000	110.19601	-524.31691	110.19601
17900.00000	110.20686	-527.98698	110.20686
17950.00000	110.31771	-531.67211	110.31771
18000.00000	110.30355	-535.56640	110.30355
18050.00000	110.43324	-538.52256	110.43324
18100.00000	110.35825	-542.43919	110.35825
18150.00000	110.34358	-545.46499	110.34358
18200.00000	110.25825	-549.44951	110.25825
18250.00000	110.28733	-552.25121	110.28733
18300.00000	110.29825	-555.70410	110.29825
18350.00000	110.24644	-559.08227	110.24644
18400.00000	110.13194	-562.66141	110.13194
18450.00000	110.02939	-567.26164	110.02939
18500.00000	109.96329	-570.33960	109.96329
18550.00000	109.85921	-573.09075	109.85921
18600.00000	109.84802	-576.94794	109.84802
18650.00000	109.60342	-579.77260	109.60342
18700.00000	109.49100	-583.39111	109.49100
18750.00000	109.40934	-586.40965	109.40934
18800.00000	109.39429	-588.89645	109.39429
18850.00000	109.14854	-592.04356	109.14854
18900.00000	108.99084	-594.80996	108.99084
18950.00000	108.89613	-598.14578	108.89613
19000.00000	108.61697	-600.54780	108.61697
19050.00000	108.61638	-603.41222	108.61638
19100.00000	108.44490	-605.71461	108.44490
19150.00000	108.46373	-608.15755	108.46373
19200.00000	108.29671	-610.45890	108.29671
19250.00000	108.17757	-614.05031	108.17757
19300.00000	107.98040	-615.88883	107.98040
19350.00000	107.89704	-618.41411	107.89704
19400.00000	107.74817	-620.66000	107.74817
19450.00000	107.74480	-622.67669	107.74480
19500.00000	107.56209	-625.90959	107.56209
19550.00000	107.47627	-628.20387	107.47627
19600.00000	107.45297	-631.27377	107.45297
19650.00000	107.29960	-633.09588	107.29960
19700.00000	107.09439	-635.71364	107.09439
19750.00000	107.00864	-637.51838	107.00864
19800.00000	106.99403	-640.81971	106.99403
19850.00000	106.91058	-642.88997	106.91058
19900.00000	106.75299	-646.05247	106.75299
19950.00000	106.62484	-648.38696	106.62484
20000.00000	106.54296	-650.77231	106.54296
20050.00000	106.42833	-653.17806	106.42833
20100.00000	106.23956	-655.70912	106.23956
20150.00000	106.17947	-657.32695	106.17947
20200.00000	106.02214	-660.46086	106.02214
20250.00000	105.83771	-662.64668	105.83771
20300.00000	105.61668	-664.91719	105.61668
20350.00000	105.56198	-667.41920	105.56198
20400.00000	105.33355	-668.81518	105.33355
20450.00000	105.09508	-671.11744	105.09508
20500.00000	104.99893	-673.50443	104.99893
20550.00000	104.59177	-674.58560	104.59177
20600.00000	104.51236	-676.24619	104.51236
20650.00000	104.33090	-677.81695	104.33090
20700.00000	104.10574	-679.23486	104.10574
20750.00000	103.99721	-680.48010	103.99721
20800.00000	103.79381	-681.32783	103.79381
20850.00000	103.71208	-682.41912	103.71208
20900.00000	103.52642	-683.30984	103.52642
20950.00000	103.41786	-683.62311	103.41786
21000.00000	103.34332	-684.09417	103.34332
21050.00000	103.44137	-684.37418	103.44137
21100.00000	103.40173	-684.76080	103.40173
21150.00000	103.51816	-685.61996	103.51816
21200.00000	103.61490	-685.97178	103.61490
21250.00000	103.71425	-688.12993	103.71425
21300.00000	103.88874	-688.70855	103.88874
21350.00000	103.97937	-689.95170	103.97937
21400.00000	104.09598	-691.88449	104.09598
21450.00000	104.23951	-693.70430	104.23951
21500.00000	104.34573	-695.93568	104.34573
21550.00000	104.34244	-697.60214	104.34244
21600.00000	104.49427	-700.06082	104.49427
21650.00000	104.51979	-702.50704	104.51979
21700.00000	104.55381	-704.40433	104.55381
21750.00000	104.58693	-706.66890	104.58693
21800.00000	104.58779	-708.90540	104.58779
21850.00000	104.52918	-711.08097	104.52918
21900.00000	104.54021	-713.24411	104.54021
21950.00000	104.51946	-714.92473	104.51946
22000.00000	104.54078	-716.83412	104.54078
22050.00000	104.48547	-718.54635	104.48547
22100.00000	104.47384	-720.44406	104.47384
22150.00000	104.43684	-722.15129	104.43684
22200.00000	104.47405	-723.98674	104.47405
22250.00000	104.41535	-725.56192	104.41535
22300.00000	104.32348	-727.17313	104.32348
22350.00000	104.44546	-729.24490	104.44546
22400.00000	104.47745	-731.20295	104.47745
22450.00000	104.36795	-732.69906	104.36795
22500.00000	104.32759	-733.38443	104.32759
22550.00000	104.33848	-735.62220	104.33848
22600.00000	104.33779	-738.03893	104.33779
22650.00000	104.35853	-739.48263	104.35853
22700.00000	104.36003	-741.08070	104.36003
22750.00000	104.32336	-740.94778	104.32336
22800.00000	104.37276	-744.76694	104.37276
22850.00000	104.43261	-747.16404	104.43261
22900.00000	104.39846	-747.37636	104.39846
22950.00000	104.46403	-748.88971	104.46403
23000.00000	104.43158	-750.02612	104.43158
23050.00000	104.43543	-752.83262	104.43543
23100.00000	104.51790	-753.43995	104.51790
23150.00000	104.35491	-754.30248	104.35491
23200.00000	104.49229	-757.07680	104.49229
23250.00000	104.37171	-759.63524	104.37171
23300.00000	104.69230	-761.22631	104.69230
23350.00000	104.41393	-763.02864	104.41393
23400.00000	104.45301	-764.54622	104.45301
23450.00000	104.63537	-765.82837	104.63537
23500.00000	104.46499	-767.34582	104.46499
23550.00000	104.48081	-767.63884	104.48081
23600.00000	104.43522	-771.06354	104.43522
23650.00000	104.55340	-771.97222	104.55340
23700.00000	104.75615	-775.69202	104.75615
23750.00000	104.71084	-776.25348	104.71084
23800.00000	104.53618	-776.66383	104.53618
23850.00000	104.64438	-777.82183	104.64438
23900.00000	105.11657	-780.12149	105.11657
23950.00000	104.85054	-783.05871	104.85054
24000.00000	104.70734	-784.97359	104.70734
24050.00000	104.94114	-785.19954	104.94114
24100.00000	105.28957	-788.77193	105.28957
24150.00000	105.26836	-790.56018	105.26836
24200.00000	105.35459	-794.00247	105.35459
24250.00000	105.08926	-793.93119	105.08926
24300.00000	105.48640	-796.70229	105.48640
24350.00000	105.48968	-799.23033	105.48968
24400.00000	105.51107	-802.29948	105.51107
24450.00000	105.32152	-803.83561	105.32152
24500.00000	105.91430	-805.44194	105.91430
24550.00000	105.71943	-810.13428	105.71943
24600.00000	106.24322	-451.57354	106.24322
24650.00000	105.96255	-95.95190	105.96255
24700.00000	105.98179	263.93714	105.98179
24750.00000	106.08274	618.68668	106.08274
24800.00000	106.05507	976.03707	106.05507
24850.00000	105.77492	1334.99579	105.77492
24900.00000	105.95075	1692.82927	105.95075
24950.00000	105.96072	2048.06492	105.96072
25000.00000	106.07862	2040.65757	106.07862
25050.00000	106.03943	2040.44164	106.03943
25100.00000	105.71267	2037.06454	105.71267
25150.00000	105.98908	2035.52143	105.98908
25200.00000	105.69778	2031.53242	105.69778
25250.00000	105.81530	2030.22630	105.81530
25300.00000	105.74939	2028.01244	105.74939
25350.00000	105.60342	2021.67884	105.60342
25400.00000	105.63575	2017.66809	105.63575
25450.00000	105.53790	2015.59493	105.53790
25500.00000	105.28892	2013.49295	105.28892
25550.00000	105.14421	2009.50721	105.14421
25600.00000	105.16881	2007.04120	105.16881
25650.00000	104.99225	2005.23974	104.99225
25700.00000	104.98369	2002.42529	104.98369
25750.00000	104.71194	1998.97318	104.71194
25800.00000	104.52447	1995.40225	104.52447
25850.00000	104.39489	1992.87097	104.39489
25900.00000	104.30817	1989.10082	104.30817
25950.00000	104.09335	1990.72642	104.09335
26000.00000	103.98363	1985.17309	103.98363
26050.00000	103.93114	1982.86928	103.93114
26100.00000	103.73275	1980.41851	103.73275
26150.00000	103.70030	1978.11152	103.70030
26200.00000	103.62944	1975.29129	103.62944
26250.00000	103.49796	1972.84118	103.49796
26300.00000	103.40028	1968.88655	103.40028
26350.00000	102.90933	1968.13181	102.90933
26400.00000	102.89923	1965.09327	102.89923
26450.00000	102.89779	1962.35971	102.89779
26500.00000	102.72405	1959.04733	102.72405
26550.00000	102.51079	1954.01248	102.51079
26600.00000	102.34882	1951.36491	102.34882
26650.00000	102.36533	1951.63501	102.36533
26700.00000	102.15648	1948.03074	102.15648
26750.00000	101.79728	1945.14080	101.79728
26800.00000	101.64507	1939.98382	101.64507
26850.00000	101.75020	1939.35670	101.75020
26900.00000	101.58276	1937.20624	101.58276
26950.00000	101.39157	1933.17163	101.39157
27000.00000	100.75632	1931.95414	100.75632
27050.00000	101.03451	1930.82898	101.03451
27100.00000	100.32253	1928.73932	100.32253
27150.00000	100.28602	1925.12755	100.28602
27200.00000	100.14326	1923.38500	100.14326
27250.00000	99.51431	1922.14089	99.51431
27300.00000	99.08406	1920.34381	99.08406
27350.00000	98.99328	1921.45670	98.99328
27400.00000	98.49689	1918.10716	98.49689
27450.00000	98.35120	1916.23051	98.35120
27500.00000	98.04033	1915.75682	98.04033
27550.00000	98.05095	1915.39173	98.05095
27600.00000	98.06982	1913.13774	98.06982
27650.00000	97.21071	1914.67121	97.21071
27700.00000	97.29940	1909.73769	97.29940
27750.00000	97.09950	1910.15865	97.09950
27800.00000	97.14593	1907.77340	97.14593
27850.00000	97.37187	1911.24420	97.37187
27900.00000	96.81743	1910.85365	96.81743
27950.00000	96.45222	1908.77077	96.45222
28000.00000	96.40305	1909.56260	96.40305
28050.00000	96.92578	1908.85089	96.92578
28100.00000	96.39169	1907.73338	96.39169
28150.00000	96.31765	1908.38468	96.31765
28200.00000	96.43516	1905.04622	96.43516
28250.00000	96.18060	1906.13906	96.18060
28300.00000	95.99972	1904.39270	95.99972
28350.00000	96.50500	1906.70517	96.50500
28400.00000	96.21465	1905.51484	96.21465
28450.00000	96.75778	1904.13356	96.75778
28500.00000	96.50837	1904.01822	96.50837
28550.00000	96.19585	1905.29697	96.19585
28600.00000	96.38111	1904.20574	96.38111
28650.00000	96.78109	1899.66667	96.78109
28700.00000	96.71330	1902.33548	96.71330
28750.00000	97.29486	1902.19382	97.29486
28800.00000	97.23291	1900.78620	97.23291
28850.00000	96.73259	1896.21430	96.73259
28900.00000	96.77170	1897.68109	96.77170
28950.00000	96.96515	1897.80160	96.96515
29000.00000	97.27446	1896.69911	97.27446
29050.00000	96.81409	1898.74693	96.81409
29100.00000	96.98035	1897.94826	96.98035
29150.00000	97.09594	1897.25647	97.09594
29200.00000	97.18620	1895.25219	97.18620
29250.00000	97.41285	1895.66249	97.41285
29300.00000	97.22672	1894.26210	97.22672
29350.00000	97.74421	1893.45214	97.74421
29400.00000	97.77165	1893.28839	97.77165
29450.00000	97.64968	1893.21955	97.64968
29500.00000	98.26766	1893.92045	98.26766
29550.00000	98.22932	1890.21307	98.22932
29600.00000	98.13105	1890.78775	98.13105
29650.00000	98.49664	1888.92284	98.49664
29700.00000	98.60569	1890.92185	98.60569
29750.00000	98.69299	1890.42345	98.69299
29800.00000	98.54078	1888.54222	98.54078
29850.00000	99.09111	1886.60770	99.09111
29900.00000	99.46745	1887.89975	99.46745
29950.00000	98.98437	1887.06194	98.98437
30000.00000	99.53992	1887.63686	99.53992
30050.00000	99.90545	1885.31999	99.90545
30100.00000	99.63129	1886.45407	99.63129
30150.00000	100.14563	1883.14598	100.14563
30200.00000	100.21979	1881.97824	100.21979
30250.00000	100.16273	1881.82658	100.16273
30300.00000	100.21124	1882.33693	100.21124
30350.00000	100.51205	1882.38568	100.51205
30400.00000	100.65263	1880.13043	100.65263
30450.00000	100.43994	1879.64451	100.43994
30500.00000	100.62701	1878.91377	100.62701
30550.00000	100.73764	1879.84345	100.73764
30600.00000	100.86857	1880.16780	100.86857
30650.00000	100.97514	1879.45143	100.97514
30700.00000	101.19606	1879.08781	101.19606
30750.00000	101.11355	1880.59107	101.11355
30800.00000	101.39970	1880.41521	101.39970
30850.00000	101.75289	1881.88700	101.75289
30900.00000	101.71638	1883.39110	101.71638
30950.00000	102.23001	1882.78073	102.23001
31000.00000	102.57958	1882.44778	102.57958
31050.00000	102.92576	1883.40713	102.92576
31100.00000	103.47060	1884.13396	103.47060
31150.00000	103.57835	1883.64534	103.57835
31200.00000	104.38085	1882.97007	104.38085
31250.00000	104.74365	1882.70842	104.74365
31300.00000	105.25768	1881.36768	105.25768
31350.00000	105.88055	1880.20516	105.88055
31400.00000	106.22906	1877.88881	106.22906
31450.00000	106.73523	1876.16819	106.73523
31500.00000	107.16832	1873.09703	107.16832
31550.00000	107.68140	1871.51144	107.68140
31600.00000	108.26467	1867.46491	108.26467
31650.00000	108.56060	1864.82086	108.56060
31700.00000	108.98896	1862.10021	108.98896
31750.00000	109.43244	1859.78509	109.43244
31800.00000	109.74435	1855.70393	109.74435
31850.00000	110.05988	1851.63467	110.05988
31900.00000	110.20736	1848.30030	110.20736
31950.00000	110.57787	1844.61666	110.57787
32000.00000	110.85271	1841.20944	110.85271
32050.00000	111.07950	1837.28875	111.07950
32100.00000	111.23264	1833.17558	111.23264
32150.00000	111.47094	1830.47115	111.47094
32200.00000	111.67435	1826.25439	111.67435
32250.00000	111.82007	1821.98935	111.82007
32300.00000	111.93078	1818.86149	111.93078
32350.00000	112.02264	1815.55203	112.02264
32400.00000	112.25066	1811.89427	112.25066
32450.00000	112.35004	1807.83631	112.35004
32500.00000	112.46369	1805.04640	112.46369
32550.00000	112.65912	1800.50857	112.65912
32600.00000	112.70745	1797.62471	112.70745
32650.00000	112.90332	1793.92884	112.90332
32700.00000	112.85288	1789.97537	112.85288
32750.00000	112.97237	1786.08853	112.97237
32800.00000	113.15714	1783.04357	113.15714
32850.00000	113.31828	1779.34144	113.31828
32900.00000	113.36147	1775.28533	113.36147
32950.00000	113.30284	1770.63325	113.30284
33000.00000	113.40056	1768.94667	113.40056
33050.00000	113.46943	1764.08318	113.46943
33100.00000	113.61781	1760.61798	113.61781
33150.00000	113.65445	1757.24779	113.65445
33200.00000	113.91436	1754.58335	113.91436
33250.00000	113.83676	1750.83948	113.83676
33300.00000	113.88771	1746.35927	113.88771
33350.00000	113.89615	1742.49282	113.89615
33400.00000	113.90930	1739.51460	113.90930
33450.00000	113.98224	1735.01894	113.98224
33500.00000	114.21694	1732.77777	114.21694
33550.00000	113.94733	1727.50836	113.94733
33600.00000	114.21075	1724.35568	114.21075
33650.00000	114.18522	1720.27695	114.18522
33700.00000	114.14675	1716.71589	114.14675
33750.00000	114.07032	1713.05357	114.07032
33800.00000	114.21552	1709.03970	114.21552
33850.00000	113.90487	1705.93127	113.90487
33900.00000	114.09435	1701.85375	114.09435
33950.00000	114.04967	1698.69725	114.04967
34000.00000	114.07811	1694.10988	114.07811
34050.00000	113.95927	1690.84411	113.95927
34100.00000	113.78955	1688.23056	113.78955
34150.00000	113.88037	1683.90056	113.88037
34200.00000	113.73336	1682.53280	113.73336
34250.00000	113.72176	1677.95786	113.72176
34300.00000	113.54466	1674.71250	113.54466
34350.00000	113.61702	1671.17174	113.61702
34400.00000	113.22033	1669.94760	113.22033
34450.00000	113.38570	1664.72546	113.38570
34500.00000	113.24651	1661.51750	113.24651
34550.00000	113.09607	1658.95368	113.09607
34600.00000	112.75471	1655.19096	112.75471
34650.00000	112.95261	1654.95050	112.95261
34700.00000	112.37615	1653.28839	112.37615
34750.00000	112.48935	1647.92394	112.48935
34800.00000	112.52142	1648.56816	112.52142
34850.00000	112.65120	1647.59157	112.65120
34900.00000	112.68589	1643.46426	112.68589
34950.00000	112.50743	1643.43904	112.50743
35000.00000	112.38717	1640.54938	112.38717
35050.00000	112.60010	1639.40219	112.60010
35100.00000	112.69867	1636.46358	112.69867
35150.00000	112.46837	1636.19783	112.46837
35200.00000	112.40829	1632.27650	112.40829
35250.00000	112.56607	1630.24814	112.56607
35300.00000	112.66108	1628.05192	112.66108
35350.00000	112.75461	1625.82380	112.75461
35400.00000	112.71921	1623.77478	112.71921
35450.00000	112.74815	1622.87235	112.74815
35500.00000	112.55476	1620.93072	112.55476
35550.00000	112.92005	1620.06646	112.92005
35600.00000	112.95360	1617.48908	112.95360
35650.00000	113.14433	1614.92112	113.14433
35700.00000	113.14103	1612.98407	113.14103
35750.00000	113.12496	1611.36123	113.12496
35800.00000	113.25242	1611.20433	113.25242
35850.00000	113.59078	1607.94472	113.59078
35900.00000	113.68137	1605.26628	113.68137
35950.00000	113.95882	1603.56215	113.95882
36000.00000	114.00241	1601.47049	114.00241
36050.00000	114.17427	1598.84442	114.17427
36100.00000	114.31550	1596.15843	114.31550
36150.00000	114.37936	1594.22287	114.37936
36200.00000	114.42401	1592.22895	114.42401
36250.00000	114.48081	1589.62440	114.48081
36300.00000	114.47420	1587.64619	114.47420
36350.00000	114.70996	1585.14978	114.70996
36400.00000	114.88025	1582.87783	114.88025
36450.00000	114.66542	1580.58687	114.66542
36500.00000	115.02681	1578.86685	115.02681
36550.00000	114.99043	1575.79801	114.99043
36600.00000	115.06075	1573.78698	115.06075
36650.00000	115.12381	1572.00512	115.12381
36700.00000	115.28441	1569.60716	115.28441
36750.00000	115.41239	1566.64159	115.41239
36800.00000	115.44057	1564.95968	115.44057
36850.00000	115.33568	1562.10526	115.33568
36900.00000	115.43498	1560.42107	115.43498
36950.00000	115.44560	1558.13179	115.44560
37000.00000	115.14135	1556.12184	115.14135
37050.00000	115.18196	1554.98794	115.18196
37100.00000	115.35206	1552.72135	115.35206
37150.00000	115.47020	1550.98207	115.47020
37200.00000	115.79924	1550.59532	115.79924
37250.00000	115.45908	1548.50602	115.45908
37300.00000	115.60706	1546.30467	115.60706
37350.00000	115.99562	1545.25625	115.99562
37400.00000	115.84698	1544.14537	115.84698
37450.00000	115.84243	1542.52546	115.84243
37500.00000	116.33458	1539.63857	116.33458
37550.00000	116.14357	1538.49780	116.14357
37600.00000	116.28639	1536.91150	116.28639
37650.00000	116.52690	1536.42586	116.52690
37700.00000	116.60980	1533.43353	116.60980
37750.00000	116.91575	1532.62781	116.91575
37800.00000	116.97452	1529.66690	116.97452
37850.00000	117.21105	1526.27599	117.21105
37900.00000	117.44526	1524.48279	117.44526
37950.00000	117.72291	1522.72016	117.72291
38000.00000	117.69805	1520.35146	117.69805
38050.00000	118.06185	1517.34380	118.06185
38100.00000	118.29424	1513.98536	118.29424
38150.00000	118.39011	1510.49706	118.39011
38200.00000	118.67185	1506.93282	118.67185
38250.00000	118.79645	1504.45614	118.79645
38300.00000	119.08304	1499.99637	119.08304
38350.00000	119.11173	1497.73339	119.11173
38400.00000	119.32978	1493.36990	119.32978
38450.00000	119.44338	1488.65270	119.44338
38500.00000	119.63023	1484.77827	119.63023
38550.00000	119.80917	1481.63380	119.80917
38600.00000	119.86398	1477.42401	119.86398
38650.00000	120.02211	1472.66479	120.02211
38700.00000	120.00046	1468.52066	120.00046
38750.00000	120.12556	1464.72095	120.12556
38800.00000	120.20899	1460.42238	120.20899
38850.00000	120.22982	1455.69980	120.22982
38900.00000	120.31446	1451.60713	120.31446
38950.00000	120.36976	1446.70972	120.36976
39000.00000	120.37223	1442.23087	120.37223
39050.00000	120.44534	1437.71692	120.44534
39100.00000	120.33345	1433.31450	120.33345
39150.00000	120.30468	1428.55063	120.30468
39200.00000	120.31849	1424.10714	120.31849
39250.00000	120.28285	1419.13499	120.28285
39300.00000	120.18880	1414.48464	120.18880
39350.00000	120.12195	1410.12768	120.12195
39400.00000	120.03466	1405.17971	120.03466
39450.00000	119.88762	1400.72318	119.88762
39500.00000	119.77972	1395.91417	119.77972
39550.00000	119.60036	1391.06856	119.60036
39600.00000	119.36545	1386.66363	119.36545
39650.00000	119.22392	1382.95125	119.22392
39700.00000	118.94813	1378.62581	118.94813
39750.00000	118.80781	1374.01875	118.80781
39800.00000	118.54157	1370.10873	118.54157
39850.00000	118.24573	1366.27568	118.24573
39900.00000	118.00719	1362.17618	118.00719
39950.00000	117.76638	1358.68985	117.76638
40000.00000	117.34925	1356.25046	117.34925
40050.00000	117.19887	1351.78840	117.19887
40100.00000	116.95708	1348.50628	116.95708
40150.00000	116.60873	1345.25455	116.60873
40200.00000	116.34453	1341.74635	116.34453
40250.00000	116.10442	1339.47333	116.10442
40300.00000	115.85800	1336.66396	115.85800
40350.00000	115.39945	1334.25008	115.39945
40400.00000	115.03952	1331.85490	115.03952
40450.00000	114.82668	1329.96625	114.82668
40500.00000	114.73807	1328.28387	114.73807
40550.00000	114.41031	1325.66983	114.41031
40600.00000	114.14654	1323.96348	114.14654
40650.00000	113.85549	1322.33523	113.85549
40700.00000	113.52631	1321.93876	113.52631
40750.00000	113.53114	1320.07030	113.53114
40800.00000	113.25404	1318.12493	113.25404
40850.00000	113.08745	1317.75875	113.08745
40900.00000	112.82921	1316.46714	112.82921
40950.00000	112.55834	1316.51318	112.55834
41000.00000	112.28615	1315.55425	112.28615
41050.00000	112.27841	1315.23391	112.27841
41100.00000	112.25077	1313.29933	112.25077
41150.00000	112.35376	1314.91361	112.35376
41200.00000	112.19510	1313.62664	112.19510
41250.00000	112.06736	1311.83532	112.06736
41300.00000	111.83359	1313.47754	111.83359
41350.00000	112.03500	1314.20088	112.03500
41400.00000	112.00431	1309.29086	112.00431
41450.00000	112.23043	1311.47042	112.23043
41500.00000	112.10774	1311.12329	112.10774
41550.00000	111.96738	1314.33356	111.96738
41600.00000	111.75664	1312.34610	111.75664
41650.00000	112.34642	1310.61636	112.34642
41700.00000	112.41665	1311.93883	112.41665
41750.00000	112.28502	1315.03529	112.28502
41800.00000	111.60173	1310.41835	111.60173
41850.00000	111.71786	1311.89464	111.71786
41900.00000	111.78976	1311.24069	111.78976
41950.00000	113.16052	1317.14878	113.16052
42000.00000	112.27872	1309.98249	112.27872
42050.00000	111.50378	1309.68333	111.50378
42100.00000	112.31348	1309.93787	112.31348
42150.00000	111.64600	1305.52191	111.64600
42200.00000	111.84606	1312.53303	111.84606
42250.00000	112.12427	1310.66334	112.12427
42300.00000	111.08512	1307.88798	111.08512
42350.00000	111.70858	1307.80326	111.70858
42400.00000	111.62739	1309.16989	111.62739
42450.00000	112.26576	1303.81261	112.26576
42500.00000	111.66771	1303.22408	111.66771
42550.00000	111.91131	1315.59025	111.91131
42600.00000	111.83868	1305.70719	111.83868
42650.00000	111.48841	1306.78233	111.48841
42700.00000	111.16195	1303.18076	111.16195
42750.00000	112.25417	1301.57607	112.25417
42800.00000	111.70368	1295.00545	111.70368
42850.00000	111.41888	1293.86779	111.41888
42900.00000	112.52247	1296.91437	112.52247
42950.00000	111.63602	1292.28047	111.63602
43000.00000	112.23011	1281.92332	112.23011
43050.00000	111.58592	1280.55549	111.58592
43100.00000	111.96136	1284.48151	111.96136
43150.00000	110.98872	1278.59319	110.98872
43200.00000	111.49559	1274.56961	111.49559
43250.00000	111.52099	1271.83155	111.52099
43300.00000	111.66216	1267.92801	111.66216
43350.00000	112.13861	1264.46905	112.13861
43400.00000	111.29916	1261.93745	111.29916
43450.00000	112.28198	1259.85694	112.28198
43500.00000	110.55955	1250.25390	110.55955
43550.00000	111.59026	1248.44231	111.59026
43600.00000	111.06018	1242.75490	111.06018
43650.00000	111.52508	1233.33080	111.52508
43700.00000	111.27838	1234.22922	111.27838
43750.00000	110.60748	1232.55426	110.60748
43800.00000	110.88067	1223.98648	110.88067
43850.00000	111.31178	1219.72858	111.31178
43900.00000	111.49582	1217.17503	111.49582
43950.00000	111.62585	1212.25136	111.62585
44000.00000	110.89708	1205.80805	110.89708
44050.00000	111.10552	1202.15772	111.10552
44100.00000	111.21687	1189.35073	111.21687
44150.00000	110.74568	1190.58718	110.74568
44200.00000	110.50412	1190.33968	110.50412
44250.00000	110.96496	1182.15038	110.96496
44300.00000	111.16178	1173.79193	111.16178
44350.00000	109.79561	1170.00550	109.79561
44400.00000	110.71921	1167.52527	110.71921
44450.00000	110.85834	1163.17213	110.85834
44500.00000	110.11202	1159.35256	110.11202
44550.00000	111.60395	1148.10910	111.60395
44600.00000	110.29087	1150.44715	110.29087
44650.00000	109.71391	1140.39974	109.71391
44700.00000	109.80404	1136.04441	109.80404
44750.00000	109.68006	1136.87820	109.68006
44800.00000	110.32201	1127.04780	110.32201
44850.00000	109.62659	1121.15659	109.62659
44900.00000	109.09287	1119.96573	109.09287
44950.00000	109.55309	1113.17930	109.55309
45000.00000	109.29012	1105.25701	109.29012
45050.00000	107.99777	1108.56569	107.99777
45100.00000	108.34276	1102.15306	108.34276
45150.00000	107.97364	1089.08238	107.97364
45200.00000	107.47802	1093.72599	107.47802
45250.00000	107.47844	1085.71054	107.47844
45300.00000	106.94812	1079.47584	106.94812
45350.00000	106.76927	1074.87044	106.76927
45400.00000	106.49674	1074.17225	106.49674
45450.00000	106.57922	1068.30198	106.57922
45500.00000	104.68138	1058.39077	104.68138
45550.00000	104.87915	1063.60590	104.87915
45600.00000	105.64561	1054.13376	105.64561
45650.00000	103.92993	1045.70392	103.92993
45700.00000	103.87370	1044.49218	103.87370
45750.00000	104.38614	1044.52674	104.38614
45800.00000	102.93365	1039.12643	102.93365
45850.00000	102.37425	1039.02690	102.37425
45900.00000	102.22096	1035.36010	102.22096
45950.00000	101.42588	1035.39931	101.42588
46000.00000	99.57454	1015.45985	99.57454
46050.00000	100.21922	1017.70026	100.21922
46100.00000	99.22983	1023.77422	99.22983
46150.00000	99.21445	1023.48802	99.21445
46200.00000	96.29865	1012.73731	96.29865
46250.00000	97.47991	1012.81405	97.47991
46300.00000	96.26820	1012.14909	96.26820
46350.00000	97.59456	1010.74799	97.59456
46400.00000	95.56593	1009.18135	95.56593
46450.00000	93.83809	1006.52568	93.83809
46500.00000	94.60616	1009.34802	94.60616
46550.00000	93.73225	1014.84360	93.73225
46600.00000	94.42853	1019.00701	94.42853
46650.00000	91.05533	1014.39426	91.05533
46700.00000	91.51193	1021.32646	91.51193
46750.00000	92.02304	1026.02487	92.02304
46800.00000	89.48498	1021.81328	89.48498
46850.00000	92.17097	679.75420	92.17097
46900.00000	91.81760	667.80629	91.81760
46950.00000	92.72394	667.36867	92.72394
47000.00000	92.20245	673.84583	92.20245
47050.00000	94.13805	663.51833	94.13805
47100.00000	92.58246	663.07427	92.58246
47150.00000	93.73985	665.51322	93.73985
47200.00000	92.68810	667.99447	92.68810
47250.00000	94.51431	663.84199	94.51431
47300.00000	93.92287	657.43008	93.92287
47350.00000	93.39654	306.97534	93.39654
47400.00000	93.41212	305.90921	93.41212
47450.00000	94.71885	305.00519	94.71885
47500.00000	92.48042	287.41336	92.48042
47550.00000	93.55463	-58.59674	93.55463
47600.00000	93.05955	-67.09978	93.05955
47650.00000	94.20203	-70.93716	94.20203
47700.00000	93.53504	-73.37210	93.53504
47750.00000	90.86028	-70.93556	90.86028
47800.00000	92.10260	-79.32869	92.10260
47850.00000	93.08916	-433.98628	93.08916
47900.00000	92.54023	-788.46445	92.54023
47950.00000	91.76984	-795.14325	91.76984
48000.00000	91.58375	-782.86258	91.58375
48050.00000	92.08001	-796.93461	92.08001
48100.00000	91.81540	-797.67450	91.81540
48150.00000	92.51127	-1145.27294	92.51127
48200.00000	92.46330	-1156.45597	92.46330
48250.00000	91.44027	-1161.63963	91.44027
48300.00000	92.42039	-1158.61029	92.42039
48350.00000	92.81825	-1167.29476	92.81825
48400.00000	93.39485	-1514.10447	93.39485
48450.00000	92.49953	-1522.88109	92.49953
48500.00000	93.23948	-1520.48336	93.23948
48550.00000	91.70409	-1529.80532	91.70409
48600.00000	93.81045	-1884.93841	93.81045
48650.00000	93.29621	-1887.37215	93.29621
48700.00000	93.55566	-1895.62835	93.55566
48750.00000	91.57705	-2235.70220	91.57705
48800.00000	93.45031	-2256.32556	93.45031
48850.00000	93.67035	-2260.93252	93.67035
48900.00000	92.47611	-2607.72641	92.47611
48950.00000	93.27782	-2629.39018	93.27782
49000.00000	92.85711	-2631.48056	92.85711
49050.00000	92.33796	-2639.74373	92.33796
49100.00000	92.55919	-2999.20003	92.55919
49150.00000	93.52716	-3351.37333	93.52716
49200.00000	92.96455	-3366.71274	92.96455
49250.00000	91.38470	-3720.68928	91.38470
49300.00000	92.40604	-3374.64634	92.40604
49350.00000	89.70064	-3360.14770	89.70064
49400.00000	90.05696	-3002.72391	90.05696
49450.00000	88.88796	-2639.43858	88.88796
49500.00000	90.37504	-2316.33738	90.37504
49550.00000	91.81114	-1966.85377	91.81114
49600.00000	88.25734	-1948.61414	88.25734
49650.00000	88.59186	-1939.16111	88.59186
49700.00000	87.46587	-1589.13662	87.46587
49750.00000	88.63115	-1595.92157	88.63115
49800.00000	83.81864	-1590.02698	83.81864
49850.00000	82.33565	-1543.65529	82.33565
49900.00000	75.44120	-1236.70497	75.44120
49950.00000	78.20720	-872.77725	78.20720
