---ACOUSTIC CALIBRATION---
Filename: C:\Data\AZH DATA\AZH51\RightPrimary.calib
Date: 8/27/2019 11:16:22 AM
Format: 4
Probe Tube Correction File: C:\Data\Probe Tube Calibrations\50_ProbeTube.calib
Experiment VIs: 850
EPL_CFTS.exe V12.0.1 (2012)
DAQmx V9.6

Attenuation (dB): 40.000000
Min Freq (Hz): 50.000000
Max Freq (Hz): 49950.000000
Freq Step (Hz): 50.000000
Sample Rate (Hz): 100000.000000
[Smoothing]
Method=None
MA.Iterations=0
MA.Length=0
Loess.Length=0
Loess.Type=Linear
Loess.Robust=FALSE


Freq(Hz)	Mag(dB)	Phase(deg)	Unsmoothed(dB)

50.00000	103.89403	421.43447	103.89403
100.00000	87.23752	568.78244	87.23752
150.00000	81.16479	480.67555	81.16479
200.00000	79.88166	460.69313	79.88166
250.00000	92.08422	435.04222	92.08422
300.00000	88.29719	388.82805	88.29719
350.00000	88.48549	362.01902	88.48549
400.00000	90.55559	361.65489	90.55559
450.00000	89.90104	343.17213	89.90104
500.00000	91.71584	363.67381	91.71584
550.00000	94.52298	355.59191	94.52298
600.00000	96.90989	350.50666	96.90989
650.00000	99.25879	335.44857	99.25879
700.00000	101.94315	323.14862	101.94315
750.00000	103.20973	306.80556	103.20973
800.00000	103.74366	284.25021	103.74366
850.00000	103.38708	266.60012	103.38708
900.00000	101.63563	249.65057	101.63563
950.00000	99.80290	250.02879	99.80290
1000.00000	98.30037	251.46333	98.30037
1050.00000	96.77587	269.11669	96.77587
1100.00000	98.45967	287.16695	98.45967
1150.00000	101.30113	293.77639	101.30113
1200.00000	103.92567	293.23946	103.92567
1250.00000	105.68398	284.90291	105.68398
1300.00000	107.26330	279.95380	107.26330
1350.00000	108.71579	270.65284	108.71579
1400.00000	109.59881	263.30285	109.59881
1450.00000	110.66834	256.90882	110.66834
1500.00000	111.73921	250.06997	111.73921
1550.00000	112.57374	241.70451	112.57374
1600.00000	114.19663	231.86463	114.19663
1650.00000	115.06166	215.40694	115.06166
1700.00000	113.89973	204.97861	113.89973
1750.00000	113.58271	199.63403	113.58271
1800.00000	113.39522	195.69135	113.39522
1850.00000	113.64730	193.96786	113.64730
1900.00000	114.76714	189.24720	114.76714
1950.00000	115.38451	175.28907	115.38451
2000.00000	114.28595	163.26664	114.28595
2050.00000	112.96163	168.18985	112.96163
2100.00000	114.75761	168.76850	114.75761
2150.00000	115.44777	156.90330	115.44777
2200.00000	115.30395	147.11585	115.30395
2250.00000	114.70486	139.91926	114.70486
2300.00000	114.73524	134.48686	114.73524
2350.00000	114.44989	128.16288	114.44989
2400.00000	114.12268	122.50721	114.12268
2450.00000	113.64648	115.94471	113.64648
2500.00000	113.30146	111.26526	113.30146
2550.00000	112.80941	106.50851	112.80941
2600.00000	112.30486	102.68684	112.30486
2650.00000	111.70435	98.90391	111.70435
2700.00000	111.13522	95.27082	111.13522
2750.00000	110.34233	92.40981	110.34233
2800.00000	109.56054	89.96980	109.56054
2850.00000	108.70007	88.97253	108.70007
2900.00000	107.75200	88.80898	107.75200
2950.00000	106.76250	90.40376	106.76250
3000.00000	105.76070	93.86145	105.76070
3050.00000	104.71276	100.72661	104.71276
3100.00000	104.02357	111.94750	104.02357
3150.00000	104.22618	124.08440	104.22618
3200.00000	105.29643	137.64456	105.29643
3250.00000	107.09331	144.00975	107.09331
3300.00000	108.83981	148.53115	108.83981
3350.00000	110.73581	153.69522	110.73581
3400.00000	112.26882	152.27871	112.26882
3450.00000	114.28290	150.26520	114.28290
3500.00000	116.23675	144.59021	116.23675
3550.00000	117.67175	136.92689	117.67175
3600.00000	118.96589	129.40348	118.96589
3650.00000	120.01367	120.73841	120.01367
3700.00000	120.86055	112.23881	120.86055
3750.00000	121.56551	103.55553	121.56551
3800.00000	122.04765	94.78877	122.04765
3850.00000	122.36167	87.11392	122.36167
3900.00000	122.70069	80.66996	122.70069
3950.00000	123.14862	74.21345	123.14862
4000.00000	123.61411	67.41722	123.61411
4050.00000	124.08150	60.40110	124.08150
4100.00000	124.55641	52.92878	124.55641
4150.00000	125.15978	44.64039	125.15978
4200.00000	125.41751	35.22680	125.41751
4250.00000	125.61731	25.52930	125.61731
4300.00000	125.64916	15.72169	125.64916
4350.00000	125.49823	 6.19337	125.49823
4400.00000	125.24266	-2.61295	125.24266
4450.00000	124.90774	-10.80559	124.90774
4500.00000	124.55852	-18.44497	124.55852
4550.00000	124.20518	-26.01385	124.20518
4600.00000	123.79020	-33.30249	123.79020
4650.00000	123.42466	-40.48544	123.42466
4700.00000	122.96211	-48.12867	122.96211
4750.00000	122.31563	-55.98090	122.31563
4800.00000	121.48138	-63.52835	121.48138
4850.00000	120.42488	-69.77498	120.42488
4900.00000	119.23611	-74.07043	119.23611
4950.00000	118.11242	-75.84692	118.11242
5000.00000	117.10833	-76.24102	117.10833
5050.00000	116.31503	-76.17071	116.31503
5100.00000	115.46555	-72.74482	115.46555
5150.00000	115.68451	-69.05108	115.68451
5200.00000	115.82507	-66.73348	115.82507
5250.00000	116.94498	-69.86393	116.94498
5300.00000	116.84565	-78.28464	116.84565
5350.00000	116.28082	-82.67982	116.28082
5400.00000	115.76680	-84.86397	115.76680
5450.00000	115.47535	-86.18006	115.47535
5500.00000	115.22760	-87.65912	115.22760
5550.00000	115.06375	-88.77584	115.06375
5600.00000	114.92257	-90.46063	114.92257
5650.00000	114.84267	-91.67395	114.84267
5700.00000	114.78621	-93.29530	114.78621
5750.00000	114.81369	-94.80233	114.81369
5800.00000	114.89282	-96.60215	114.89282
5850.00000	114.99211	-99.11352	114.99211
5900.00000	115.07948	-101.73487	115.07948
5950.00000	115.13655	-105.08668	115.13655
6000.00000	115.10461	-108.12224	115.10461
6050.00000	115.05532	-111.31316	115.05532
6100.00000	115.00158	-114.27806	115.00158
6150.00000	114.91783	-117.17898	114.91783
6200.00000	114.82089	-120.00981	114.82089
6250.00000	114.79307	-122.66772	114.79307
6300.00000	114.71329	-125.81316	114.71329
6350.00000	114.63975	-128.52534	114.63975
6400.00000	114.54780	-131.23313	114.54780
6450.00000	114.51170	-134.04743	114.51170
6500.00000	114.44432	-136.90809	114.44432
6550.00000	114.37296	-139.64250	114.37296
6600.00000	114.32042	-142.31851	114.32042
6650.00000	114.27456	-145.10577	114.27456
6700.00000	114.24182	-148.00949	114.24182
6750.00000	114.22459	-150.86576	114.22459
6800.00000	114.22384	-153.78504	114.22384
6850.00000	114.21349	-156.71293	114.21349
6900.00000	114.20396	-159.63577	114.20396
6950.00000	114.18308	-162.71384	114.18308
7000.00000	114.20432	-165.87232	114.20432
7050.00000	114.18185	-169.27055	114.18185
7100.00000	114.18789	-172.73088	114.18789
7150.00000	114.17886	-176.20731	114.17886
7200.00000	114.18669	-179.79502	114.18669
7250.00000	114.07216	-183.67182	114.07216
7300.00000	114.06568	-187.56561	114.06568
7350.00000	113.97746	-191.46829	113.97746
7400.00000	113.91602	-195.72775	113.91602
7450.00000	113.77861	-199.90518	113.77861
7500.00000	113.66664	-204.31473	113.66664
7550.00000	113.49926	-208.56922	113.49926
7600.00000	113.29095	-212.75465	113.29095
7650.00000	113.06288	-217.03986	113.06288
7700.00000	112.84173	-221.31078	112.84173
7750.00000	112.54337	-225.50433	112.54337
7800.00000	112.22299	-229.64461	112.22299
7850.00000	111.90561	-233.61016	111.90561
7900.00000	111.56939	-237.18626	111.56939
7950.00000	111.23832	-240.96786	111.23832
8000.00000	110.86888	-244.43963	110.86888
8050.00000	110.52363	-248.02284	110.52363
8100.00000	110.16914	-250.61299	110.16914
8150.00000	109.73266	-253.41436	109.73266
8200.00000	109.36364	-255.83059	109.36364
8250.00000	108.92138	-258.49095	108.92138
8300.00000	108.52973	-260.77925	108.52973
8350.00000	108.06425	-262.85405	108.06425
8400.00000	107.62086	-265.27620	107.62086
8450.00000	107.10241	-267.85077	107.10241
8500.00000	106.65306	-270.23655	106.65306
8550.00000	106.24215	-272.31779	106.24215
8600.00000	105.86093	-275.15261	105.86093
8650.00000	105.46929	-277.31048	105.46929
8700.00000	105.13093	-279.99104	105.13093
8750.00000	104.85231	-280.91107	104.85231
8800.00000	104.57349	-283.01008	104.57349
8850.00000	104.29011	-284.20920	104.29011
8900.00000	104.03022	-284.40815	104.03022
8950.00000	103.71332	-286.04335	103.71332
9000.00000	103.30236	-286.17509	103.30236
9050.00000	102.95002	-287.75050	102.95002
9100.00000	102.51320	-288.86950	102.51320
9150.00000	102.06897	-290.47450	102.06897
9200.00000	101.71831	-292.23545	101.71831
9250.00000	101.38623	-294.30414	101.38623
9300.00000	101.14803	-297.31467	101.14803
9350.00000	101.00902	-298.16580	101.00902
9400.00000	100.88158	-298.58302	100.88158
9450.00000	100.82523	-299.71054	100.82523
9500.00000	100.74914	-299.02267	100.74914
9550.00000	100.77612	-298.34708	100.77612
9600.00000	100.78312	-298.96402	100.78312
9650.00000	100.54376	-299.72377	100.54376
9700.00000	100.26523	-299.54681	100.26523
9750.00000	100.06672	-301.08886	100.06672
9800.00000	99.77303	-302.16181	99.77303
9850.00000	99.56735	-303.44830	99.56735
9900.00000	99.26602	-305.57356	99.26602
9950.00000	99.22138	-306.86750	99.22138
10000.00000	99.18550	-308.89776	99.18550
10050.00000	99.15964	-309.92709	99.15964
10100.00000	99.12384	-310.43104	99.12384
10150.00000	98.98610	-311.66843	98.98610
10200.00000	98.86864	-311.91187	98.86864
10250.00000	98.63316	-313.02535	98.63316
10300.00000	98.56331	-314.28523	98.56331
10350.00000	98.33498	-315.67515	98.33498
10400.00000	98.11570	-317.76741	98.11570
10450.00000	98.11701	-320.20409	98.11701
10500.00000	98.12964	-322.41474	98.12964
10550.00000	98.17613	-324.85061	98.17613
10600.00000	98.19021	-326.09710	98.19021
10650.00000	98.13160	-327.34308	98.13160
10700.00000	98.13153	-329.53397	98.13153
10750.00000	98.08331	-331.17039	98.08331
10800.00000	97.91021	-332.66104	97.91021
10850.00000	97.75001	-335.52161	97.75001
10900.00000	97.61171	-337.82378	97.61171
10950.00000	97.46781	-339.94716	97.46781
11000.00000	97.29585	-342.27318	97.29585
11050.00000	97.02420	-344.69975	97.02420
11100.00000	96.84569	-347.19251	96.84569
11150.00000	96.57948	-349.05150	96.57948
11200.00000	96.39240	-350.70995	96.39240
11250.00000	96.03997	-353.05784	96.03997
11300.00000	95.69667	-355.41209	95.69667
11350.00000	95.34877	-356.71910	95.34877
11400.00000	94.91746	-358.46352	94.91746
11450.00000	94.59343	-360.72206	94.59343
11500.00000	94.39102	-361.59018	94.39102
11550.00000	93.99775	-362.71268	93.99775
11600.00000	93.81179	-363.97012	93.81179
11650.00000	93.42015	-363.74579	93.42015
11700.00000	93.16688	-364.30722	93.16688
11750.00000	92.96017	-365.29833	92.96017
11800.00000	92.71110	-365.97233	92.71110
11850.00000	92.56491	-365.65027	92.56491
11900.00000	92.21088	-366.52489	92.21088
11950.00000	92.01793	-366.27374	92.01793
12000.00000	91.74458	-366.58527	91.74458
12050.00000	91.52979	-366.04380	91.52979
12100.00000	91.27038	-367.40957	91.27038
12150.00000	91.01036	-368.31638	91.01036
12200.00000	90.85018	-368.68995	90.85018
12250.00000	90.82964	-368.94180	90.82964
12300.00000	91.76123	-369.22112	91.76123
12350.00000	90.62857	-369.57413	90.62857
12400.00000	90.40669	-368.45451	90.40669
12450.00000	90.22352	-367.74735	90.22352
12500.00000	89.97262	-368.57603	89.97262
12550.00000	89.83381	-369.30553	89.83381
12600.00000	89.54009	-370.33834	89.54009
12650.00000	89.62418	-370.21292	89.62418
12700.00000	89.47695	-370.52423	89.47695
12750.00000	89.41979	-371.76876	89.41979
12800.00000	89.23705	-370.69442	89.23705
12850.00000	88.68075	-369.96025	88.68075
12900.00000	88.63349	-371.01825	88.63349
12950.00000	88.47358	-370.07487	88.47358
13000.00000	88.12411	-371.80256	88.12411
13050.00000	88.08809	-370.37995	88.08809
13100.00000	88.04974	-370.44729	88.04974
13150.00000	88.09150	-369.28909	88.09150
13200.00000	87.99921	-367.56232	87.99921
13250.00000	87.91617	-367.23318	87.91617
13300.00000	87.72660	-364.27362	87.72660
13350.00000	87.72690	-363.79107	87.72690
13400.00000	87.73580	-363.21920	87.73580
13450.00000	87.64248	-361.72982	87.64248
13500.00000	87.82587	-361.22027	87.82587
13550.00000	87.71637	-360.26490	87.71637
13600.00000	87.66454	-358.27172	87.66454
13650.00000	88.11226	-357.46431	88.11226
13700.00000	87.87571	-356.08564	87.87571
13750.00000	87.77442	-354.32209	87.77442
13800.00000	87.86652	-355.55248	87.86652
13850.00000	87.83918	-356.08246	87.83918
13900.00000	88.10896	-355.84161	88.10896
13950.00000	88.49831	-355.10139	88.49831
14000.00000	88.97095	-352.05704	88.97095
14050.00000	89.13860	-350.60639	89.13860
14100.00000	89.14071	-349.11196	89.14071
14150.00000	89.17191	-348.65671	89.17191
14200.00000	89.42324	-348.57480	89.42324
14250.00000	90.13144	-345.95691	90.13144
14300.00000	90.52732	-345.83534	90.52732
14350.00000	90.85885	-344.15058	90.85885
14400.00000	90.91248	-343.69749	90.91248
14450.00000	91.12104	-341.35992	91.12104
14500.00000	91.42153	-341.81299	91.42153
14550.00000	91.92969	-341.52379	91.92969
14600.00000	92.21239	-342.85316	92.21239
14650.00000	92.91374	-341.04690	92.91374
14700.00000	93.33460	-344.79093	93.33460
14750.00000	93.91843	-344.99300	93.91843
14800.00000	94.28324	-344.26716	94.28324
14850.00000	94.80158	-344.37959	94.80158
14900.00000	95.38959	-345.15594	95.38959
14950.00000	95.80401	-346.73382	95.80401
15000.00000	96.40017	-348.15555	96.40017
15050.00000	96.81725	-348.34345	96.81725
15100.00000	97.33597	-348.82440	97.33597
15150.00000	98.04905	-350.53504	98.04905
15200.00000	98.44475	-350.35207	98.44475
15250.00000	98.73144	-353.24666	98.73144
15300.00000	99.39103	-356.21789	99.39103
15350.00000	99.86167	-359.55246	99.86167
15400.00000	100.28554	-360.72733	100.28554
15450.00000	100.75097	-363.47777	100.75097
15500.00000	101.32793	-365.93794	101.32793
15550.00000	101.77564	-369.07211	101.77564
15600.00000	102.13625	-372.24942	102.13625
15650.00000	102.65960	-373.85164	102.65960
15700.00000	102.88860	-378.35234	102.88860
15750.00000	103.34278	-381.23457	103.34278
15800.00000	103.77700	-383.52712	103.77700
15850.00000	104.07892	-386.64208	104.07892
15900.00000	104.26392	-390.34391	104.26392
15950.00000	104.59679	-393.77183	104.59679
16000.00000	104.88961	-397.10776	104.88961
16050.00000	105.26472	-400.26072	105.26472
16100.00000	105.40180	-403.85356	105.40180
16150.00000	105.61855	-407.04151	105.61855
16200.00000	105.84410	-411.06313	105.84410
16250.00000	106.06285	-414.05204	106.06285
16300.00000	106.43308	-417.60434	106.43308
16350.00000	106.57610	-420.93267	106.57610
16400.00000	106.77395	-424.13435	106.77395
16450.00000	106.96010	-427.09123	106.96010
16500.00000	107.07562	-430.45138	107.07562
16550.00000	107.29918	-434.48069	107.29918
16600.00000	107.46044	-437.62237	107.46044
16650.00000	107.57275	-440.86349	107.57275
16700.00000	107.75934	-443.77730	107.75934
16750.00000	107.78469	-447.49544	107.78469
16800.00000	107.93702	-450.92842	107.93702
16850.00000	108.14017	-454.12747	108.14017
16900.00000	108.27431	-457.56679	108.27431
16950.00000	108.39734	-460.75917	108.39734
17000.00000	108.39084	-464.07366	108.39084
17050.00000	108.54956	-466.60953	108.54956
17100.00000	108.56147	-468.73826	108.56147
17150.00000	108.78025	-472.70560	108.78025
17200.00000	108.88173	-475.69646	108.88173
17250.00000	108.92584	-479.56583	108.92584
17300.00000	109.11183	-482.49417	109.11183
17350.00000	109.06666	-485.35071	109.06666
17400.00000	109.24129	-488.62765	109.24129
17450.00000	109.24831	-492.22417	109.24831
17500.00000	109.37406	-495.38386	109.37406
17550.00000	109.45285	-498.62884	109.45285
17600.00000	109.61533	-501.44463	109.61533
17650.00000	109.66225	-505.48652	109.66225
17700.00000	109.70280	-509.08983	109.70280
17750.00000	109.88917	-511.72124	109.88917
17800.00000	109.82435	-515.77709	109.82435
17850.00000	109.90174	-518.78919	109.90174
17900.00000	109.90039	-522.25207	109.90039
17950.00000	110.00534	-526.05996	110.00534
18000.00000	110.00893	-529.96053	110.00893
18050.00000	110.13835	-532.98291	110.13835
18100.00000	110.06707	-537.10720	110.06707
18150.00000	110.05328	-539.92795	110.05328
18200.00000	109.96190	-544.04508	109.96190
18250.00000	110.00404	-546.85353	110.00404
18300.00000	110.01445	-550.19009	110.01445
18350.00000	109.98169	-553.59184	109.98169
18400.00000	109.86041	-557.29819	109.86041
18450.00000	109.75266	-561.59517	109.75266
18500.00000	109.70746	-564.85135	109.70746
18550.00000	109.62519	-567.60790	109.62519
18600.00000	109.64834	-571.27021	109.64834
18650.00000	109.41066	-574.24852	109.41066
18700.00000	109.30621	-577.77737	109.30621
18750.00000	109.25215	-580.89611	109.25215
18800.00000	109.25709	-583.38466	109.25709
18850.00000	109.03824	-586.67344	109.03824
18900.00000	108.91371	-589.52834	108.91371
18950.00000	108.81487	-593.02272	108.81487
19000.00000	108.56152	-595.40055	108.56152
19050.00000	108.58693	-598.32631	108.58693
19100.00000	108.41922	-600.95200	108.41922
19150.00000	108.44267	-603.50143	108.44267
19200.00000	108.30160	-605.93027	108.30160
19250.00000	108.17208	-609.56382	108.17208
19300.00000	107.99984	-611.56389	107.99984
19350.00000	107.92372	-614.33423	107.92372
19400.00000	107.76894	-616.76231	107.76894
19450.00000	107.76909	-618.84094	107.76909
19500.00000	107.57873	-622.25635	107.57873
19550.00000	107.51440	-624.61031	107.51440
19600.00000	107.48015	-627.67268	107.48015
19650.00000	107.31956	-629.75775	107.31956
19700.00000	107.13290	-632.34389	107.13290
19750.00000	107.01449	-634.43758	107.01449
19800.00000	107.00253	-637.73667	107.00253
19850.00000	106.91313	-639.92034	106.91313
19900.00000	106.77299	-643.15143	106.77299
19950.00000	106.63336	-645.52525	106.63336
20000.00000	106.52578	-648.07369	106.52578
20050.00000	106.42083	-650.51969	106.42083
20100.00000	106.22609	-653.10504	106.22609
20150.00000	106.14743	-654.71598	106.14743
20200.00000	105.97672	-657.90620	105.97672
20250.00000	105.79285	-660.17384	105.79285
20300.00000	105.57301	-662.50224	105.57301
20350.00000	105.49760	-665.05565	105.49760
20400.00000	105.28091	-666.51947	105.28091
20450.00000	105.03722	-668.71694	105.03722
20500.00000	104.92074	-671.07658	104.92074
20550.00000	104.52631	-672.19359	104.52631
20600.00000	104.42249	-673.80636	104.42249
20650.00000	104.25733	-675.40733	104.25733
20700.00000	104.01908	-676.71933	104.01908
20750.00000	103.90897	-678.00507	103.90897
20800.00000	103.71029	-678.73723	103.71029
20850.00000	103.63595	-679.85800	103.63595
20900.00000	103.44139	-680.69489	103.44139
20950.00000	103.34460	-680.95657	103.34460
21000.00000	103.26600	-681.45194	103.26600
21050.00000	103.36730	-681.69160	103.36730
21100.00000	103.34705	-682.06291	103.34705
21150.00000	103.47629	-682.92874	103.47629
21200.00000	103.59824	-683.34752	103.59824
21250.00000	103.69685	-685.43402	103.69685
21300.00000	103.88666	-686.04250	103.88666
21350.00000	104.00613	-687.23562	104.00613
21400.00000	104.12485	-689.39122	104.12485
21450.00000	104.28839	-691.22846	104.28839
21500.00000	104.40989	-693.61116	104.40989
21550.00000	104.41716	-695.41833	104.41716
21600.00000	104.56629	-697.82389	104.56629
21650.00000	104.58624	-700.45559	104.58624
21700.00000	104.63257	-702.30783	104.63257
21750.00000	104.66608	-704.78365	104.66608
21800.00000	104.68479	-707.15855	104.68479
21850.00000	104.61430	-709.40520	104.61430
21900.00000	104.62734	-711.63714	104.62734
21950.00000	104.59746	-713.60415	104.59746
22000.00000	104.62516	-715.54178	104.62516
22050.00000	104.56333	-717.08616	104.56333
22100.00000	104.52462	-719.39203	104.52462
22150.00000	104.50547	-721.10289	104.50547
22200.00000	104.54804	-722.96146	104.54804
22250.00000	104.47160	-724.34148	104.47160
22300.00000	104.37586	-726.23388	104.37586
22350.00000	104.48534	-728.28921	104.48534
22400.00000	104.49353	-730.04761	104.49353
22450.00000	104.42881	-731.71649	104.42881
22500.00000	104.36689	-732.43540	104.36689
22550.00000	104.37834	-734.60303	104.37834
22600.00000	104.36546	-737.08548	104.36546
22650.00000	104.37071	-738.88550	104.37071
22700.00000	104.38715	-740.09284	104.38715
22750.00000	104.35803	-740.43742	104.35803
22800.00000	104.41505	-743.96367	104.41505
22850.00000	104.46003	-746.40546	104.46003
22900.00000	104.43827	-746.82161	104.43827
22950.00000	104.46414	-748.36899	104.46414
23000.00000	104.45504	-749.55959	104.45504
23050.00000	104.46898	-752.36787	104.46898
23100.00000	104.53191	-752.94506	104.53191
23150.00000	104.37386	-753.81153	104.37386
23200.00000	104.54932	-756.81012	104.54932
23250.00000	104.36898	-759.13973	104.36898
23300.00000	104.69219	-761.04897	104.69219
23350.00000	104.38176	-762.80872	104.38176
23400.00000	104.43622	-764.59270	104.43622
23450.00000	104.59667	-766.39506	104.59667
23500.00000	104.46151	-767.34790	104.46151
23550.00000	104.41147	-767.70970	104.41147
23600.00000	104.37081	-770.97698	104.37081
23650.00000	104.45728	-772.34629	104.45728
23700.00000	104.61396	-776.20087	104.61396
23750.00000	104.60785	-776.50380	104.60785
23800.00000	104.38191	-776.72739	104.38191
23850.00000	104.53226	-778.14279	104.53226
23900.00000	104.86310	-780.36442	104.86310
23950.00000	104.59563	-782.99645	104.59563
24000.00000	104.50297	-785.16783	104.50297
24050.00000	104.66794	-785.57242	104.66794
24100.00000	105.02323	-789.14659	105.02323
24150.00000	104.99149	-790.84595	104.99149
24200.00000	105.05891	-793.81331	105.05891
24250.00000	104.81282	-793.93817	104.81282
24300.00000	105.19067	-796.48125	105.19067
24350.00000	105.18878	-798.88801	105.18878
24400.00000	105.14046	-801.77587	105.14046
24450.00000	104.91552	-803.07768	104.91552
24500.00000	105.46343	-804.89449	105.46343
24550.00000	105.32636	-809.56181	105.32636
24600.00000	105.79601	-450.87992	105.79601
24650.00000	105.50008	-454.55638	105.50008
24700.00000	105.51993	-94.82817	105.51993
24750.00000	105.56914	260.36019	105.56914
24800.00000	105.59852	617.75783	105.59852
24850.00000	105.29818	976.71496	105.29818
24900.00000	105.42029	1335.03365	105.42029
24950.00000	105.43267	1689.02584	105.43267
25000.00000	105.63157	1682.86668	105.63157
25050.00000	105.65463	1683.17067	105.65463
25100.00000	105.21997	1679.74236	105.21997
25150.00000	105.52851	1678.80112	105.52851
25200.00000	105.33727	1673.94276	105.33727
25250.00000	105.30051	1673.30144	105.30051
25300.00000	105.28504	1671.54732	105.28504
25350.00000	105.16805	1665.69297	105.16805
25400.00000	105.11859	1661.41241	105.11859
25450.00000	105.11233	1660.27541	105.11233
25500.00000	104.90894	1658.02614	104.90894
25550.00000	104.85627	1654.69572	104.85627
25600.00000	104.84482	1652.31922	104.84482
25650.00000	104.69050	1651.19172	104.69050
25700.00000	104.66227	1648.11219	104.66227
25750.00000	104.43893	1644.94712	104.43893
25800.00000	104.25769	1641.73737	104.25769
25850.00000	104.30429	1639.87144	104.30429
25900.00000	104.19028	1635.33615	104.19028
25950.00000	103.98721	1637.75783	103.98721
26000.00000	103.85096	1632.59972	103.85096
26050.00000	103.83770	1630.24182	103.83770
26100.00000	103.75500	1628.51969	103.75500
26150.00000	103.64934	1625.70350	103.64934
26200.00000	103.83923	1623.50089	103.83923
26250.00000	103.55102	1620.60718	103.55102
26300.00000	103.74554	1617.05697	103.74554
26350.00000	103.31264	1616.80189	103.31264
26400.00000	103.29609	1614.30998	103.29609
26450.00000	103.56268	1610.99057	103.56268
26500.00000	103.31656	1608.15790	103.31656
26550.00000	103.25846	1603.11705	103.25846
26600.00000	103.07178	1600.78949	103.07178
26650.00000	103.22334	1601.02716	103.22334
26700.00000	103.16226	1597.95723	103.16226
26750.00000	102.88406	1594.79363	102.88406
26800.00000	102.81951	1589.55737	102.81951
26850.00000	103.08684	1588.87582	103.08684
26900.00000	102.99875	1587.06211	102.99875
26950.00000	103.06240	1583.00875	103.06240
27000.00000	102.52691	1580.51348	102.52691
27050.00000	102.79492	1577.64930	102.79492
27100.00000	102.52227	1575.94258	102.52227
27150.00000	102.40251	1571.32156	102.40251
27200.00000	102.43260	1568.69143	102.43260
27250.00000	101.94541	1567.21161	101.94541
27300.00000	101.58506	1563.47885	101.58506
27350.00000	101.76660	1562.36617	101.76660
27400.00000	101.34225	1559.13083	101.34225
27450.00000	101.07718	1556.75851	101.07718
27500.00000	100.95528	1554.25643	100.95528
27550.00000	100.88424	1551.87275	100.88424
27600.00000	100.92482	1548.71238	100.92482
27650.00000	100.28615	1547.63888	100.28615
27700.00000	100.14799	1542.82903	100.14799
27750.00000	99.92348	1540.28510	99.92348
27800.00000	99.76992	1537.10792	99.76992
27850.00000	99.74466	1540.66867	99.74466
27900.00000	99.11114	1537.49897	99.11114
27950.00000	98.45256	1535.97947	98.45256
28000.00000	98.38886	1535.85022	98.38886
28050.00000	98.76099	1532.97427	98.76099
28100.00000	97.87779	1531.60311	97.87779
28150.00000	97.87221	1532.75140	97.87221
28200.00000	97.88818	1528.32034	97.88818
28250.00000	97.42181	1527.19873	97.42181
28300.00000	97.04730	1527.76685	97.04730
28350.00000	97.14851	1526.92748	97.14851
28400.00000	96.92790	1527.67062	96.92790
28450.00000	97.54264	1526.48259	97.54264
28500.00000	96.89656	1527.06218	96.89656
28550.00000	96.75819	1528.19254	96.75819
28600.00000	96.73011	1526.84853	96.73011
28650.00000	96.94263	1523.92720	96.94263
28700.00000	96.76936	1526.36033	96.76936
28750.00000	97.41125	1527.12566	97.41125
28800.00000	97.22418	1526.09874	97.22418
28850.00000	96.51259	1523.40738	96.51259
28900.00000	96.62103	1522.32751	96.62103
28950.00000	96.73703	1522.89364	96.73703
29000.00000	96.91611	1522.20821	96.91611
29050.00000	96.72983	1523.03844	96.72983
29100.00000	96.63931	1522.94997	96.63931
29150.00000	96.64884	1522.60591	96.64884
29200.00000	96.58702	1520.05043	96.58702
29250.00000	97.02759	1520.52328	97.02759
29300.00000	96.83133	1518.55845	96.83133
29350.00000	97.30881	1517.46044	97.30881
29400.00000	97.14031	1517.52703	97.14031
29450.00000	97.24484	1516.77002	97.24484
29500.00000	97.45799	1517.28686	97.45799
29550.00000	97.30050	1512.89848	97.30050
29600.00000	97.16231	1514.96824	97.16231
29650.00000	97.39000	1512.33567	97.39000
29700.00000	97.33919	1514.43843	97.33919
29750.00000	97.31245	1514.88667	97.31245
29800.00000	97.26258	1512.07712	97.26258
29850.00000	97.29775	1511.12085	97.29775
29900.00000	97.68982	1511.87630	97.68982
29950.00000	97.07800	1513.00915	97.07800
30000.00000	97.43939	1514.55428	97.43939
30050.00000	97.64947	1512.34903	97.64947
30100.00000	97.40172	1514.22755	97.40172
30150.00000	97.76662	1511.51947	97.76662
30200.00000	97.78462	1510.47945	97.78462
30250.00000	97.62790	1512.25462	97.62790
30300.00000	97.59584	1513.53308	97.59584
30350.00000	97.89401	1514.93835	97.89401
30400.00000	97.96008	1514.32346	97.96008
30450.00000	97.85580	1514.71329	97.85580
30500.00000	98.01527	1514.65298	98.01527
30550.00000	98.15448	1517.31713	98.15448
30600.00000	98.33869	1517.92978	98.33869
30650.00000	98.60089	1518.70097	98.60089
30700.00000	98.86311	1518.80175	98.86311
30750.00000	98.84814	1521.10037	98.84814
30800.00000	99.25036	1521.71080	99.25036
30850.00000	99.60066	1523.58154	99.60066
30900.00000	99.67139	1525.69498	99.67139
30950.00000	100.35946	1525.02653	100.35946
31000.00000	100.76312	1524.70749	100.76312
31050.00000	101.28395	1526.31250	101.28395
31100.00000	101.92911	1526.95115	101.92911
31150.00000	102.04697	1526.33793	102.04697
31200.00000	103.02374	1525.85397	103.02374
31250.00000	103.42387	1525.82326	103.42387
31300.00000	103.95395	1524.45307	103.95395
31350.00000	104.59526	1523.38904	104.59526
31400.00000	104.98731	1520.82092	104.98731
31450.00000	105.62986	1519.40247	105.62986
31500.00000	106.11917	1516.26790	106.11917
31550.00000	106.61163	1514.30875	106.61163
31600.00000	107.21807	1510.65485	107.21807
31650.00000	107.62171	1507.75568	107.62171
31700.00000	108.05001	1505.04000	108.05001
31750.00000	108.55650	1502.86465	108.55650
31800.00000	108.86681	1498.37876	108.86681
31850.00000	109.22107	1494.28314	109.22107
31900.00000	109.45469	1491.52182	109.45469
31950.00000	109.82371	1487.48766	109.82371
32000.00000	110.10627	1483.83355	110.10627
32050.00000	110.41969	1480.30342	110.41969
32100.00000	110.55060	1475.95369	110.55060
32150.00000	110.83364	1472.85684	110.83364
32200.00000	111.07750	1468.52792	111.07750
32250.00000	111.20639	1464.51083	111.20639
32300.00000	111.35370	1461.15522	111.35370
32350.00000	111.45818	1458.03251	111.45818
32400.00000	111.72719	1454.62774	111.72719
32450.00000	111.77509	1450.55689	111.77509
32500.00000	111.97122	1447.40377	111.97122
32550.00000	112.14919	1442.55947	112.14919
32600.00000	112.21348	1440.15958	112.21348
32650.00000	112.45989	1436.18734	112.45989
32700.00000	112.41320	1432.01005	112.41320
32750.00000	112.51722	1428.17786	112.51722
32800.00000	112.78601	1425.56317	112.78601
32850.00000	112.95098	1421.60089	112.95098
32900.00000	112.92172	1417.23547	112.92172
32950.00000	112.92860	1413.15425	112.92860
33000.00000	112.98993	1411.37063	112.98993
33050.00000	113.07761	1406.59554	113.07761
33100.00000	113.26627	1402.91760	113.26627
33150.00000	113.31024	1399.58806	113.31024
33200.00000	113.53929	1397.23293	113.53929
33250.00000	113.50258	1393.49113	113.50258
33300.00000	113.56592	1388.68617	113.56592
33350.00000	113.59315	1384.71908	113.59315
33400.00000	113.69958	1381.95162	113.69958
33450.00000	113.77673	1377.61357	113.77673
33500.00000	113.97239	1375.38707	113.97239
33550.00000	113.75322	1370.12166	113.75322
33600.00000	114.06376	1366.95345	114.06376
33650.00000	114.06044	1362.88144	114.06044
33700.00000	114.06880	1360.07717	114.06880
33750.00000	113.96390	1356.30232	113.96390
33800.00000	114.12219	1352.04440	114.12219
33850.00000	113.84857	1348.88760	113.84857
33900.00000	114.11335	1344.69587	114.11335
33950.00000	114.08270	1341.41430	114.08270
34000.00000	114.11718	1337.63285	114.11718
34050.00000	114.03089	1333.77666	114.03089
34100.00000	113.85778	1331.44675	113.85778
34150.00000	113.98786	1326.78278	113.98786
34200.00000	113.88924	1325.29417	113.88924
34250.00000	113.97037	1320.93280	113.97037
34300.00000	113.87453	1317.37160	113.87453
34350.00000	113.91490	1313.59049	113.91490
34400.00000	113.54979	1312.18920	113.54979
34450.00000	113.67317	1306.95256	113.67317
34500.00000	113.41380	1304.52697	113.41380
34550.00000	113.50374	1301.73705	113.50374
34600.00000	113.08085	1297.96924	113.08085
34650.00000	113.33034	1297.95925	113.33034
34700.00000	112.86990	1295.82076	112.86990
34750.00000	113.06391	1289.63368	113.06391
34800.00000	113.11251	1290.47926	113.11251
34850.00000	113.21193	1289.62768	113.21193
34900.00000	113.27000	1284.71005	113.27000
34950.00000	113.09038	1284.36362	113.09038
35000.00000	113.13925	1281.59888	113.13925
35050.00000	113.20104	1279.89365	113.20104
35100.00000	113.27556	1277.65784	113.27556
35150.00000	113.03918	1276.67112	113.03918
35200.00000	113.15848	1272.73457	113.15848
35250.00000	113.23907	1270.46613	113.23907
35300.00000	113.31434	1268.09817	113.31434
35350.00000	113.52873	1266.28110	113.52873
35400.00000	113.48095	1263.97301	113.48095
35450.00000	113.58848	1262.16003	113.58848
35500.00000	113.37846	1260.64407	113.37846
35550.00000	113.81991	1259.24234	113.81991
35600.00000	113.82691	1256.23855	113.82691
35650.00000	113.90958	1254.11503	113.90958
35700.00000	114.02226	1252.61288	114.02226
35750.00000	114.04559	1250.94540	114.04559
35800.00000	114.28167	1249.73346	114.28167
35850.00000	114.56394	1246.29792	114.56394
35900.00000	114.64940	1244.02805	114.64940
35950.00000	114.98405	1241.42136	114.98405
36000.00000	114.99166	1239.74182	114.99166
36050.00000	115.27585	1236.88974	115.27585
36100.00000	115.57120	1234.27908	115.57120
36150.00000	115.58105	1232.15600	115.58105
36200.00000	115.76619	1229.38564	115.76619
36250.00000	115.87587	1226.00750	115.87587
36300.00000	115.80034	1224.09761	115.80034
36350.00000	116.18267	1221.41135	116.18267
36400.00000	116.25787	1214.48627	116.25787
36450.00000	116.33678	1215.63059	116.33678
36500.00000	116.62076	1213.59562	116.62076
36550.00000	116.58574	1209.43029	116.58574
36600.00000	116.73310	1206.89537	116.73310
36650.00000	116.92082	1204.67270	116.92082
36700.00000	117.06350	1200.46537	117.06350
36750.00000	117.14128	1197.64047	117.14128
36800.00000	117.17860	1195.27301	117.17860
36850.00000	117.09442	1192.11338	117.09442
36900.00000	117.28523	1188.55495	117.28523
36950.00000	117.10162	1185.29132	117.10162
37000.00000	116.98073	1183.58522	116.98073
37050.00000	116.94254	1181.15683	116.94254
37100.00000	117.10144	1177.18220	117.10144
37150.00000	117.14708	1174.15955	117.14708
37200.00000	117.31373	1173.40637	117.31373
37250.00000	116.94360	1169.90313	116.94360
37300.00000	117.00532	1167.58521	117.00532
37350.00000	117.32634	1165.42277	117.32634
37400.00000	116.95072	1163.34764	116.95072
37450.00000	116.84194	1160.38015	116.84194
37500.00000	117.17671	1158.11943	117.17671
37550.00000	116.89947	1156.52178	116.89947
37600.00000	116.88573	1154.26461	116.88573
37650.00000	116.88649	1152.35021	116.88649
37700.00000	116.95610	1149.65440	116.95610
37750.00000	116.97003	1148.71746	116.97003
37800.00000	116.83417	1145.61518	116.83417
37850.00000	116.91015	1142.64557	116.91015
37900.00000	116.98399	1141.32868	116.98399
37950.00000	117.09473	1139.60346	117.09473
38000.00000	116.98266	1137.96432	116.98266
38050.00000	117.13311	1135.47291	117.13311
38100.00000	117.27372	1133.00635	117.27372
38150.00000	117.32110	1130.03402	117.32110
38200.00000	117.47950	1127.15891	117.47950
38250.00000	117.60192	1124.55402	117.60192
38300.00000	117.77705	1121.46066	117.77705
38350.00000	117.79429	1119.16371	117.79429
38400.00000	117.95378	1115.97624	117.95378
38450.00000	118.06620	1111.84388	118.06620
38500.00000	118.21245	1108.08378	118.21245
38550.00000	118.36813	1105.41800	118.36813
38600.00000	118.50155	1101.31189	118.50155
38650.00000	118.58259	1096.97438	118.58259
38700.00000	118.58907	1092.74375	118.58907
38750.00000	118.65104	1089.05477	118.65104
38800.00000	118.72985	1084.87135	118.72985
38850.00000	118.73156	1080.10422	118.73156
38900.00000	118.73078	1075.73820	118.73078
38950.00000	118.66571	1071.22268	118.66571
39000.00000	118.58606	1066.74822	118.58606
39050.00000	118.59042	1062.64441	118.59042
39100.00000	118.39349	1058.21534	118.39349
39150.00000	118.24598	1053.92598	118.24598
39200.00000	118.12616	1050.13719	118.12616
39250.00000	117.97264	1045.58602	117.97264
39300.00000	117.85532	1041.63519	117.85532
39350.00000	117.63680	1038.04606	117.63680
39400.00000	117.48650	1034.18073	117.48650
39450.00000	117.23915	1030.59478	117.23915
39500.00000	117.13058	1026.83242	117.13058
39550.00000	116.90303	1022.68697	116.90303
39600.00000	116.60428	1019.33190	116.60428
39650.00000	116.49785	1016.35005	116.49785
39700.00000	116.22512	1013.18762	116.22512
39750.00000	116.05319	1009.45239	116.05319
39800.00000	115.84141	1006.33024	115.84141
39850.00000	115.59205	1003.38293	115.59205
39900.00000	115.40035	1000.41674	115.40035
39950.00000	115.27233	997.75480	115.27233
40000.00000	114.85602	995.86578	114.85602
40050.00000	114.79661	991.84668	114.79661
40100.00000	114.59384	989.12873	114.59384
40150.00000	114.38313	986.55819	114.38313
40200.00000	114.14497	984.21897	114.14497
40250.00000	113.89811	982.11024	113.89811
40300.00000	113.84758	979.73626	113.84758
40350.00000	113.47194	977.80712	113.47194
40400.00000	113.23893	975.42759	113.23893
40450.00000	113.07124	974.25387	113.07124
40500.00000	112.99049	972.49865	112.99049
40550.00000	112.74655	969.99429	112.74655
40600.00000	112.62998	968.82720	112.62998
40650.00000	112.46103	967.29491	112.46103
40700.00000	112.10993	966.64586	112.10993
40750.00000	112.14390	965.19049	112.14390
40800.00000	112.07688	963.17829	112.07688
40850.00000	111.94262	963.36475	111.94262
40900.00000	111.75939	961.23118	111.75939
40950.00000	111.53677	961.09743	111.53677
41000.00000	111.25728	960.45817	111.25728
41050.00000	111.38596	959.71422	111.38596
41100.00000	111.43447	958.17680	111.43447
41150.00000	111.54968	959.57449	111.54968
41200.00000	111.57897	958.87924	111.57897
41250.00000	111.38939	956.14126	111.38939
41300.00000	111.22470	957.17225	111.22470
41350.00000	111.46444	958.57868	111.46444
41400.00000	111.53845	953.20444	111.53845
41450.00000	111.62941	956.10372	111.62941
41500.00000	111.51671	954.91528	111.51671
41550.00000	111.53355	957.83472	111.53355
41600.00000	111.37961	955.80458	111.37961
41650.00000	111.85769	953.75958	111.85769
41700.00000	112.04170	954.42276	112.04170
41750.00000	111.91675	958.39237	111.91675
41800.00000	111.24375	952.81145	111.24375
41850.00000	111.44188	954.42209	111.44188
41900.00000	111.37964	954.04855	111.37964
41950.00000	112.87520	957.75202	112.87520
42000.00000	111.98444	952.60267	111.98444
42050.00000	111.12692	953.30219	111.12692
42100.00000	111.60470	952.95270	111.60470
42150.00000	111.29774	947.98104	111.29774
42200.00000	111.35088	953.51896	111.35088
42250.00000	111.57050	952.83832	111.57050
42300.00000	110.79025	948.97933	110.79025
42350.00000	111.39588	948.99287	111.39588
42400.00000	111.40601	950.29322	111.40601
42450.00000	111.83934	946.16602	111.83934
42500.00000	111.40135	945.81445	111.40135
42550.00000	111.67233	955.82554	111.67233
42600.00000	111.59847	946.47847	111.59847
42650.00000	111.30546	948.86975	111.30546
42700.00000	110.97179	945.21962	110.97179
42750.00000	111.90534	943.73979	111.90534
42800.00000	111.44196	935.97709	111.44196
42850.00000	111.10774	934.33140	111.10774
42900.00000	112.32628	939.85844	112.32628
42950.00000	111.47031	932.79067	111.47031
43000.00000	112.12880	923.76371	112.12880
43050.00000	111.48472	921.55728	111.48472
43100.00000	111.69543	924.75309	111.69543
43150.00000	110.88899	920.32706	110.88899
43200.00000	111.54461	916.62455	111.54461
43250.00000	111.42143	912.59530	111.42143
43300.00000	111.44717	909.28795	111.44717
43350.00000	112.04039	904.36034	112.04039
43400.00000	111.34479	901.32338	111.34479
43450.00000	112.28688	900.17029	112.28688
43500.00000	110.82789	893.02226	110.82789
43550.00000	111.55992	888.30381	111.55992
43600.00000	111.15611	884.12867	111.15611
43650.00000	111.47676	875.47828	111.47676
43700.00000	111.26286	875.41044	111.26286
43750.00000	110.76569	874.80498	110.76569
43800.00000	110.98415	866.42948	110.98415
43850.00000	111.54136	859.38581	111.54136
43900.00000	111.74430	857.93676	111.74430
43950.00000	111.48852	852.98124	111.48852
44000.00000	110.82696	846.81189	110.82696
44050.00000	111.40807	842.61314	111.40807
44100.00000	111.22884	829.16501	111.22884
44150.00000	111.05540	832.74993	111.05540
44200.00000	111.14695	830.49317	111.14695
44250.00000	111.18232	823.73276	111.18232
44300.00000	111.32782	815.20162	111.32782
44350.00000	109.68718	811.19002	109.68718
44400.00000	110.77557	808.08293	110.77557
44450.00000	111.22035	804.49661	111.22035
44500.00000	110.47644	799.05932	110.47644
44550.00000	111.53098	788.08191	111.53098
44600.00000	110.68617	789.20593	110.68617
44650.00000	110.19335	780.93457	110.19335
44700.00000	109.94533	776.62186	109.94533
44750.00000	110.02652	774.41053	110.02652
44800.00000	110.55924	767.43480	110.55924
44850.00000	110.01461	759.97240	110.01461
44900.00000	109.63569	759.71768	109.63569
44950.00000	109.89095	751.62814	109.89095
45000.00000	109.65070	742.43539	109.65070
45050.00000	108.13111	748.26007	108.13111
45100.00000	108.50693	738.39433	108.50693
45150.00000	108.35897	728.08979	108.35897
45200.00000	107.90121	729.79474	107.90121
45250.00000	108.16988	725.46365	108.16988
45300.00000	107.36773	719.07695	107.36773
45350.00000	106.84352	711.57740	106.84352
45400.00000	107.02714	708.94945	107.02714
45450.00000	106.61852	703.34975	106.61852
45500.00000	105.19031	697.19359	105.19031
45550.00000	104.80964	699.25763	104.80964
45600.00000	105.97309	689.96365	105.97309
45650.00000	103.79355	685.65515	103.79355
45700.00000	103.76481	681.23353	103.76481
45750.00000	104.35827	684.49487	104.35827
45800.00000	103.04266	676.80900	103.04266
45850.00000	102.73569	672.67311	102.73569
45900.00000	102.51293	671.50212	102.51293
45950.00000	102.02311	671.14372	102.02311
46000.00000	99.50220	656.11919	99.50220
46050.00000	99.95858	656.12555	99.95858
46100.00000	99.10815	661.23904	99.10815
46150.00000	98.13650	658.14428	98.13650
46200.00000	96.34211	650.92000	96.34211
46250.00000	97.46790	647.98008	97.46790
46300.00000	95.95418	651.94068	95.95418
46350.00000	97.60869	647.81310	97.60869
46400.00000	95.90585	641.27555	95.90585
46450.00000	94.04038	644.59849	94.04038
46500.00000	94.73204	645.61274	94.73204
46550.00000	93.46938	655.80107	93.46938
46600.00000	94.11676	654.83247	94.11676
46650.00000	91.68987	649.14700	91.68987
46700.00000	90.61763	658.77958	90.61763
46750.00000	92.97753	669.76973	92.97753
46800.00000	92.16252	663.65301	92.16252
46850.00000	91.78723	312.08736	91.78723
46900.00000	92.15197	304.59872	92.15197
46950.00000	92.54979	305.71940	92.54979
47000.00000	92.15858	310.90225	92.15858
47050.00000	93.52536	302.90410	93.52536
47100.00000	92.77829	303.54708	92.77829
47150.00000	94.24967	308.49780	94.24967
47200.00000	92.49825	308.16426	92.49825
47250.00000	94.67005	303.58546	94.67005
47300.00000	93.50215	297.45638	93.50215
47350.00000	93.39867	-58.25810	93.39867
47400.00000	93.37853	-60.00045	93.37853
47450.00000	94.32831	-59.12417	94.32831
47500.00000	93.14205	-71.73454	93.14205
47550.00000	92.57291	-424.28451	92.57291
47600.00000	92.62833	-432.85499	92.62833
47650.00000	95.00606	-434.64869	95.00606
47700.00000	92.78985	-436.54705	92.78985
47750.00000	91.22802	-432.34548	91.22802
47800.00000	91.72034	-447.10224	91.72034
47850.00000	92.15084	-796.07532	92.15084
47900.00000	92.02516	-1152.20601	92.02516
47950.00000	91.66192	-1153.54316	91.66192
48000.00000	92.41632	-1152.56189	92.41632
48050.00000	92.75565	-1162.25543	92.75565
48100.00000	91.45940	-1164.59111	91.45940
48150.00000	92.30066	-1514.48966	92.30066
48200.00000	92.79325	-1515.44318	92.79325
48250.00000	91.58427	-1521.53372	91.58427
48300.00000	92.37994	-1526.15094	92.37994
48350.00000	91.96510	-1527.66922	91.96510
48400.00000	93.81428	-1873.50529	93.81428
48450.00000	93.88871	-1881.94565	93.88871
48500.00000	93.14669	-1892.42393	93.14669
48550.00000	92.26830	-1894.41733	92.26830
48600.00000	94.01039	-2249.21304	94.01039
48650.00000	93.86959	-2252.51302	93.86959
48700.00000	93.86592	-2262.52255	93.86592
48750.00000	91.90406	-2609.13101	91.90406
48800.00000	93.73400	-2615.26601	93.73400
48850.00000	93.95388	-2622.70983	93.95388
48900.00000	92.51200	-2984.61365	92.51200
48950.00000	93.17557	-2998.60610	93.17557
49000.00000	93.85308	-2995.95688	93.85308
49050.00000	92.65161	-3005.94049	92.65161
49100.00000	92.38831	-3355.99967	92.38831
49150.00000	93.41075	-3727.58873	93.41075
49200.00000	92.82599	-3731.42904	92.82599
49250.00000	92.08718	-4088.97862	92.08718
49300.00000	92.01585	-3748.87004	92.01585
49350.00000	90.63991	-3727.28078	90.63991
49400.00000	88.70028	-3385.81967	88.70028
49450.00000	89.25669	-3026.98395	89.25669
49500.00000	89.97722	-2695.49566	89.97722
49550.00000	89.70684	-2324.74346	89.70684
49600.00000	88.87570	-2340.45143	88.87570
49650.00000	90.32217	-2320.17442	90.32217
49700.00000	87.08699	-1997.31966	87.08699
49750.00000	87.55696	-1987.05606	87.55696
49800.00000	85.69051	-1995.59684	85.69051
49850.00000	83.24948	-1981.08560	83.24948
49900.00000	84.52680	-1679.18867	84.52680
49950.00000	79.60854	-1428.68652	79.60854
