---ACOUSTIC CALIBRATION---
Filename: C:\Data\AZH DATA\AZH51\RightPrimary.calib
Date: 8/27/2019 11:15:48 AM
Format: 4
Probe Tube Correction File: C:\Data\Probe Tube Calibrations\50_ProbeTube.calib
Experiment VIs: 850
EPL_CFTS.exe V12.0.1 (2012)
DAQmx V9.6

Attenuation (dB): 40.000000
Min Freq (Hz): 50.000000
Max Freq (Hz): 49950.000000
Freq Step (Hz): 50.000000
Sample Rate (Hz): 100000.000000
[Smoothing]
Method=None
MA.Iterations=0
MA.Length=0
Loess.Length=0
Loess.Type=Linear
Loess.Robust=FALSE


Freq(Hz)	Mag(dB)	Phase(deg)	Unsmoothed(dB)

50.00000	89.29711	424.51895	89.29711
100.00000	84.62059	558.91069	84.62059
150.00000	76.63649	569.12329	76.63649
200.00000	70.64562	501.90657	70.64562
250.00000	83.99735	440.37037	83.99735
300.00000	84.01764	375.32272	84.01764
350.00000	83.38157	397.41297	83.38157
400.00000	84.63635	379.23318	84.63635
450.00000	86.30121	358.55642	86.30121
500.00000	89.98885	358.29912	89.98885
550.00000	90.61260	369.29472	90.61260
600.00000	94.67651	361.29570	94.67651
650.00000	96.33884	344.06580	96.33884
700.00000	98.71035	327.98566	98.71035
750.00000	100.06978	312.96755	100.06978
800.00000	100.50872	290.44903	100.50872
850.00000	100.45422	274.30933	100.45422
900.00000	98.70017	255.58230	98.70017
950.00000	96.85628	255.23623	96.85628
1000.00000	95.38129	256.95251	95.38129
1050.00000	93.75538	273.41862	93.75538
1100.00000	95.74491	294.82852	95.74491
1150.00000	98.65898	297.51468	98.65898
1200.00000	101.21770	296.64259	101.21770
1250.00000	103.07018	288.33914	103.07018
1300.00000	104.57173	282.84131	104.57173
1350.00000	105.92519	273.30994	105.92519
1400.00000	106.70328	265.30309	106.70328
1450.00000	107.72622	260.08303	107.72622
1500.00000	108.91103	252.82043	108.91103
1550.00000	109.67440	244.73087	109.67440
1600.00000	111.24874	234.87820	111.24874
1650.00000	112.12885	217.95435	112.12885
1700.00000	110.90737	207.93483	110.90737
1750.00000	110.58315	202.44171	110.58315
1800.00000	110.31998	198.49089	110.31998
1850.00000	110.53079	197.38633	110.53079
1900.00000	111.68725	193.06930	111.68725
1950.00000	112.28094	179.88011	112.28094
2000.00000	111.23036	168.24540	111.23036
2050.00000	109.99100	173.16548	109.99100
2100.00000	111.77358	172.92215	111.77358
2150.00000	112.41626	161.94426	112.41626
2200.00000	112.29546	152.09338	112.29546
2250.00000	111.75967	145.10601	111.75967
2300.00000	111.81080	139.75459	111.81080
2350.00000	111.57086	133.29599	111.57086
2400.00000	111.24860	127.55755	111.24860
2450.00000	110.94121	121.27934	110.94121
2500.00000	110.45260	116.26566	110.45260
2550.00000	110.01954	111.45842	110.01954
2600.00000	109.39796	107.13125	109.39796
2650.00000	108.82976	103.35015	108.82976
2700.00000	108.30530	99.71182	108.30530
2750.00000	107.54613	96.08050	107.54613
2800.00000	106.61523	93.92160	106.61523
2850.00000	105.76821	92.46185	105.76821
2900.00000	104.85161	92.40226	104.85161
2950.00000	103.75664	92.98357	103.75664
3000.00000	102.62964	96.20341	102.62964
3050.00000	101.35139	101.82945	101.35139
3100.00000	100.37706	114.21910	100.37706
3150.00000	100.24524	129.61187	100.24524
3200.00000	101.47030	145.59652	101.47030
3250.00000	103.48311	154.69932	103.48311
3300.00000	105.34549	158.76102	105.34549
3350.00000	107.26975	161.22304	107.26975
3400.00000	109.30273	162.34991	109.30273
3450.00000	111.35815	159.64409	111.35815
3500.00000	113.33807	153.76436	113.33807
3550.00000	114.81202	145.55315	114.81202
3600.00000	116.11420	138.07261	116.11420
3650.00000	117.13189	129.10605	117.13189
3700.00000	117.96264	120.61255	117.96264
3750.00000	118.65202	111.91381	118.65202
3800.00000	119.14314	103.25216	119.14314
3850.00000	119.45747	95.63095	119.45747
3900.00000	119.79440	89.26183	119.79440
3950.00000	120.26030	82.91131	120.26030
4000.00000	120.72800	76.11919	120.72800
4050.00000	121.20327	69.18976	121.20327
4100.00000	121.69098	61.75219	121.69098
4150.00000	122.30136	53.41499	122.30136
4200.00000	122.55181	43.98950	122.55181
4250.00000	122.72731	34.36270	122.72731
4300.00000	122.75098	24.70774	122.75098
4350.00000	122.58530	15.25158	122.58530
4400.00000	122.31461	 6.68335	122.31461
4450.00000	121.99493	-1.20132	121.99493
4500.00000	121.66142	-8.64207	121.66142
4550.00000	121.33693	-15.90164	121.33693
4600.00000	120.97430	-23.00910	120.97430
4650.00000	120.62924	-30.17495	120.62924
4700.00000	120.21747	-37.91687	120.21747
4750.00000	119.62834	-45.97264	119.62834
4800.00000	118.81694	-53.88785	118.81694
4850.00000	117.72660	-60.49137	117.72660
4900.00000	116.51000	-64.93470	116.51000
4950.00000	115.31729	-66.76877	115.31729
5000.00000	114.29779	-67.09092	114.29779
5050.00000	113.46200	-66.84289	113.46200
5100.00000	112.62457	-63.16863	112.62457
5150.00000	112.86443	-59.22186	112.86443
5200.00000	113.07302	-56.87481	113.07302
5250.00000	114.20287	-60.85703	114.20287
5300.00000	114.02140	-69.57197	114.02140
5350.00000	113.35419	-73.84153	113.35419
5400.00000	112.84579	-75.73896	112.84579
5450.00000	112.47740	-76.97646	112.47740
5500.00000	112.22373	-78.29051	112.22373
5550.00000	111.99649	-79.61848	111.99649
5600.00000	111.83158	-80.77556	111.83158
5650.00000	111.72658	-81.97298	111.72658
5700.00000	111.66496	-83.33711	111.66496
5750.00000	111.65467	-84.73882	111.65467
5800.00000	111.69189	-86.57175	111.69189
5850.00000	111.76094	-88.90644	111.76094
5900.00000	111.81519	-91.53612	111.81519
5950.00000	111.81989	-94.49908	111.81989
6000.00000	111.76557	-97.46953	111.76557
6050.00000	111.68420	-100.27392	111.68420
6100.00000	111.58176	-103.25100	111.58176
6150.00000	111.46448	-106.09904	111.46448
6200.00000	111.34591	-108.76173	111.34591
6250.00000	111.22326	-111.29625	111.22326
6300.00000	111.10521	-114.00309	111.10521
6350.00000	110.97443	-116.53865	110.97443
6400.00000	110.83894	-118.93400	110.83894
6450.00000	110.74650	-121.40776	110.74650
6500.00000	110.60143	-124.02216	110.60143
6550.00000	110.47442	-126.46440	110.47442
6600.00000	110.36099	-128.78467	110.36099
6650.00000	110.23012	-131.13329	110.23012
6700.00000	110.16212	-133.69688	110.16212
6750.00000	110.04483	-136.07368	110.04483
6800.00000	109.96514	-138.54257	109.96514
6850.00000	109.85447	-140.91869	109.85447
6900.00000	109.77930	-143.24451	109.77930
6950.00000	109.67773	-145.64799	109.67773
7000.00000	109.60564	-148.10630	109.60564
7050.00000	109.49565	-150.58977	109.49565
7100.00000	109.42493	-153.20230	109.42493
7150.00000	109.31987	-155.78549	109.31987
7200.00000	109.22340	-158.42095	109.22340
7250.00000	109.07317	-161.05093	109.07317
7300.00000	108.98734	-163.81054	108.98734
7350.00000	108.82939	-166.35410	108.82939
7400.00000	108.70358	-169.19830	108.70358
7450.00000	108.54269	-172.00411	108.54269
7500.00000	108.37465	-174.73170	108.37465
7550.00000	108.20626	-177.22544	108.20626
7600.00000	107.98991	-179.71738	107.98991
7650.00000	107.78323	-182.17189	107.78323
7700.00000	107.61451	-184.53073	107.61451
7750.00000	107.36975	-186.89571	107.36975
7800.00000	107.13739	-189.02409	107.13739
7850.00000	106.91635	-190.97992	106.91635
7900.00000	106.72243	-192.81454	106.72243
7950.00000	106.49884	-194.62101	106.49884
8000.00000	106.31546	-196.55939	106.31546
8050.00000	106.13524	-198.46964	106.13524
8100.00000	105.99367	-199.52907	105.99367
8150.00000	105.82666	-201.01880	105.82666
8200.00000	105.67972	-202.12036	105.67972
8250.00000	105.52021	-203.45941	105.52021
8300.00000	105.44454	-204.57829	105.44454
8350.00000	105.31221	-205.43825	105.31221
8400.00000	105.16144	-206.83241	105.16144
8450.00000	104.98385	-207.95775	104.98385
8500.00000	104.82774	-209.24639	104.82774
8550.00000	104.73770	-210.44250	104.73770
8600.00000	104.63542	-212.21090	104.63542
8650.00000	104.51028	-213.86773	104.51028
8700.00000	104.49456	-216.06463	104.49456
8750.00000	104.40745	-216.95748	104.40745
8800.00000	104.44409	-219.04287	104.44409
8850.00000	104.45201	-220.71520	104.45201
8900.00000	104.51841	-221.96245	104.51841
8950.00000	104.56780	-223.53102	104.56780
9000.00000	104.53921	-224.91773	104.53921
9050.00000	104.56482	-226.68602	104.56482
9100.00000	104.52053	-228.06628	104.52053
9150.00000	104.51424	-229.70262	104.51424
9200.00000	104.50633	-231.44517	104.50633
9250.00000	104.45956	-233.63673	104.45956
9300.00000	104.48633	-235.84607	104.48633
9350.00000	104.57106	-238.13281	104.57106
9400.00000	104.54965	-239.97932	104.54965
9450.00000	104.68233	-241.90873	104.68233
9500.00000	104.86550	-243.03260	104.86550
9550.00000	105.14828	-244.62474	105.14828
9600.00000	105.36308	-247.21319	105.36308
9650.00000	105.43630	-249.69787	105.43630
9700.00000	105.46482	-251.51164	105.46482
9750.00000	105.54647	-254.62652	105.54647
9800.00000	105.49708	-256.86024	105.49708
9850.00000	105.49797	-259.37505	105.49797
9900.00000	105.37650	-262.53240	105.37650
9950.00000	105.38703	-265.27975	105.38703
10000.00000	105.39793	-268.80215	105.39793
10050.00000	105.38890	-271.97350	105.38890
10100.00000	105.38240	-274.87872	105.38240
10150.00000	105.28870	-278.42131	105.28870
10200.00000	105.24555	-281.33370	105.24555
10250.00000	105.11922	-284.73758	105.11922
10300.00000	105.08720	-288.00174	105.08720
10350.00000	104.90981	-291.20295	104.90981
10400.00000	104.69595	-294.82662	104.69595
10450.00000	104.63055	-298.64174	104.63055
10500.00000	104.53764	-302.16958	104.53764
10550.00000	104.40966	-305.74534	104.40966
10600.00000	104.25194	-308.83924	104.25194
10650.00000	104.07489	-311.54156	104.07489
10700.00000	103.89289	-315.23921	103.89289
10750.00000	103.72336	-318.25328	103.72336
10800.00000	103.42476	-320.81598	103.42476
10850.00000	103.12669	-324.51705	103.12669
10900.00000	102.85140	-327.24483	102.85140
10950.00000	102.53547	-329.86757	102.53547
11000.00000	102.22589	-332.72059	102.22589
11050.00000	101.76664	-335.25041	101.76664
11100.00000	101.42198	-338.05944	101.42198
11150.00000	100.96155	-340.01119	100.96155
11200.00000	100.63828	-341.84214	100.63828
11250.00000	100.16088	-343.99630	100.16088
11300.00000	99.67533	-345.82445	99.67533
11350.00000	99.24151	-346.98969	99.24151
11400.00000	98.71096	-348.34905	98.71096
11450.00000	98.31143	-349.92931	98.31143
11500.00000	98.04375	-350.19121	98.04375
11550.00000	97.58465	-350.51468	97.58465
11600.00000	97.35017	-351.56265	97.35017
11650.00000	97.00617	-350.62405	97.00617
11700.00000	96.76260	-350.51912	96.76260
11750.00000	96.52319	-350.49064	96.52319
11800.00000	96.29336	-350.79620	96.29336
11850.00000	96.17947	-349.83576	96.17947
11900.00000	95.86064	-350.14783	95.86064
11950.00000	95.77192	-349.78739	95.77192
12000.00000	95.60352	-349.13033	95.60352
12050.00000	95.43159	-348.57394	95.43159
12100.00000	95.39756	-349.11156	95.39756
12150.00000	95.31017	-349.28013	95.31017
12200.00000	95.32010	-349.73107	95.32010
12250.00000	95.29495	-349.49859	95.29495
12300.00000	96.45555	-350.08969	96.45555
12350.00000	95.35059	-350.18279	95.35059
12400.00000	95.38697	-349.74483	95.38697
12450.00000	95.40961	-349.62275	95.40961
12500.00000	95.43420	-350.35921	95.43420
12550.00000	95.49553	-350.96710	95.49553
12600.00000	95.42153	-352.12994	95.42153
12650.00000	95.62010	-352.73313	95.62010
12700.00000	95.57008	-353.67531	95.57008
12750.00000	95.62269	-355.30284	95.62269
12800.00000	95.63527	-355.97176	95.63527
12850.00000	95.39449	-356.63538	95.39449
12900.00000	95.46736	-358.14044	95.46736
12950.00000	95.52328	-359.42826	95.52328
13000.00000	95.50998	-360.86172	95.50998
13050.00000	95.57525	-360.79008	95.57525
13100.00000	95.47762	-362.04904	95.47762
13150.00000	95.58561	-363.92139	95.58561
13200.00000	95.56466	-363.66344	95.56466
13250.00000	95.55055	-364.61803	95.55055
13300.00000	95.51238	-363.56448	95.51238
13350.00000	95.54111	-365.19712	95.54111
13400.00000	95.68571	-366.33718	95.68571
13450.00000	95.53990	-366.14281	95.53990
13500.00000	95.69231	-365.60890	95.69231
13550.00000	95.56045	-367.12707	95.56045
13600.00000	95.64475	-367.62230	95.64475
13650.00000	95.71678	-368.65286	95.71678
13700.00000	95.65022	-369.62974	95.65022
13750.00000	95.64323	-370.47562	95.64323
13800.00000	95.63415	-372.45045	95.63415
13850.00000	95.66178	-374.36722	95.66178
13900.00000	95.60321	-374.90710	95.60321
13950.00000	95.78270	-375.70641	95.78270
14000.00000	96.06257	-375.36364	96.06257
14050.00000	96.12320	-376.57823	96.12320
14100.00000	96.03882	-376.90160	96.03882
14150.00000	96.21984	-377.61830	96.21984
14200.00000	96.32082	-378.15568	96.32082
14250.00000	96.62136	-377.30753	96.62136
14300.00000	96.61446	-378.84776	96.61446
14350.00000	96.71087	-378.04693	96.71087
14400.00000	96.47724	-379.12845	96.47724
14450.00000	96.60391	-378.68712	96.60391
14500.00000	96.65337	-379.93195	96.65337
14550.00000	96.84514	-379.74287	96.84514
14600.00000	96.83667	-381.56830	96.83667
14650.00000	97.22854	-379.82982	97.22854
14700.00000	97.38124	-384.29494	97.38124
14750.00000	97.55869	-384.30424	97.55869
14800.00000	97.67622	-383.86781	97.67622
14850.00000	98.03429	-383.68589	98.03429
14900.00000	98.34353	-384.53220	98.34353
14950.00000	98.60090	-385.31773	98.60090
15000.00000	98.97043	-386.04696	98.97043
15050.00000	99.03954	-385.69429	99.03954
15100.00000	99.34268	-385.82697	99.34268
15150.00000	99.81344	-387.48580	99.81344
15200.00000	100.02884	-387.15906	100.02884
15250.00000	100.30022	-388.98060	100.30022
15300.00000	100.83606	-390.70784	100.83606
15350.00000	101.08668	-393.04781	101.08668
15400.00000	101.37048	-393.80845	101.37048
15450.00000	101.72287	-396.04522	101.72287
15500.00000	102.18191	-397.72957	102.18191
15550.00000	102.53134	-400.03174	102.53134
15600.00000	102.84275	-402.67410	102.84275
15650.00000	103.30769	-403.23368	103.30769
15700.00000	103.41342	-407.10337	103.41342
15750.00000	103.86005	-409.39258	103.86005
15800.00000	104.15672	-411.09737	104.15672
15850.00000	104.44074	-413.57729	104.44074
15900.00000	104.64800	-416.79404	104.64800
15950.00000	104.95830	-419.42928	104.95830
16000.00000	105.17045	-422.06066	105.17045
16050.00000	105.49038	-424.72314	105.49038
16100.00000	105.57142	-427.90004	105.57142
16150.00000	105.75940	-430.79316	105.75940
16200.00000	105.99462	-434.32185	105.99462
16250.00000	106.21811	-436.76109	106.21811
16300.00000	106.54511	-439.69003	106.54511
16350.00000	106.66847	-442.54835	106.66847
16400.00000	106.86760	-445.09392	106.86760
16450.00000	107.01634	-448.00242	107.01634
16500.00000	107.16868	-450.90324	107.16868
16550.00000	107.40524	-454.38801	107.40524
16600.00000	107.55630	-456.87545	107.55630
16650.00000	107.65875	-459.80260	107.65875
16700.00000	107.83180	-462.51121	107.83180
16750.00000	107.87915	-465.78909	107.87915
16800.00000	108.06896	-468.99420	108.06896
16850.00000	108.29699	-471.78898	108.29699
16900.00000	108.44494	-474.85865	108.44494
16950.00000	108.57834	-477.83786	108.57834
17000.00000	108.58306	-480.86723	108.58306
17050.00000	108.75970	-483.24831	108.75970
17100.00000	108.80988	-485.58832	108.80988
17150.00000	109.06465	-489.22616	109.06465
17200.00000	109.18096	-492.09699	109.18096
17250.00000	109.25230	-495.59381	109.25230
17300.00000	109.44429	-498.64994	109.44429
17350.00000	109.43508	-501.54431	109.43508
17400.00000	109.60896	-504.73685	109.60896
17450.00000	109.65263	-508.29186	109.65263
17500.00000	109.79104	-511.37036	109.79104
17550.00000	109.87562	-514.64676	109.87562
17600.00000	110.04681	-517.55248	110.04681
17650.00000	110.11260	-521.75250	110.11260
17700.00000	110.14983	-525.20891	110.14983
17750.00000	110.33278	-527.86546	110.33278
17800.00000	110.28370	-531.93948	110.28370
17850.00000	110.34165	-535.09380	110.34165
17900.00000	110.33582	-538.64893	110.33582
17950.00000	110.46408	-542.35873	110.46408
18000.00000	110.45122	-546.38164	110.45122
18050.00000	110.57760	-549.39839	110.57760
18100.00000	110.49004	-553.44993	110.49004
18150.00000	110.45564	-556.43756	110.45564
18200.00000	110.36773	-560.57527	110.36773
18250.00000	110.41168	-563.21174	110.41168
18300.00000	110.41219	-566.72446	110.41219
18350.00000	110.33543	-570.06400	110.33543
18400.00000	110.21729	-573.72025	110.21729
18450.00000	110.11506	-578.28764	110.11506
18500.00000	110.06285	-581.37837	110.06285
18550.00000	109.94334	-584.16658	109.94334
18600.00000	109.93527	-587.83687	109.93527
18650.00000	109.67549	-590.75148	109.67549
18700.00000	109.55871	-594.42071	109.55871
18750.00000	109.50325	-597.32874	109.50325
18800.00000	109.48020	-599.64318	109.48020
18850.00000	109.22628	-602.93933	109.22628
18900.00000	109.07790	-605.58441	109.07790
18950.00000	108.98455	-608.98393	108.98455
19000.00000	108.73318	-611.41502	108.73318
19050.00000	108.73773	-614.08755	108.73773
19100.00000	108.55508	-616.53422	108.55508
19150.00000	108.56242	-618.93456	108.56242
19200.00000	108.42619	-621.34833	108.42619
19250.00000	108.30158	-624.89738	108.30158
19300.00000	108.14165	-626.61661	108.14165
19350.00000	108.06116	-629.21448	108.06116
19400.00000	107.91910	-631.49031	107.91910
19450.00000	107.91453	-633.43756	107.91453
19500.00000	107.75973	-636.78497	107.75973
19550.00000	107.68149	-639.02858	107.68149
19600.00000	107.68829	-641.94123	107.68829
19650.00000	107.53703	-644.05996	107.53703
19700.00000	107.34769	-646.65296	107.34769
19750.00000	107.27765	-648.56723	107.27765
19800.00000	107.28380	-651.91318	107.28380
19850.00000	107.23053	-654.04502	107.23053
19900.00000	107.08901	-657.36086	107.08901
19950.00000	106.95701	-659.78255	106.95701
20000.00000	106.89941	-662.41766	106.89941
20050.00000	106.82557	-664.92619	106.82557
20100.00000	106.64841	-667.59192	106.64841
20150.00000	106.58975	-669.30173	106.58975
20200.00000	106.45206	-672.69796	106.45206
20250.00000	106.29334	-675.22225	106.29334
20300.00000	106.10008	-677.79766	106.10008
20350.00000	106.03991	-680.53725	106.03991
20400.00000	105.82167	-682.28687	105.82167
20450.00000	105.58107	-684.96717	105.58107
20500.00000	105.48194	-687.66275	105.48194
20550.00000	105.09175	-689.27832	105.09175
20600.00000	104.98718	-691.21140	104.98718
20650.00000	104.78042	-693.43894	104.78042
20700.00000	104.51419	-695.32278	104.51419
20750.00000	104.38305	-697.06894	104.38305
20800.00000	104.12158	-698.35180	104.12158
20850.00000	103.96791	-699.90482	103.96791
20900.00000	103.68508	-701.23939	103.68508
20950.00000	103.47554	-701.96489	103.47554
21000.00000	103.29489	-702.71858	103.29489
21050.00000	103.28549	-703.15828	103.28549
21100.00000	103.11678	-703.46604	103.11678
21150.00000	103.08582	-704.38477	103.08582
21200.00000	103.08043	-704.62801	103.08043
21250.00000	103.05325	-706.35268	103.05325
21300.00000	103.11648	-706.43026	103.11648
21350.00000	103.10463	-707.01368	103.10463
21400.00000	103.13049	-708.49144	103.13049
21450.00000	103.20959	-709.59463	103.20959
21500.00000	103.29105	-711.04353	103.29105
21550.00000	103.24896	-712.05570	103.24896
21600.00000	103.37802	-713.59837	103.37802
21650.00000	103.38005	-715.38428	103.38005
21700.00000	103.45093	-716.68517	103.45093
21750.00000	103.52823	-718.33289	103.52823
21800.00000	103.53513	-719.80800	103.53513
21850.00000	103.50552	-721.36857	103.50552
21900.00000	103.56466	-723.31345	103.56466
21950.00000	103.59014	-724.61899	103.59014
22000.00000	103.69364	-725.93149	103.69364
22050.00000	103.67736	-727.12405	103.67736
22100.00000	103.67619	-729.04263	103.67619
22150.00000	103.72621	-730.49479	103.72621
22200.00000	103.84642	-732.09274	103.84642
22250.00000	103.84432	-733.05348	103.84432
22300.00000	103.77226	-734.78560	103.77226
22350.00000	103.93415	-736.73350	103.93415
22400.00000	104.04310	-738.50536	104.04310
22450.00000	104.04263	-739.70020	104.04263
22500.00000	104.03833	-740.25870	104.03833
22550.00000	104.05939	-742.32633	104.05939
22600.00000	104.15821	-744.97539	104.15821
22650.00000	104.21449	-746.48245	104.21449
22700.00000	104.29787	-748.01592	104.29787
22750.00000	104.33616	-747.63863	104.33616
22800.00000	104.40197	-751.99664	104.40197
22850.00000	104.54959	-754.27229	104.54959
22900.00000	104.65302	-754.16615	104.65302
22950.00000	104.68734	-756.09551	104.68734
23000.00000	104.71351	-757.60246	104.71351
23050.00000	104.76807	-760.14110	104.76807
23100.00000	104.95081	-760.94981	104.95081
23150.00000	104.88465	-761.88068	104.88465
23200.00000	105.07378	-765.14010	105.07378
23250.00000	104.94929	-767.86975	104.94929
23300.00000	105.29854	-769.76556	105.29854
23350.00000	105.14606	-771.46000	105.14606
23400.00000	105.18489	-773.18395	105.18489
23450.00000	105.35991	-775.47317	105.35991
23500.00000	105.29882	-776.88748	105.29882
23550.00000	105.33936	-777.38519	105.33936
23600.00000	105.38921	-780.68355	105.38921
23650.00000	105.50536	-782.64614	105.50536
23700.00000	105.76322	-786.63265	105.76322
23750.00000	105.75774	-787.58114	105.75774
23800.00000	105.55865	-788.29966	105.55865
23850.00000	105.72583	-789.79102	105.72583
23900.00000	106.21758	-792.40339	106.21758
23950.00000	105.96528	-795.56797	105.96528
24000.00000	105.92966	-798.31649	105.92966
24050.00000	106.13058	-798.92998	106.13058
24100.00000	106.48307	-802.93585	106.48307
24150.00000	106.48148	-805.20775	106.48148
24200.00000	106.56035	-808.66580	106.56035
24250.00000	106.29516	-809.54925	106.29516
24300.00000	106.74329	-812.83188	106.74329
24350.00000	106.59756	-815.69922	106.59756
24400.00000	106.60816	-819.28082	106.60816
24450.00000	106.40344	-820.90823	106.40344
24500.00000	106.88128	-823.17045	106.88128
24550.00000	106.73221	-468.60197	106.73221
24600.00000	107.18153	-109.64603	107.18153
24650.00000	106.84069	245.30072	106.84069
24700.00000	106.74968	604.67693	106.74968
24750.00000	106.79418	959.55534	106.79418
24800.00000	106.74795	1317.12089	106.74795
24850.00000	106.40428	1675.09791	106.40428
24900.00000	106.46556	2033.48923	106.46556
24950.00000	106.52935	2388.82576	106.52935
25000.00000	106.51872	2380.80414	106.51872
25050.00000	106.42483	2382.77616	106.42483
25100.00000	105.88437	2378.02763	105.88437
25150.00000	106.16173	2376.72995	106.16173
25200.00000	105.81455	2372.96919	105.81455
25250.00000	105.89587	2372.22514	105.89587
25300.00000	105.87214	2370.56525	105.87214
25350.00000	105.65263	2363.53227	105.65263
25400.00000	105.55106	2360.71329	105.55106
25450.00000	105.48866	2359.12278	105.48866
25500.00000	105.30504	2357.39196	105.30504
25550.00000	105.23650	2353.73899	105.23650
25600.00000	105.14652	2351.68914	105.14652
25650.00000	104.97826	2350.57880	104.97826
25700.00000	105.02684	2347.78593	105.02684
25750.00000	104.72045	2344.89248	104.72045
25800.00000	104.72693	2341.57653	104.72693
25850.00000	104.59546	2339.33905	104.59546
25900.00000	104.53727	2336.14508	104.53727
25950.00000	104.32844	2337.64510	104.32844
26000.00000	104.30729	2332.89013	104.30729
26050.00000	104.30984	2330.65605	104.30984
26100.00000	104.15220	2328.95131	104.15220
26150.00000	104.13720	2326.44951	104.13720
26200.00000	104.22941	2323.80077	104.22941
26250.00000	104.10847	2321.12387	104.10847
26300.00000	104.15527	2318.11503	104.15527
26350.00000	103.72378	2317.41793	103.72378
26400.00000	103.76568	2315.00855	103.76568
26450.00000	104.07006	2311.09836	104.07006
26500.00000	103.80720	2308.29825	103.80720
26550.00000	103.75028	2302.99604	103.75028
26600.00000	103.59030	2301.02357	103.59030
26650.00000	103.76388	2300.81073	103.76388
26700.00000	103.71113	2296.81894	103.71113
26750.00000	103.41917	2293.61566	103.41917
26800.00000	103.32726	2288.38671	103.32726
26850.00000	103.60097	2287.47661	103.60097
26900.00000	103.49999	2284.96788	103.49999
26950.00000	103.52652	2280.50697	103.52652
27000.00000	103.05427	2278.61061	103.05427
27050.00000	103.31392	2274.85485	103.31392
27100.00000	102.83778	2272.77851	102.83778
27150.00000	102.79067	2269.05673	102.79067
27200.00000	102.83539	2266.39728	102.83539
27250.00000	102.20414	2264.22328	102.20414
27300.00000	101.93767	2260.63723	101.93767
27350.00000	101.97028	2259.45258	101.97028
27400.00000	101.38118	2255.35822	101.38118
27450.00000	101.28424	2253.83069	101.28424
27500.00000	101.20348	2250.99853	101.20348
27550.00000	101.09812	2248.73587	101.09812
27600.00000	101.11163	2244.88265	101.11163
27650.00000	100.44974	2244.87438	100.44974
27700.00000	100.33661	2239.19578	100.33661
27750.00000	100.02687	2237.56976	100.02687
27800.00000	99.95781	2234.16852	99.95781
27850.00000	99.97107	2235.23419	99.97107
27900.00000	99.46629	2234.11536	99.46629
27950.00000	98.68095	2232.27397	98.68095
28000.00000	98.65790	2230.96000	98.65790
28050.00000	99.09318	2228.33864	99.09318
28100.00000	98.16581	2227.49918	98.16581
28150.00000	98.20422	2226.49206	98.20422
28200.00000	98.14475	2222.75396	98.14475
28250.00000	97.71887	2220.65321	97.71887
28300.00000	97.37657	2220.83650	97.37657
28350.00000	97.35457	2219.67120	97.35457
28400.00000	97.24695	2220.93375	97.24695
28450.00000	97.67609	2218.07627	97.67609
28500.00000	97.20020	2218.64083	97.20020
28550.00000	96.82320	2219.01232	96.82320
28600.00000	96.92308	2218.87237	96.92308
28650.00000	96.97306	2213.08419	96.97306
28700.00000	96.63300	2215.16442	96.63300
28750.00000	97.31861	2215.20370	97.31861
28800.00000	97.01110	2214.21795	97.01110
28850.00000	96.37688	2210.65329	96.37688
28900.00000	96.49748	2209.22315	96.49748
28950.00000	96.30068	2210.39696	96.30068
29000.00000	96.63488	2208.58383	96.63488
29050.00000	96.19112	2209.42981	96.19112
29100.00000	96.25411	2208.46640	96.25411
29150.00000	96.18286	2208.27702	96.18286
29200.00000	95.94417	2205.54844	95.94417
29250.00000	96.42169	2205.31128	96.42169
29300.00000	96.00515	2205.02620	96.00515
29350.00000	96.45366	2202.30316	96.45366
29400.00000	96.22204	2202.53899	96.22204
29450.00000	96.31763	2202.01609	96.31763
29500.00000	96.59077	2200.98943	96.59077
29550.00000	96.22557	2198.07190	96.22557
29600.00000	96.10635	2198.59383	96.10635
29650.00000	96.33917	2196.97729	96.33917
29700.00000	96.21781	2198.47761	96.21781
29750.00000	96.14097	2197.95195	96.14097
29800.00000	96.05320	2196.55674	96.05320
29850.00000	96.11384	2194.96208	96.11384
29900.00000	96.45525	2196.25112	96.45525
29950.00000	95.67091	2195.41203	95.67091
30000.00000	96.17063	2196.52378	96.17063
30050.00000	96.28761	2194.07286	96.28761
30100.00000	96.08934	2195.62682	96.08934
30150.00000	96.24339	2192.97131	96.24339
30200.00000	96.34879	2192.39339	96.34879
30250.00000	96.20062	2193.21796	96.20062
30300.00000	96.13468	2194.28109	96.13468
30350.00000	96.27107	2196.14437	96.27107
30400.00000	96.44217	2193.81018	96.44217
30450.00000	96.08803	2194.02327	96.08803
30500.00000	96.31832	2193.92712	96.31832
30550.00000	96.36070	2195.64260	96.36070
30600.00000	96.56550	2196.90628	96.56550
30650.00000	96.80601	2197.23786	96.80601
30700.00000	96.86702	2196.70376	96.86702
30750.00000	96.93746	2199.30856	96.93746
30800.00000	97.14878	2199.34961	97.14878
30850.00000	97.53714	2201.54031	97.53714
30900.00000	97.60792	2203.23008	97.60792
30950.00000	98.07330	2202.40890	98.07330
31000.00000	98.55026	2202.55890	98.55026
31050.00000	98.95011	2203.57308	98.95011
31100.00000	99.48295	2204.38666	99.48295
31150.00000	99.66281	2203.88260	99.66281
31200.00000	100.53885	2203.45122	100.53885
31250.00000	100.88777	2203.09892	100.88777
31300.00000	101.36106	2201.73368	101.36106
31350.00000	101.97298	2200.71309	101.97298
31400.00000	102.33121	2198.66130	102.33121
31450.00000	102.92554	2197.03699	102.92554
31500.00000	103.33137	2194.06477	103.33137
31550.00000	103.84404	2192.54155	103.84404
31600.00000	104.40828	2188.80290	104.40828
31650.00000	104.72800	2186.29168	104.72800
31700.00000	105.16109	2183.90296	105.16109
31750.00000	105.61967	2181.77731	105.61967
31800.00000	105.93682	2177.66077	105.93682
31850.00000	106.30890	2174.18643	106.30890
31900.00000	106.47558	2171.40204	106.47558
31950.00000	106.82140	2167.32286	106.82140
32000.00000	107.15014	2163.78961	107.15014
32050.00000	107.42326	2160.62518	107.42326
32100.00000	107.65507	2156.20452	107.65507
32150.00000	107.91941	2153.40856	107.91941
32200.00000	108.13613	2149.12951	108.13613
32250.00000	108.23413	2144.94578	108.23413
32300.00000	108.50686	2141.49524	108.50686
32350.00000	108.51882	2138.27066	108.51882
32400.00000	108.74687	2134.97028	108.74687
32450.00000	108.84292	2130.47670	108.84292
32500.00000	109.04573	2127.30522	109.04573
32550.00000	109.20763	2122.39061	109.20763
32600.00000	109.28987	2118.89855	109.28987
32650.00000	109.39344	2114.88658	109.39344
32700.00000	109.35683	2110.71779	109.35683
32750.00000	109.41463	2106.27642	109.41463
32800.00000	109.56032	2103.19271	109.56032
32850.00000	109.63147	2099.01090	109.63147
32900.00000	109.57394	2094.08023	109.57394
32950.00000	109.50885	2089.27981	109.50885
33000.00000	109.44106	2087.92890	109.44106
33050.00000	109.36204	2082.25426	109.36204
33100.00000	109.38802	2078.71725	109.38802
33150.00000	109.26976	2076.16754	109.26976
33200.00000	109.37618	2073.14028	109.37618
33250.00000	109.11381	2068.97149	109.11381
33300.00000	109.06210	2064.24042	109.06210
33350.00000	108.90893	2061.03421	108.90893
33400.00000	108.81739	2057.90504	108.81739
33450.00000	108.66906	2053.72481	108.66906
33500.00000	108.71237	2052.48923	108.71237
33550.00000	108.30928	2047.30276	108.30928
33600.00000	108.34859	2044.46740	108.34859
33650.00000	108.19983	2041.75031	108.19983
33700.00000	108.05776	2039.09880	108.05776
33750.00000	107.74429	2036.13057	107.74429
33800.00000	107.77674	2033.09378	107.77674
33850.00000	107.30453	2030.69556	107.30453
33900.00000	107.32696	2027.45278	107.32696
33950.00000	107.12786	2025.69077	107.12786
34000.00000	106.94771	2022.13336	106.94771
34050.00000	106.70707	2019.26145	106.70707
34100.00000	106.47445	2018.94573	106.47445
34150.00000	106.38892	2016.41914	106.38892
34200.00000	106.15162	2016.13524	106.15162
34250.00000	106.03793	2011.45614	106.03793
34300.00000	105.88881	2010.66574	105.88881
34350.00000	105.80819	2008.23037	105.80819
34400.00000	105.49851	2008.56216	105.49851
34450.00000	105.41224	2004.89671	105.41224
34500.00000	105.20337	2003.19397	105.20337
34550.00000	105.34457	2003.10282	105.34457
34600.00000	104.94370	1999.51947	104.94370
34650.00000	105.03782	2001.71350	105.03782
34700.00000	104.57807	2001.45174	104.57807
34750.00000	104.82091	1995.73037	104.82091
34800.00000	104.94789	1998.15616	104.94789
34850.00000	105.06640	1998.72409	105.06640
34900.00000	105.13140	1996.73290	105.13140
34950.00000	105.00372	1996.50638	105.00372
35000.00000	105.26074	1994.36159	105.26074
35050.00000	105.26546	1994.73019	105.26546
35100.00000	105.34852	1993.73423	105.34852
35150.00000	105.31442	1993.35738	105.31442
35200.00000	105.29712	1989.18548	105.29712
35250.00000	105.45954	1988.66324	105.45954
35300.00000	105.82466	1988.12134	105.82466
35350.00000	106.00432	1986.40797	106.00432
35400.00000	106.06076	1985.36163	106.06076
35450.00000	106.38674	1983.39370	106.38674
35500.00000	106.19247	1982.37873	106.19247
35550.00000	106.62649	1982.47445	106.62649
35600.00000	106.61485	1978.67084	106.61485
35650.00000	106.89873	1978.13229	106.89873
35700.00000	107.13806	1975.73213	107.13806
35750.00000	107.05538	1975.42009	107.05538
35800.00000	107.39518	1974.48455	107.39518
35850.00000	107.76693	1970.48809	107.76693
35900.00000	107.93968	1969.29687	107.93968
35950.00000	108.17925	1966.69990	108.17925
36000.00000	108.26929	1965.84745	108.26929
36050.00000	108.72141	1962.01925	108.72141
36100.00000	108.92953	1960.09607	108.92953
36150.00000	108.95714	1957.63592	108.95714
36200.00000	109.12712	1954.61967	109.12712
36250.00000	109.19332	1951.77111	109.19332
36300.00000	109.13771	1950.57043	109.13771
36350.00000	109.55099	1948.39845	109.55099
36400.00000	109.50731	1948.05746	109.50731
36450.00000	109.49297	1943.00265	109.49297
36500.00000	110.01741	1941.39324	110.01741
36550.00000	109.94875	1937.28045	109.94875
36600.00000	110.01045	1934.82814	110.01045
36650.00000	110.30721	1933.28598	110.30721
36700.00000	110.42943	1930.64150	110.42943
36750.00000	110.56073	1926.89128	110.56073
36800.00000	110.56791	1925.01260	110.56791
36850.00000	110.55812	1922.09211	110.55812
36900.00000	110.80644	1920.04145	110.80644
36950.00000	110.76986	1917.36986	110.76986
37000.00000	110.50104	1914.89076	110.50104
37050.00000	110.58643	1913.33684	110.58643
37100.00000	110.85919	1910.40356	110.85919
37150.00000	110.89003	1908.31297	110.89003
37200.00000	111.27406	1907.31336	111.27406
37250.00000	110.91272	1904.63674	110.91272
37300.00000	111.00304	1902.80043	111.00304
37350.00000	111.39331	1900.45418	111.39331
37400.00000	111.29075	1899.32767	111.29075
37450.00000	111.22668	1896.43381	111.22668
37500.00000	111.81624	1894.74968	111.81624
37550.00000	111.64617	1893.86551	111.64617
37600.00000	111.96320	1891.28627	111.96320
37650.00000	111.97122	1889.17539	111.97122
37700.00000	112.32119	1886.58293	112.32119
37750.00000	112.43087	1885.13048	112.43087
37800.00000	112.51311	1882.36090	112.51311
37850.00000	112.72884	1878.71449	112.72884
37900.00000	112.97854	1876.82958	112.97854
37950.00000	113.23893	1875.55588	113.23893
38000.00000	113.35861	1873.29572	113.35861
38050.00000	113.73815	1870.37807	113.73815
38100.00000	114.08913	1867.22949	114.08913
38150.00000	114.28691	1863.26223	114.28691
38200.00000	114.67108	1859.75057	114.67108
38250.00000	114.85665	1856.67519	114.85665
38300.00000	115.24026	1851.75993	115.24026
38350.00000	115.36136	1848.72258	115.36136
38400.00000	115.61638	1844.45794	115.61638
38450.00000	115.87837	1839.32274	115.87837
38500.00000	116.09653	1834.61976	116.09653
38550.00000	116.32877	1830.01905	116.32877
38600.00000	116.49560	1825.24266	116.49560
38650.00000	116.58521	1819.79390	116.58521
38700.00000	116.62073	1815.00472	116.62073
38750.00000	116.76144	1809.82387	116.76144
38800.00000	116.84871	1804.73945	116.84871
38850.00000	116.79606	1799.42936	116.79606
38900.00000	116.86946	1794.41159	116.86946
38950.00000	116.77309	1788.88590	116.77309
39000.00000	116.65322	1783.60176	116.65322
39050.00000	116.63072	1778.62931	116.63072
39100.00000	116.42473	1773.98582	116.42473
39150.00000	116.22166	1768.83906	116.22166
39200.00000	116.10336	1764.59765	116.10336
39250.00000	115.97853	1759.92161	115.97853
39300.00000	115.73174	1755.54836	115.73174
39350.00000	115.52709	1751.57843	115.52709
39400.00000	115.31003	1747.19013	115.31003
39450.00000	115.10641	1743.10885	115.10641
39500.00000	114.94158	1738.96378	114.94158
39550.00000	114.69032	1734.70956	114.69032
39600.00000	114.38046	1730.41246	114.38046
39650.00000	114.15527	1727.36753	114.15527
39700.00000	113.87148	1723.63050	113.87148
39750.00000	113.60347	1719.44504	113.60347
39800.00000	113.43574	1715.81598	113.43574
39850.00000	113.08243	1712.94858	113.08243
39900.00000	112.77977	1709.98367	112.77977
39950.00000	112.45549	1706.72279	112.45549
40000.00000	112.06786	1704.44884	112.06786
40050.00000	111.93254	1700.94905	111.93254
40100.00000	111.64583	1698.28888	111.64583
40150.00000	111.30721	1695.17878	111.30721
40200.00000	111.03642	1692.40610	111.03642
40250.00000	110.74818	1689.90538	110.74818
40300.00000	110.55510	1688.00512	110.55510
40350.00000	110.06552	1685.89446	110.06552
40400.00000	109.86084	1683.85827	109.86084
40450.00000	109.50045	1681.78731	109.50045
40500.00000	109.33311	1680.68801	109.33311
40550.00000	109.08715	1677.47953	109.08715
40600.00000	108.73993	1676.86856	108.73993
40650.00000	108.45288	1676.19828	108.45288
40700.00000	108.12329	1674.91715	108.12329
40750.00000	108.04028	1673.82471	108.04028
40800.00000	107.80826	1671.95793	107.80826
40850.00000	107.45743	1672.54444	107.45743
40900.00000	107.20586	1670.44467	107.20586
40950.00000	106.81500	1671.11110	106.81500
41000.00000	106.59388	1670.14944	106.59388
41050.00000	106.51811	1670.63233	106.51811
41100.00000	106.47426	1669.94544	106.47426
41150.00000	106.37356	1671.31483	106.37356
41200.00000	106.34543	1670.52230	106.34543
41250.00000	106.10785	1669.31852	106.10785
41300.00000	105.91437	1671.12037	105.91437
41350.00000	105.90714	1671.28030	105.90714
41400.00000	105.87049	1667.57938	105.87049
41450.00000	105.70412	1671.19096	105.70412
41500.00000	105.72525	1670.35093	105.72525
41550.00000	105.74991	1673.72250	105.74991
41600.00000	105.37745	1673.54392	105.37745
41650.00000	106.00810	1672.52430	106.00810
41700.00000	106.15874	1672.87598	106.15874
41750.00000	105.93323	1679.69605	105.93323
41800.00000	105.14463	1672.42569	105.14463
41850.00000	105.23398	1675.36397	105.23398
41900.00000	105.32636	1677.05618	105.32636
41950.00000	106.40993	1682.17772	106.40993
42000.00000	105.62998	1675.27829	105.62998
42050.00000	104.97244	1675.42688	104.97244
42100.00000	105.55440	1676.40551	105.55440
42150.00000	104.89302	1673.04077	104.89302
42200.00000	105.42363	1677.76891	105.42363
42250.00000	105.49460	1678.31888	105.49460
42300.00000	104.10119	1676.82632	104.10119
42350.00000	105.28405	1674.90789	105.28405
42400.00000	105.21076	1678.78009	105.21076
42450.00000	105.53408	1672.79875	105.53408
42500.00000	105.25442	1674.26770	105.25442
42550.00000	105.44252	1683.84092	105.44252
42600.00000	105.07753	1675.06363	105.07753
42650.00000	104.71917	1676.35484	104.71917
42700.00000	105.04876	1675.88252	105.04876
42750.00000	106.00897	1674.98001	106.00897
42800.00000	105.33630	1662.91408	105.33630
42850.00000	105.23506	1664.65560	105.23506
42900.00000	106.82371	1669.14639	106.82371
42950.00000	105.91143	1663.01453	105.91143
43000.00000	106.34822	1654.10160	106.34822
43050.00000	106.13620	1649.15823	106.13620
43100.00000	106.78587	1652.84829	106.78587
43150.00000	105.81719	1649.14558	105.81719
43200.00000	106.36347	1643.49781	106.36347
43250.00000	106.47230	1641.47766	106.47230
43300.00000	106.42893	1637.46090	106.42893
43350.00000	107.28465	1632.52017	107.28465
43400.00000	106.62856	1629.22883	106.62856
43450.00000	107.63158	1628.17871	107.63158
43500.00000	107.05208	1617.49932	107.05208
43550.00000	107.44126	1614.71946	107.44126
43600.00000	107.04938	1610.77211	107.04938
43650.00000	107.77749	1598.62717	107.77749
43700.00000	107.53190	1601.26233	107.53190
43750.00000	106.67750	1599.18411	106.67750
43800.00000	107.55035	1588.55257	107.55035
43850.00000	107.91115	1581.64303	107.91115
43900.00000	108.17835	1580.06529	108.17835
43950.00000	108.29952	1572.76795	108.29952
44000.00000	107.76103	1570.08344	107.76103
44050.00000	108.02187	1563.39902	108.02187
44100.00000	108.08531	1552.87083	108.08531
44150.00000	107.77762	1552.99270	107.77762
44200.00000	107.70424	1551.10539	107.70424
44250.00000	108.20496	1544.06096	108.20496
44300.00000	108.10516	1537.56577	108.10516
44350.00000	108.29830	1535.49578	108.29830
44400.00000	107.97659	1526.52199	107.97659
44450.00000	108.29363	1522.38334	108.29363
44500.00000	107.93729	1519.96413	107.93729
44550.00000	109.18346	1508.70021	109.18346
44600.00000	107.81373	1509.32587	107.81373
44650.00000	107.13818	1500.16615	107.13818
44700.00000	107.28996	1494.39416	107.28996
44750.00000	107.70154	1494.70258	107.70154
44800.00000	108.00583	1486.03848	108.00583
44850.00000	107.37982	1480.33501	107.37982
44900.00000	107.10359	1480.00498	107.10359
44950.00000	107.23372	1471.28955	107.23372
45000.00000	107.16547	1464.86147	107.16547
45050.00000	105.82574	1470.97686	105.82574
45100.00000	106.22873	1460.56272	106.22873
45150.00000	106.07711	1448.13700	106.07711
45200.00000	105.56274	1452.52835	105.56274
45250.00000	105.19507	1447.85885	105.19507
45300.00000	105.29457	1442.95500	105.29457
45350.00000	104.64521	1433.16103	104.64521
45400.00000	104.45249	1434.26502	104.45249
45450.00000	104.50222	1425.60295	104.50222
45500.00000	102.71678	1420.22195	102.71678
45550.00000	102.93420	1423.86392	102.93420
45600.00000	103.64064	1413.47818	103.64064
45650.00000	102.07584	1411.65756	102.07584
45700.00000	101.82817	1409.24804	101.82817
45750.00000	102.28065	1410.29774	102.28065
45800.00000	100.84535	1399.30375	100.84535
45850.00000	100.76618	1402.50946	100.76618
45900.00000	100.63071	1396.72472	100.63071
45950.00000	99.88696	1397.96412	99.88696
46000.00000	98.33883	1378.13942	98.33883
46050.00000	98.60853	1383.68995	98.60853
46100.00000	97.95145	1388.76712	97.95145
46150.00000	97.55596	1388.17960	97.55596
46200.00000	95.56447	1376.29462	95.56447
46250.00000	96.56860	1375.96322	96.56860
46300.00000	95.17681	1377.08454	95.17681
46350.00000	96.49895	1371.38890	96.49895
46400.00000	94.32960	1368.20515	94.32960
46450.00000	92.60440	1370.84288	92.60440
46500.00000	94.14323	1375.16596	94.14323
46550.00000	93.50598	1379.03237	93.50598
46600.00000	93.14286	1380.84970	93.14286
46650.00000	91.08675	1377.43783	91.08675
46700.00000	89.99451	1386.02470	89.99451
46750.00000	92.10967	1393.53265	92.10967
46800.00000	89.41945	1390.31814	89.41945
46850.00000	91.38081	1041.06645	91.38081
46900.00000	90.88325	1032.35303	90.88325
46950.00000	91.66344	1033.02256	91.66344
47000.00000	91.38782	1035.63238	91.38782
47050.00000	94.27615	1027.83723	94.27615
47100.00000	92.74201	1029.37285	92.74201
47150.00000	92.60666	1021.77574	92.60666
47200.00000	92.36538	1027.36487	92.36538
47250.00000	93.89162	1030.44870	93.89162
47300.00000	94.08809	1019.39694	94.08809
47350.00000	93.07328	673.23617	93.07328
47400.00000	92.70975	661.95875	92.70975
47450.00000	93.54136	665.45540	93.54136
47500.00000	91.32896	650.78764	91.32896
47550.00000	91.05075	297.40723	91.05075
47600.00000	91.05513	295.59165	91.05513
47650.00000	93.15913	293.26720	93.15913
47700.00000	91.54398	287.52278	91.54398
47750.00000	89.77510	299.17650	89.77510
47800.00000	91.38359	278.74766	91.38359
47850.00000	91.02455	-75.89893	91.02455
47900.00000	90.35731	-426.12132	90.35731
47950.00000	90.92127	-427.42049	90.92127
48000.00000	90.15427	-421.94995	90.15427
48050.00000	92.23301	-435.41221	92.23301
48100.00000	89.71917	-433.27207	89.71917
48150.00000	91.53997	-787.70042	91.53997
48200.00000	91.93840	-786.08836	91.93840
48250.00000	90.88869	-793.33382	90.88869
48300.00000	91.67182	-790.34499	91.67182
48350.00000	90.83327	-801.13784	90.83327
48400.00000	91.78397	-1145.19433	91.78397
48450.00000	92.42252	-1153.48195	92.42252
48500.00000	91.60305	-1158.33705	91.60305
48550.00000	90.54258	-1164.37718	90.54258
48600.00000	92.66773	-1514.61239	92.66773
48650.00000	92.98537	-1524.00631	92.98537
48700.00000	92.98922	-1528.19657	92.98922
48750.00000	91.87624	-1882.30927	91.87624
48800.00000	93.23797	-1894.37435	93.23797
48850.00000	92.35249	-1890.11804	92.35249
48900.00000	90.50975	-2248.97170	90.50975
48950.00000	91.52523	-2262.36539	91.52523
49000.00000	92.28056	-2265.25799	92.28056
49050.00000	90.92987	-2274.37779	90.92987
49100.00000	90.16130	-2628.51822	90.16130
49150.00000	92.25569	-2988.38270	92.25569
49200.00000	93.47667	-3001.73222	93.47667
49250.00000	92.27818	-3350.62930	92.27818
49300.00000	92.54167	-2998.52048	92.54167
49350.00000	89.88294	-2987.53937	89.88294
49400.00000	91.51040	-2658.34171	91.51040
49450.00000	88.80518	-2295.55135	88.80518
49500.00000	88.99837	-1948.27568	88.99837
49550.00000	89.26429	-1560.68608	89.26429
49600.00000	87.33731	-1580.54285	87.33731
49650.00000	87.42549	-1554.79393	87.42549
49700.00000	88.84167	-1238.98253	88.84167
49750.00000	91.29236	-1226.88403	91.29236
49800.00000	87.38547	-1216.05253	87.38547
49850.00000	83.53752	-1256.05985	83.53752
49900.00000	79.57171	-865.16752	79.57171
49950.00000	83.60587	-460.54865	83.60587
