---ACOUSTIC CALIBRATION---
Filename: C:\Data\CL0809 DATA\CL08093\RightPrimary.calib
Date: 8/9/2019 12:23:56 PM
Format: 4
Probe Tube Correction File: C:\Data\Probe Tube Calibrations\74_ProbeTube.calib
Experiment VIs: 2128
EPL_CFTS.exe V15.0.1f5 (2015)
DAQmx V15.1

Attenuation (dB): 40.000000
Min Freq (Hz): 50.000000
Max Freq (Hz): 99950.000000
Freq Step (Hz): 50.000000
Sample Rate (Hz): 200000.000000
[Smoothing]
Method=None
MA.Iterations=0
MA.Length=0
Loess.Length=0
Loess.Type=Linear
Loess.Robust=FALSE


Freq(Hz)	Mag(dB)	Phase(deg)	Unsmoothed(dB)

50.00000	97.77804	142.45306	97.77804
100.00000	64.72207	44.29981	64.72207
150.00000	72.20434	263.84502	72.20434
200.00000	62.99524	467.13276	62.99524
250.00000	60.75407	598.64137	60.75407
300.00000	65.58139	778.08898	65.58139
350.00000	61.82303	991.79415	61.82303
400.00000	61.88802	1074.98880	61.88802
450.00000	62.81339	1115.44612	62.81339
500.00000	65.56101	1223.58943	65.56101
550.00000	69.06751	1168.96517	69.06751
600.00000	68.04153	1152.54931	68.04153
650.00000	75.99398	1131.32778	75.99398
700.00000	73.27465	1129.47078	73.27465
750.00000	76.84212	1092.72455	76.84212
800.00000	76.99088	1091.14452	76.99088
850.00000	75.96133	1088.34876	75.96133
900.00000	77.07586	1094.61707	77.07586
950.00000	79.62005	1086.64989	79.62005
1000.00000	81.53548	1091.22549	81.53548
1050.00000	84.33962	1080.56117	84.33962
1100.00000	87.01805	1067.59027	87.01805
1150.00000	88.59183	1052.01051	88.59183
1200.00000	89.32825	1039.07396	89.32825
1250.00000	89.65429	1028.25123	89.65429
1300.00000	90.42881	1022.18827	90.42881
1350.00000	91.87823	1012.01340	91.87823
1400.00000	92.47687	1000.35165	92.47687
1450.00000	92.75050	988.40348	92.75050
1500.00000	92.78860	980.75080	92.78860
1550.00000	92.93296	973.14605	92.93296
1600.00000	93.44119	968.98983	93.44119
1650.00000	94.11804	965.94685	94.11804
1700.00000	97.83628	950.85508	97.83628
1750.00000	94.88081	931.11231	94.88081
1800.00000	94.52234	926.10117	94.52234
1850.00000	94.21139	919.23793	94.21139
1900.00000	93.99628	913.47532	93.99628
1950.00000	93.55626	909.13456	93.55626
2000.00000	93.14783	906.56206	93.14783
2050.00000	93.51092	905.82561	93.51092
2100.00000	94.12748	900.15348	94.12748
2150.00000	94.64558	892.05910	94.64558
2200.00000	94.29253	879.81994	94.29253
2250.00000	93.22754	874.44505	93.22754
2300.00000	92.81281	872.94002	92.81281
2350.00000	92.87354	868.42963	92.87354
2400.00000	92.89071	863.01444	92.89071
2450.00000	92.50774	855.05732	92.50774
2500.00000	91.76141	851.55642	91.76141
2550.00000	91.28262	847.24566	91.28262
2600.00000	90.82712	843.01165	90.82712
2650.00000	90.21830	840.54789	90.21830
2700.00000	89.66885	837.72078	89.66885
2750.00000	89.13334	835.69798	89.13334
2800.00000	88.78770	833.19598	88.78770
2850.00000	88.22909	831.13543	88.22909
2900.00000	87.79691	830.61483	87.79691
2950.00000	87.48091	829.89846	87.48091
3000.00000	87.27748	829.93051	87.27748
3050.00000	87.13789	828.10004	87.13789
3100.00000	86.96693	825.60933	86.96693
3150.00000	86.50713	823.46251	86.50713
3200.00000	86.07169	821.45159	86.07169
3250.00000	85.69988	819.79297	85.69988
3300.00000	85.04771	820.44609	85.04771
3350.00000	84.71225	819.76154	84.71225
3400.00000	84.22849	819.40043	84.22849
3450.00000	83.93315	819.25320	83.93315
3500.00000	83.37872	818.79256	83.37872
3550.00000	83.01952	816.06162	83.01952
3600.00000	81.80149	815.38232	81.80149
3650.00000	80.61744	818.65504	80.61744
3700.00000	79.25524	824.15798	79.25524
3750.00000	78.21588	831.43077	78.21588
3800.00000	77.70595	844.56060	77.70595
3850.00000	77.63940	853.89342	77.63940
3900.00000	78.31046	863.24962	78.31046
3950.00000	78.19606	873.04426	78.19606
4000.00000	78.74316	886.15795	78.74316
4050.00000	80.77210	899.68016	80.77210
4100.00000	82.73557	905.12615	82.73557
4150.00000	85.34326	906.69600	85.34326
4200.00000	87.13838	906.97386	87.13838
4250.00000	88.08840	898.75838	88.08840
4300.00000	88.96239	900.63501	88.96239
4350.00000	90.32198	902.26900	90.32198
4400.00000	92.12071	899.27756	92.12071
4450.00000	93.20912	893.13931	93.20912
4500.00000	94.18278	888.12218	94.18278
4550.00000	94.79105	883.58878	94.79105
4600.00000	95.37408	879.96719	95.37408
4650.00000	96.05609	879.05027	96.05609
4700.00000	96.94849	877.80686	96.94849
4750.00000	98.00118	875.92645	98.00118
4800.00000	99.12106	873.20973	99.12106
4850.00000	100.26819	869.63905	100.26819
4900.00000	101.45920	864.93594	101.45920
4950.00000	102.67584	860.01201	102.67584
5000.00000	103.93280	854.17192	103.93280
5050.00000	105.30940	847.62060	105.30940
5100.00000	106.89246	839.82076	106.89246
5150.00000	108.80049	829.50653	108.80049
5200.00000	111.21107	812.80199	111.21107
5250.00000	113.41954	779.54641	113.41954
5300.00000	111.22488	732.51683	111.22488
5350.00000	105.31501	710.98143	105.31501
5400.00000	100.16705	715.22622	100.16705
5450.00000	97.68504	727.50279	97.68504
5500.00000	95.73959	734.21048	95.73959
5550.00000	93.47583	750.39888	93.47583
5600.00000	93.77832	774.41218	93.77832
5650.00000	95.97358	786.84258	95.97358
5700.00000	98.02330	788.04357	98.02330
5750.00000	99.46731	784.17588	99.46731
5800.00000	100.17677	779.62678	100.17677
5850.00000	100.48966	776.08962	100.48966
5900.00000	100.71133	774.37231	100.71133
5950.00000	101.06271	774.03423	101.06271
6000.00000	101.58037	773.93657	101.58037
6050.00000	102.22544	773.31566	102.22544
6100.00000	102.94035	772.12572	102.94035
6150.00000	103.68641	770.44252	103.68641
6200.00000	104.49234	768.52933	104.49234
6250.00000	105.33094	765.98206	105.33094
6300.00000	106.25101	762.85380	106.25101
6350.00000	107.22381	758.86715	107.22381
6400.00000	108.20982	753.98891	108.20982
6450.00000	109.18124	747.87712	109.18124
6500.00000	110.05653	740.77496	110.05653
6550.00000	110.87164	732.96032	110.87164
6600.00000	111.56987	724.43056	111.56987
6650.00000	112.16620	715.27088	112.16620
6700.00000	112.64838	705.35725	112.64838
6750.00000	112.95078	694.72218	112.95078
6800.00000	113.00583	683.75270	113.00583
6850.00000	112.80376	673.12843	112.80376
6900.00000	112.39447	663.38963	112.39447
6950.00000	111.85924	654.84932	111.85924
7000.00000	111.28507	647.39845	111.28507
7050.00000	110.69533	640.90578	110.69533
7100.00000	110.11018	635.31379	110.11018
7150.00000	109.56765	630.28558	109.56765
7200.00000	109.07014	625.72215	109.07014
7250.00000	108.62389	621.42052	108.62389
7300.00000	108.20739	617.39055	108.20739
7350.00000	107.83832	613.27198	107.83832
7400.00000	107.45578	609.15613	107.45578
7450.00000	107.07018	605.10617	107.07018
7500.00000	106.66734	601.10446	106.66734
7550.00000	106.26305	597.27965	106.26305
7600.00000	105.83251	593.52203	105.83251
7650.00000	105.39923	589.94940	105.39923
7700.00000	104.95137	586.70412	104.95137
7750.00000	104.49501	583.77862	104.49501
7800.00000	104.04757	581.27192	104.04757
7850.00000	103.61712	578.85755	103.61712
7900.00000	103.23495	576.81994	103.23495
7950.00000	102.86291	574.81241	102.86291
8000.00000	102.51001	573.03164	102.51001
8050.00000	102.19218	571.40576	102.19218
8100.00000	101.89578	569.71238	101.89578
8150.00000	101.64776	568.18602	101.64776
8200.00000	101.39741	566.52787	101.39741
8250.00000	101.15220	565.08768	101.15220
8300.00000	100.97232	563.70683	100.97232
8350.00000	100.77165	562.30842	100.77165
8400.00000	100.62590	560.83616	100.62590
8450.00000	100.48727	559.32715	100.48727
8500.00000	100.35392	557.90068	100.35392
8550.00000	100.26585	556.26875	100.26585
8600.00000	100.15623	554.59851	100.15623
8650.00000	100.07271	552.96781	100.07271
8700.00000	99.95921	551.23044	99.95921
8750.00000	99.89761	549.58205	99.89761
8800.00000	99.79146	548.00806	99.79146
8850.00000	99.76441	546.61847	99.76441
8900.00000	99.69737	544.69188	99.69737
8950.00000	99.68301	543.20407	99.68301
9000.00000	99.64684	541.38743	99.64684
9050.00000	99.60406	539.58455	99.60406
9100.00000	99.63149	537.91333	99.63149
9150.00000	99.66552	535.99519	99.66552
9200.00000	99.64759	533.98932	99.64759
9250.00000	99.64891	531.81794	99.64891
9300.00000	99.70330	529.84635	99.70330
9350.00000	99.72246	527.62401	99.72246
9400.00000	99.72522	525.46256	99.72522
9450.00000	99.80513	523.31898	99.80513
9500.00000	99.84409	520.75010	99.84409
9550.00000	99.86672	518.37539	99.86672
9600.00000	99.96273	515.79376	99.96273
9650.00000	100.02366	513.02256	100.02366
9700.00000	100.02944	509.94166	100.02944
9750.00000	100.02116	506.78604	100.02116
9800.00000	99.91726	503.79506	99.91726
9850.00000	99.76873	500.89365	99.76873
9900.00000	99.53177	498.79451	99.53177
9950.00000	99.27076	498.30719	99.27076
10000.00000	99.32371	500.00326	99.32371
10050.00000	100.01164	500.35742	100.01164
10100.00000	100.72312	496.09782	100.72312
10150.00000	100.99039	490.54279	100.99039
10200.00000	101.12808	485.61653	101.12808
10250.00000	101.14573	480.96297	101.14573
10300.00000	101.13469	476.79503	101.13469
10350.00000	101.12197	472.55786	101.12197
10400.00000	101.02586	468.47078	101.02586
10450.00000	101.00312	464.34037	101.00312
10500.00000	100.93941	460.18392	100.93941
10550.00000	100.85007	456.39464	100.85007
10600.00000	100.84468	452.02265	100.84468
10650.00000	100.75642	448.02011	100.75642
10700.00000	100.69022	443.77320	100.69022
10750.00000	100.57944	439.78077	100.57944
10800.00000	100.49780	435.46887	100.49780
10850.00000	100.41771	431.16554	100.41771
10900.00000	100.29917	426.99920	100.29917
10950.00000	100.16664	422.69703	100.16664
11000.00000	100.06571	418.26293	100.06571
11050.00000	99.86684	413.82335	99.86684
11100.00000	99.70326	409.35945	99.70326
11150.00000	99.48150	404.82666	99.48150
11200.00000	99.27278	400.39109	99.27278
11250.00000	98.97414	395.36582	98.97414
11300.00000	98.67644	390.84283	98.67644
11350.00000	98.35165	386.11796	98.35165
11400.00000	97.97669	381.32311	97.97669
11450.00000	97.60043	376.66602	97.60043
11500.00000	97.19601	371.96853	97.19601
11550.00000	96.73666	367.36844	96.73666
11600.00000	96.27446	363.03050	96.27446
11650.00000	95.76334	358.51071	95.76334
11700.00000	95.27287	354.49732	95.27287
11750.00000	94.74932	350.53705	94.74932
11800.00000	94.28344	346.64749	94.28344
11850.00000	93.75788	343.07414	93.75788
11900.00000	93.21094	339.79683	93.21094
11950.00000	92.68105	336.92781	92.68105
12000.00000	92.19947	334.18705	92.19947
12050.00000	91.64391	331.63947	91.64391
12100.00000	91.08979	329.10763	91.08979
12150.00000	90.53199	326.67084	90.53199
12200.00000	90.11653	324.17499	90.11653
12250.00000	89.58539	322.26991	89.58539
12300.00000	89.05652	319.19693	89.05652
12350.00000	88.56721	316.94762	88.56721
12400.00000	88.02653	314.28062	88.02653
12450.00000	87.69882	311.22581	87.69882
12500.00000	87.33005	309.08319	87.33005
12550.00000	86.93082	305.71354	86.93082
12600.00000	86.72116	301.68411	86.72116
12650.00000	86.39146	299.19585	86.39146
12700.00000	86.06779	295.55800	86.06779
12750.00000	85.71462	292.07514	85.71462
12800.00000	85.40489	287.51600	85.40489
12850.00000	85.18229	283.66558	85.18229
12900.00000	84.95956	279.08133	84.95956
12950.00000	84.80312	273.84320	84.80312
13000.00000	84.57671	268.60718	84.57671
13050.00000	84.48374	262.28244	84.48374
13100.00000	84.69103	255.92879	84.69103
13150.00000	84.86289	250.18052	84.86289
13200.00000	85.13371	242.00960	85.13371
13250.00000	86.01284	233.01790	86.01284
13300.00000	86.99882	229.31932	86.99882
13350.00000	88.51697	223.63165	88.51697
13400.00000	89.73109	222.04436	89.73109
13450.00000	90.96090	226.87951	90.96090
13500.00000	91.03400	236.07052	91.03400
13550.00000	90.48658	238.85051	90.48658
13600.00000	89.44226	237.36819	89.44226
13650.00000	88.38264	230.60920	88.38264
13700.00000	87.66156	221.94752	87.66156
13750.00000	87.49516	208.82868	87.49516
13800.00000	87.85521	196.37358	87.85521
13850.00000	88.52102	182.72670	88.52102
13900.00000	89.41642	168.94517	89.41642
13950.00000	90.76695	157.95418	90.76695
14000.00000	92.72116	148.70308	92.72116
14050.00000	94.98611	143.85462	94.98611
14100.00000	97.44432	141.93924	97.44432
14150.00000	99.29724	150.57824	99.29724
14200.00000	99.74640	161.03363	99.74640
14250.00000	98.93166	168.51108	98.93166
14300.00000	97.76179	167.94704	97.76179
14350.00000	96.80221	162.16647	96.80221
14400.00000	96.29463	155.09768	96.29463
14450.00000	96.04810	145.94514	96.04810
14500.00000	96.07093	136.18504	96.07093
14550.00000	96.37563	125.38165	96.37563
14600.00000	96.77076	116.61551	96.77076
14650.00000	97.41698	107.42427	97.41698
14700.00000	98.30094	98.30079	98.30094
14750.00000	99.29635	90.54298	99.29635
14800.00000	100.31712	85.11428	100.31712
14850.00000	101.53160	80.96605	101.53160
14900.00000	102.69265	79.30279	102.69265
14950.00000	103.30093	79.52974	103.30093
15000.00000	103.55452	79.67391	103.55452
15050.00000	103.44439	79.94092	103.44439
15100.00000	103.15741	77.73101	103.15741
15150.00000	102.77768	73.04010	102.77768
15200.00000	102.57777	67.86613	102.57777
15250.00000	102.28132	61.49762	102.28132
15300.00000	102.11912	54.13424	102.11912
15350.00000	102.26384	46.86150	102.26384
15400.00000	102.42584	39.67599	102.42584
15450.00000	102.71663	32.07786	102.71663
15500.00000	103.12560	26.10885	103.12560
15550.00000	103.51119	21.08330	103.51119
15600.00000	104.00745	17.14164	104.00745
15650.00000	104.37795	13.53499	104.37795
15700.00000	104.45998	11.02573	104.45998
15750.00000	104.53243	 9.17183	104.53243
15800.00000	104.33712	 7.08325	104.33712
15850.00000	104.18572	 5.35888	104.18572
15900.00000	103.85721	 2.02707	103.85721
15950.00000	103.63315	-1.56938	103.63315
16000.00000	103.50726	-5.78936	103.50726
16050.00000	103.47586	-10.36014	103.47586
16100.00000	103.38501	-14.84162	103.38501
16150.00000	103.52677	-19.23349	103.52677
16200.00000	103.68477	-23.15072	103.68477
16250.00000	103.85008	-27.81499	103.85008
16300.00000	104.02721	-30.89287	104.02721
16350.00000	104.20747	-33.90461	104.20747
16400.00000	104.29261	-36.20046	104.29261
16450.00000	104.40665	-38.14469	104.40665
16500.00000	104.39994	-41.21206	104.39994
16550.00000	104.36610	-43.99120	104.36610
16600.00000	104.28472	-47.21684	104.28472
16650.00000	104.16073	-50.60230	104.16073
16700.00000	104.11912	-53.77023	104.11912
16750.00000	104.09660	-57.56745	104.09660
16800.00000	104.08254	-60.96196	104.08254
16850.00000	104.18836	-64.43435	104.18836
16900.00000	104.26010	-67.75330	104.26010
16950.00000	104.26816	-71.08010	104.26816
17000.00000	104.33230	-73.88748	104.33230
17050.00000	104.38227	-76.37577	104.38227
17100.00000	104.47617	-79.06236	104.47617
17150.00000	104.42966	-82.21160	104.42966
17200.00000	104.35267	-84.79172	104.35267
17250.00000	104.31806	-87.70241	104.31806
17300.00000	104.30165	-90.86787	104.30165
17350.00000	104.27684	-94.34672	104.27684
17400.00000	104.23750	-97.72987	104.23750
17450.00000	104.23137	-100.84644	104.23137
17500.00000	104.23796	-104.10533	104.23796
17550.00000	104.26004	-107.33442	104.26004
17600.00000	104.30444	-110.72465	104.30444
17650.00000	104.23517	-113.34247	104.23517
17700.00000	104.28437	-116.31392	104.28437
17750.00000	104.21730	-119.29265	104.21730
17800.00000	104.15395	-121.64501	104.15395
17850.00000	104.11033	-124.54744	104.11033
17900.00000	104.07997	-127.43218	104.07997
17950.00000	104.00766	-130.36455	104.00766
18000.00000	103.91076	-132.98887	103.91076
18050.00000	103.91896	-135.50097	103.91896
18100.00000	103.85901	-138.57376	103.85901
18150.00000	103.82203	-141.90979	103.82203
18200.00000	103.75573	-144.86157	103.75573
18250.00000	103.67990	-148.05736	103.67990
18300.00000	103.53898	-150.86650	103.53898
18350.00000	103.44168	-153.60337	103.44168
18400.00000	103.30984	-155.86825	103.30984
18450.00000	103.26200	-158.66484	103.26200
18500.00000	103.17593	-160.90117	103.17593
18550.00000	103.12505	-163.50935	103.12505
18600.00000	102.98984	-165.90707	102.98984
18650.00000	102.92902	-168.35125	102.92902
18700.00000	102.87093	-170.61711	102.87093
18750.00000	102.78725	-173.23087	102.78725
18800.00000	102.63403	-175.71525	102.63403
18850.00000	102.52034	-177.65723	102.52034
18900.00000	102.32999	-179.78229	102.32999
18950.00000	102.24813	-181.50860	102.24813
19000.00000	102.16987	-183.71467	102.16987
19050.00000	102.07716	-185.58217	102.07716
19100.00000	102.03660	-187.31160	102.03660
19150.00000	102.00967	-188.94442	102.00967
19200.00000	101.96243	-191.29905	101.96243
19250.00000	101.89123	-192.76319	101.89123
19300.00000	101.87799	-194.84789	101.87799
19350.00000	101.79009	-196.52548	101.79009
19400.00000	101.69446	-197.88106	101.69446
19450.00000	101.74842	-199.74584	101.74842
19500.00000	101.79970	-201.09935	101.79970
19550.00000	101.80270	-203.19695	101.80270
19600.00000	101.75355	-205.13235	101.75355
19650.00000	101.76208	-206.84612	101.76208
19700.00000	101.80433	-208.66628	101.80433
19750.00000	101.80553	-210.30584	101.80553
19800.00000	101.87575	-211.62819	101.87575
19850.00000	101.90421	-213.57582	101.90421
19900.00000	101.96714	-215.69936	101.96714
19950.00000	102.03276	-217.43704	102.03276
20000.00000	102.09770	-220.05495	102.09770
20050.00000	102.10785	-221.83685	102.10785
20100.00000	102.22729	-223.96805	102.22729
20150.00000	102.25869	-226.20820	102.25869
20200.00000	102.32801	-227.99997	102.32801
20250.00000	102.41401	-229.89729	102.41401
20300.00000	102.49958	-232.27113	102.49958
20350.00000	102.57751	-234.26124	102.57751
20400.00000	102.65017	-236.70492	102.65017
20450.00000	102.74553	-238.99030	102.74553
20500.00000	102.83468	-241.46922	102.83468
20550.00000	102.87916	-244.06072	102.87916
20600.00000	102.93184	-246.51339	102.93184
20650.00000	103.04305	-249.07776	103.04305
20700.00000	103.12526	-251.22579	103.12526
20750.00000	103.14152	-253.79053	103.14152
20800.00000	103.18079	-256.26692	103.18079
20850.00000	103.22669	-259.37509	103.22669
20900.00000	103.26632	-261.62137	103.26632
20950.00000	103.33727	-264.46658	103.33727
21000.00000	103.39227	-267.23297	103.39227
21050.00000	103.44650	-270.03681	103.44650
21100.00000	103.50077	-272.76539	103.50077
21150.00000	103.52918	-275.24483	103.52918
21200.00000	103.57484	-277.82014	103.57484
21250.00000	103.53961	-280.78820	103.53961
21300.00000	103.56035	-283.65785	103.56035
21350.00000	103.59268	-286.39361	103.59268
21400.00000	103.61280	-289.60809	103.61280
21450.00000	103.62096	-292.50803	103.62096
21500.00000	103.64958	-294.94021	103.64958
21550.00000	103.66880	-297.85900	103.66880
21600.00000	103.64087	-300.62873	103.64087
21650.00000	103.63341	-303.35605	103.63341
21700.00000	103.58927	-306.50214	103.58927
21750.00000	103.62538	-309.41293	103.62538
21800.00000	103.58506	-312.78489	103.58506
21850.00000	103.57055	-315.60589	103.57055
21900.00000	103.50346	-318.71782	103.50346
21950.00000	103.46494	-321.65158	103.46494
22000.00000	103.35407	-324.70054	103.35407
22050.00000	103.29271	-327.43470	103.29271
22100.00000	103.20243	-329.98564	103.20243
22150.00000	103.10509	-332.78299	103.10509
22200.00000	103.04587	-335.89081	103.04587
22250.00000	102.98119	-338.63345	102.98119
22300.00000	102.89885	-341.09531	102.89885
22350.00000	102.77488	-343.99626	102.77488
22400.00000	102.68942	-347.14732	102.68942
22450.00000	102.58582	-349.67412	102.58582
22500.00000	102.43927	-352.31177	102.43927
22550.00000	102.32711	-355.04159	102.32711
22600.00000	102.18110	-357.48591	102.18110
22650.00000	102.09385	-359.95302	102.09385
22700.00000	101.94044	-362.26753	101.94044
22750.00000	101.82396	-365.11329	101.82396
22800.00000	101.65514	-367.55423	101.65514
22850.00000	101.49672	-369.86744	101.49672
22900.00000	101.41879	-371.66444	101.41879
22950.00000	101.30958	-373.94278	101.30958
23000.00000	101.17666	-375.89710	101.17666
23050.00000	101.09695	-378.18125	101.09695
23100.00000	100.95215	-380.42590	100.95215
23150.00000	100.81100	-382.50196	100.81100
23200.00000	100.73657	-384.83095	100.73657
23250.00000	100.65193	-387.32161	100.65193
23300.00000	100.59972	-389.88722	100.59972
23350.00000	100.42790	-391.63596	100.42790
23400.00000	100.29801	-393.16663	100.29801
23450.00000	100.19332	-395.37500	100.19332
23500.00000	100.17667	-397.41033	100.17667
23550.00000	100.03884	-399.51167	100.03884
23600.00000	99.93193	-401.43600	99.93193
23650.00000	99.72933	-403.03448	99.72933
23700.00000	99.79588	-404.77949	99.79588
23750.00000	99.69532	-407.11575	99.69532
23800.00000	99.58582	-408.86526	99.58582
23850.00000	99.52978	-411.18895	99.52978
23900.00000	99.46205	-413.20506	99.46205
23950.00000	99.35897	-414.82234	99.35897
24000.00000	99.37639	-417.39672	99.37639
24050.00000	99.21073	-419.39977	99.21073
24100.00000	99.13743	-421.72904	99.13743
24150.00000	99.02530	-423.41870	99.02530
24200.00000	99.02197	-426.13481	99.02197
24250.00000	98.90321	-427.77700	98.90321
24300.00000	98.84806	-430.48711	98.84806
24350.00000	98.72714	-432.08483	98.72714
24400.00000	98.74773	-434.58040	98.74773
24450.00000	98.54115	-435.65768	98.54115
24500.00000	98.46315	-438.92035	98.46315
24550.00000	98.33474	-441.24934	98.33474
24600.00000	98.30284	-443.29013	98.30284
24650.00000	98.17306	-445.91830	98.17306
24700.00000	98.10182	-448.12547	98.10182
24750.00000	98.00201	-450.68769	98.00201
24800.00000	97.82260	-452.35900	97.82260
24850.00000	97.71035	-454.88284	97.71035
24900.00000	97.42957	-456.62734	97.42957
24950.00000	97.36675	-458.85346	97.36675
25000.00000	97.15472	-461.22548	97.15472
25050.00000	97.06790	-462.78146	97.06790
25100.00000	96.90123	-464.34697	96.90123
25150.00000	96.62979	-465.99250	96.62979
25200.00000	96.51985	-467.91617	96.51985
25250.00000	96.27540	-470.04449	96.27540
25300.00000	96.06914	-471.48706	96.06914
25350.00000	95.96991	-473.14634	95.96991
25400.00000	95.71674	-474.28939	95.71674
25450.00000	95.64316	-476.57997	95.64316
25500.00000	95.41124	-477.45830	95.41124
25550.00000	95.26412	-478.44798	95.26412
25600.00000	95.03357	-478.99829	95.03357
25650.00000	94.93271	-481.19577	94.93271
25700.00000	94.86251	-481.70281	94.86251
25750.00000	94.71881	-483.41263	94.71881
25800.00000	94.58685	-483.79433	94.58685
25850.00000	94.50281	-484.98574	94.50281
25900.00000	94.35119	-485.92845	94.35119
25950.00000	94.32250	-486.49758	94.32250
26000.00000	94.23938	-487.57820	94.23938
26050.00000	94.26328	-488.90957	94.26328
26100.00000	94.25435	-489.39124	94.25435
26150.00000	94.13058	-490.91926	94.13058
26200.00000	94.10267	-491.91776	94.10267
26250.00000	94.16405	-493.33155	94.16405
26300.00000	94.03347	-494.49692	94.03347
26350.00000	94.02988	-495.60817	94.02988
26400.00000	94.06874	-497.28615	94.06874
26450.00000	93.99789	-499.31090	93.99789
26500.00000	94.01248	-500.23085	94.01248
26550.00000	93.95410	-501.28845	93.95410
26600.00000	93.95785	-502.94015	93.95785
26650.00000	93.91941	-504.80411	93.91941
26700.00000	93.85254	-506.26384	93.85254
26750.00000	93.77633	-507.45948	93.77633
26800.00000	93.77216	-509.34692	93.77216
26850.00000	93.65017	-510.13288	93.65017
26900.00000	93.55511	-511.92801	93.55511
26950.00000	93.48137	-513.37760	93.48137
27000.00000	93.39439	-514.83573	93.39439
27050.00000	93.36316	-515.82011	93.36316
27100.00000	93.28366	-517.57283	93.28366
27150.00000	93.16172	-518.76413	93.16172
27200.00000	93.14091	-520.17573	93.14091
27250.00000	93.07900	-521.24547	93.07900
27300.00000	92.97674	-522.48297	92.97674
27350.00000	92.92436	-523.58931	92.92436
27400.00000	92.81773	-524.31727	92.81773
27450.00000	92.83194	-526.27863	92.83194
27500.00000	92.68285	-526.58281	92.68285
27550.00000	92.58459	-527.52074	92.58459
27600.00000	92.55996	-528.52168	92.55996
27650.00000	92.50088	-529.55850	92.50088
27700.00000	92.41867	-530.38577	92.41867
27750.00000	92.34594	-530.83644	92.34594
27800.00000	92.27283	-532.04703	92.27283
27850.00000	92.34873	-532.87262	92.34873
27900.00000	92.27966	-533.85290	92.27966
27950.00000	92.15655	-533.86621	92.15655
28000.00000	92.16426	-534.82123	92.16426
28050.00000	92.19171	-535.56744	92.19171
28100.00000	92.09704	-535.59020	92.09704
28150.00000	92.06195	-536.53266	92.06195
28200.00000	92.09387	-536.85048	92.09387
28250.00000	92.05714	-537.27264	92.05714
28300.00000	92.09119	-538.03168	92.09119
28350.00000	92.13751	-538.36462	92.13751
28400.00000	92.14038	-538.95303	92.14038
28450.00000	92.18636	-539.27024	92.18636
28500.00000	92.25120	-540.29198	92.25120
28550.00000	92.34629	-540.54076	92.34629
28600.00000	92.48674	-541.13831	92.48674
28650.00000	92.46148	-541.68142	92.46148
28700.00000	92.58930	-542.11261	92.58930
28750.00000	92.69908	-542.17442	92.69908
28800.00000	92.72578	-543.53527	92.72578
28850.00000	92.82455	-544.03092	92.82455
28900.00000	92.93016	-544.53829	92.93016
28950.00000	93.08071	-544.97420	93.08071
29000.00000	93.22548	-545.71557	93.22548
29050.00000	93.42598	-546.53498	93.42598
29100.00000	93.46173	-546.91063	93.46173
29150.00000	93.58920	-548.82297	93.58920
29200.00000	93.85276	-548.91359	93.85276
29250.00000	93.90519	-549.46338	93.90519
29300.00000	94.04806	-550.74082	94.04806
29350.00000	94.22691	-551.51308	94.22691
29400.00000	94.39313	-552.32921	94.39313
29450.00000	94.58670	-553.03002	94.58670
29500.00000	94.76360	-554.51437	94.76360
29550.00000	94.95637	-555.06156	94.95637
29600.00000	95.09612	-556.38578	95.09612
29650.00000	95.30473	-556.96749	95.30473
29700.00000	95.51384	-558.18150	95.51384
29750.00000	95.72227	-559.63013	95.72227
29800.00000	95.83664	-560.58864	95.83664
29850.00000	96.06661	-561.96881	96.06661
29900.00000	96.28718	-563.13808	96.28718
29950.00000	96.44329	-564.26580	96.44329
30000.00000	96.62307	-565.46245	96.62307
30050.00000	96.84750	-566.49315	96.84750
30100.00000	97.05746	-567.80921	97.05746
30150.00000	97.24115	-568.95489	97.24115
30200.00000	97.50527	-570.33306	97.50527
30250.00000	97.73583	-571.74300	97.73583
30300.00000	97.93582	-573.37401	97.93582
30350.00000	98.18208	-575.01606	98.18208
30400.00000	98.39935	-576.30956	98.39935
30450.00000	98.60725	-577.70386	98.60725
30500.00000	98.88970	-579.51374	98.88970
30550.00000	99.09446	-581.17365	99.09446
30600.00000	99.33508	-582.92430	99.33508
30650.00000	99.56728	-584.34504	99.56728
30700.00000	99.77834	-586.11757	99.77834
30750.00000	99.98815	-587.84701	99.98815
30800.00000	100.21283	-589.85249	100.21283
30850.00000	100.48797	-591.70616	100.48797
30900.00000	100.73462	-593.57711	100.73462
30950.00000	100.95116	-595.38829	100.95116
31000.00000	101.21401	-597.52459	101.21401
31050.00000	101.44819	-599.54286	101.44819
31100.00000	101.65077	-601.90645	101.65077
31150.00000	101.87742	-603.93766	101.87742
31200.00000	102.08202	-606.02526	102.08202
31250.00000	102.32549	-608.28485	102.32549
31300.00000	102.54127	-610.34288	102.54127
31350.00000	102.76130	-612.36558	102.76130
31400.00000	102.98883	-614.80713	102.98883
31450.00000	103.19316	-616.94028	103.19316
31500.00000	103.39474	-619.17900	103.39474
31550.00000	103.62177	-621.77890	103.62177
31600.00000	103.83281	-624.46969	103.83281
31650.00000	104.03325	-626.74637	104.03325
31700.00000	104.20749	-629.19660	104.20749
31750.00000	104.40492	-631.56546	104.40492
31800.00000	104.55380	-634.13427	104.55380
31850.00000	104.75203	-636.44513	104.75203
31900.00000	104.90653	-639.11233	104.90653
31950.00000	105.12338	-641.50405	105.12338
32000.00000	105.25991	-643.96862	105.25991
32050.00000	105.45052	-646.62256	105.45052
32100.00000	105.62900	-649.05394	105.62900
32150.00000	105.78287	-651.64032	105.78287
32200.00000	105.92197	-654.17299	105.92197
32250.00000	106.10715	-656.67445	106.10715
32300.00000	106.23422	-659.03059	106.23422
32350.00000	106.42031	-661.69067	106.42031
32400.00000	106.57026	-664.20583	106.57026
32450.00000	106.73525	-666.61281	106.73525
32500.00000	106.86098	-669.23615	106.86098
32550.00000	107.00955	-671.66023	107.00955
32600.00000	107.16589	-674.20183	107.16589
32650.00000	107.33427	-676.78887	107.33427
32700.00000	107.45037	-679.23574	107.45037
32750.00000	107.61627	-681.67721	107.61627
32800.00000	107.76226	-684.11338	107.76226
32850.00000	107.94954	-686.75981	107.94954
32900.00000	108.09378	-689.30163	108.09378
32950.00000	108.27411	-691.85809	108.27411
33000.00000	108.42885	-694.56271	108.42885
33050.00000	108.58293	-697.05860	108.58293
33100.00000	108.75943	-699.97429	108.75943
33150.00000	108.89023	-702.50626	108.89023
33200.00000	109.04918	-705.01224	109.04918
33250.00000	109.20750	-707.73017	109.20750
33300.00000	109.38478	-710.44600	109.38478
33350.00000	109.55546	-713.23531	109.55546
33400.00000	109.73515	-716.13859	109.73515
33450.00000	109.91749	-719.03812	109.91749
33500.00000	110.08690	-721.97802	110.08690
33550.00000	110.24719	-725.15723	110.24719
33600.00000	110.39062	-728.13664	110.39062
33650.00000	110.50270	-731.32627	110.50270
33700.00000	110.62909	-734.39033	110.62909
33750.00000	110.76355	-737.44703	110.76355
33800.00000	110.88860	-740.57889	110.88860
33850.00000	111.03485	-743.72966	111.03485
33900.00000	111.12497	-746.96316	111.12497
33950.00000	111.25213	-750.09354	111.25213
34000.00000	111.34741	-753.26176	111.34741
34050.00000	111.41273	-756.34198	111.41273
34100.00000	111.50768	-759.70104	111.50768
34150.00000	111.59233	-762.84546	111.59233
34200.00000	111.64559	-766.13354	111.64559
34250.00000	111.71083	-769.33992	111.71083
34300.00000	111.76590	-772.42819	111.76590
34350.00000	111.81755	-775.62149	111.81755
34400.00000	111.87409	-778.60844	111.87409
34450.00000	111.91864	-781.74763	111.91864
34500.00000	111.93674	-784.89925	111.93674
34550.00000	111.99687	-787.81317	111.99687
34600.00000	112.03878	-790.76909	112.03878
34650.00000	112.11021	-793.73146	112.11021
34700.00000	112.16050	-796.79071	112.16050
34750.00000	112.22837	-800.20419	112.22837
34800.00000	112.25697	-803.59494	112.25697
34850.00000	112.28353	-806.80472	112.28353
34900.00000	112.28277	-810.04178	112.28277
34950.00000	112.26652	-813.44004	112.26652
35000.00000	112.19032	-816.58773	112.19032
35050.00000	112.08846	-819.45949	112.08846
35100.00000	112.01330	-821.69986	112.01330
35150.00000	112.01097	-823.70012	112.01097
35200.00000	112.07258	-826.06547	112.07258
35250.00000	112.14782	-828.56130	112.14782
35300.00000	112.21788	-831.25545	112.21788
35350.00000	112.28197	-834.12855	112.28197
35400.00000	112.33914	-836.89340	112.33914
35450.00000	112.39957	-839.73362	112.39957
35500.00000	112.46782	-842.71028	112.46782
35550.00000	112.49416	-845.70217	112.49416
35600.00000	112.54378	-848.75850	112.54378
35650.00000	112.57704	-851.89117	112.57704
35700.00000	112.60290	-854.92181	112.60290
35750.00000	112.59659	-857.90131	112.59659
35800.00000	112.66162	-860.96462	112.66162
35850.00000	112.66836	-864.07841	112.66836
35900.00000	112.65658	-867.10741	112.65658
35950.00000	112.70127	-870.21978	112.70127
36000.00000	112.67730	-873.44694	112.67730
36050.00000	112.64964	-876.57779	112.64964
36100.00000	112.63063	-879.66667	112.63063
36150.00000	112.58615	-882.61096	112.58615
36200.00000	112.58240	-885.71415	112.58240
36250.00000	112.54943	-888.95842	112.54943
36300.00000	112.47466	-891.83666	112.47466
36350.00000	112.43503	-894.64760	112.43503
36400.00000	112.38944	-897.73806	112.38944
36450.00000	112.33595	-900.79108	112.33595
36500.00000	112.28122	-903.72189	112.28122
36550.00000	112.20495	-906.67010	112.20495
36600.00000	112.13032	-909.66121	112.13032
36650.00000	112.03764	-912.36039	112.03764
36700.00000	111.93916	-915.36549	111.93916
36750.00000	111.82371	-918.11276	111.82371
36800.00000	111.72368	-920.90684	111.72368
36850.00000	111.59282	-923.56303	111.59282
36900.00000	111.43713	-926.08667	111.43713
36950.00000	111.29715	-928.49563	111.29715
37000.00000	111.18084	-930.56024	111.18084
37050.00000	111.05845	-932.97044	111.05845
37100.00000	110.92570	-935.29030	110.92570
37150.00000	110.75320	-937.25106	110.75320
37200.00000	110.61057	-939.00437	110.61057
37250.00000	110.48441	-940.71915	110.48441
37300.00000	110.37308	-942.18689	110.37308
37350.00000	110.25816	-943.68835	110.25816
37400.00000	110.19376	-944.78667	110.19376
37450.00000	110.11118	-946.02881	110.11118
37500.00000	110.03164	-947.15402	110.03164
37550.00000	109.99037	-947.82269	109.99037
37600.00000	110.02017	-948.58785	110.02017
37650.00000	110.07749	-949.24734	110.07749
37700.00000	110.18630	-949.61041	110.18630
37750.00000	110.33304	-950.17357	110.33304
37800.00000	110.58980	-950.81699	110.58980
37850.00000	110.86317	-951.69607	110.86317
37900.00000	111.19889	-953.11962	111.19889
37950.00000	111.55981	-954.85060	111.55981
38000.00000	111.91073	-956.74450	111.91073
38050.00000	112.29130	-959.11704	112.29130
38100.00000	112.65134	-961.89240	112.65134
38150.00000	113.02314	-965.08121	113.02314
38200.00000	113.36044	-968.44077	113.36044
38250.00000	113.65376	-972.08276	113.65376
38300.00000	113.92439	-975.96946	113.92439
38350.00000	114.15946	-979.93741	114.15946
38400.00000	114.36644	-984.25496	114.36644
38450.00000	114.54680	-988.31655	114.54680
38500.00000	114.67491	-992.57253	114.67491
38550.00000	114.78888	-996.86157	114.78888
38600.00000	114.88071	-1000.94345	114.88071
38650.00000	114.95233	-1005.25546	114.95233
38700.00000	115.00720	-1009.38034	115.00720
38750.00000	115.03086	-1013.58936	115.03086
38800.00000	115.03217	-1017.65553	115.03217
38850.00000	115.04526	-1021.56975	115.04526
38900.00000	115.07650	-1025.66339	115.07650
38950.00000	115.05810	-1029.78129	115.05810
39000.00000	115.02823	-1033.76384	115.02823
39050.00000	115.02194	-1038.03036	115.02194
39100.00000	114.93164	-1042.23267	114.93164
39150.00000	114.85329	-1046.17702	114.85329
39200.00000	114.78051	-1050.18159	114.78051
39250.00000	114.67535	-1054.06691	114.67535
39300.00000	114.56742	-1057.87809	114.56742
39350.00000	114.45266	-1061.79959	114.45266
39400.00000	114.32989	-1065.61358	114.32989
39450.00000	114.23573	-1069.18800	114.23573
39500.00000	114.12317	-1073.07896	114.12317
39550.00000	113.98975	-1076.84970	113.98975
39600.00000	113.84823	-1080.66259	113.84823
39650.00000	113.69090	-1084.59280	113.69090
39700.00000	113.51028	-1088.42196	113.51028
39750.00000	113.29643	-1091.97776	113.29643
39800.00000	113.11748	-1095.61224	113.11748
39850.00000	112.91142	-1099.43379	112.91142
39900.00000	112.66319	-1103.07125	112.66319
39950.00000	112.39538	-1106.41772	112.39538
40000.00000	112.13922	-1109.74458	112.13922
40050.00000	111.88556	-1112.97710	111.88556
40100.00000	111.60927	-1116.23303	111.60927
40150.00000	111.34292	-1119.22346	111.34292
40200.00000	111.06277	-1122.14841	111.06277
40250.00000	110.79356	-1125.07695	110.79356
40300.00000	110.50636	-1127.92197	110.50636
40350.00000	110.19775	-1130.74168	110.19775
40400.00000	109.89997	-1133.39236	109.89997
40450.00000	109.57071	-1135.93063	109.57071
40500.00000	109.24577	-1138.23356	109.24577
40550.00000	108.91868	-1140.28505	108.91868
40600.00000	108.63097	-1142.28760	108.63097
40650.00000	108.37166	-1144.47964	108.37166
40700.00000	108.05969	-1146.67059	108.05969
40750.00000	107.72165	-1148.34863	107.72165
40800.00000	107.45948	-1150.15633	107.45948
40850.00000	107.17358	-1151.75604	107.17358
40900.00000	106.90348	-1153.26522	106.90348
40950.00000	106.58649	-1154.58950	106.58649
41000.00000	106.34944	-1155.66341	106.34944
41050.00000	106.08210	-1156.72144	106.08210
41100.00000	105.84182	-1157.95691	105.84182
41150.00000	105.66135	-1158.86502	105.66135
41200.00000	105.47396	-1159.92223	105.47396
41250.00000	105.30102	-1160.64248	105.30102
41300.00000	105.11458	-1161.43809	105.11458
41350.00000	104.97384	-1162.18256	104.97384
41400.00000	104.85111	-1162.47835	104.85111
41450.00000	104.75174	-1163.52009	104.75174
41500.00000	104.66328	-1163.94177	104.66328
41550.00000	104.59595	-1164.43106	104.59595
41600.00000	104.54621	-1165.61729	104.54621
41650.00000	104.53481	-1166.05309	104.53481
41700.00000	104.60421	-1166.74961	104.60421
41750.00000	104.59585	-1167.55965	104.59585
41800.00000	104.65178	-1168.79392	104.65178
41850.00000	104.74193	-1170.24585	104.74193
41900.00000	104.77093	-1171.34572	104.77093
41950.00000	104.87816	-1172.80219	104.87816
42000.00000	105.00772	-1174.39262	105.00772
42050.00000	105.10654	-1176.19241	105.10654
42100.00000	105.23696	-1178.04489	105.23696
42150.00000	105.24523	-1180.35437	105.24523
42200.00000	105.24576	-1182.36791	105.24576
42250.00000	105.29485	-1184.38262	105.29485
42300.00000	105.33374	-1186.66381	105.33374
42350.00000	105.29062	-1189.36106	105.29062
42400.00000	105.32144	-1191.53309	105.32144
42450.00000	105.28313	-1193.67147	105.28313
42500.00000	105.16443	-1196.19253	105.16443
42550.00000	105.16516	-1198.23305	105.16516
42600.00000	105.05401	-1200.87469	105.05401
42650.00000	105.02176	-1202.52279	105.02176
42700.00000	104.88261	-1204.75902	104.88261
42750.00000	104.78307	-1207.58002	104.78307
42800.00000	104.63906	-1208.98118	104.63906
42850.00000	104.58367	-1210.77112	104.58367
42900.00000	104.42671	-1212.15655	104.42671
42950.00000	104.33857	-1213.78756	104.33857
43000.00000	104.33577	-1215.71520	104.33577
43050.00000	104.16830	-1217.31092	104.16830
43100.00000	104.13287	-1219.11537	104.13287
43150.00000	104.05042	-1219.55482	104.05042
43200.00000	103.89581	-1221.47130	103.89581
43250.00000	103.93384	-1222.40295	103.93384
43300.00000	103.83504	-1223.27812	103.83504
43350.00000	103.82485	-1224.36679	103.82485
43400.00000	103.72419	-1225.62195	103.72419
43450.00000	103.65582	-1226.36804	103.65582
43500.00000	103.63970	-1227.43860	103.63970
43550.00000	103.68435	-1228.52621	103.68435
43600.00000	103.65176	-1229.43528	103.65176
43650.00000	103.64612	-1230.38604	103.64612
43700.00000	103.58763	-1230.98067	103.58763
43750.00000	103.67613	-1232.63894	103.67613
43800.00000	103.80216	-1233.82238	103.80216
43850.00000	103.77682	-1234.43769	103.77682
43900.00000	104.02137	-1235.77015	104.02137
43950.00000	104.00055	-1237.10097	104.00055
44000.00000	104.05868	-1238.41162	104.05868
44050.00000	104.22124	-1239.35075	104.22124
44100.00000	104.36992	-1240.29723	104.36992
44150.00000	104.41947	-1241.66455	104.41947
44200.00000	104.53015	-1243.18617	104.53015
44250.00000	104.75959	-1244.17728	104.75959
44300.00000	104.79818	-1245.26854	104.79818
44350.00000	104.99474	-1246.43800	104.99474
44400.00000	105.09935	-1247.94375	105.09935
44450.00000	105.32056	-1250.22928	105.32056
44500.00000	105.46369	-1251.08977	105.46369
44550.00000	105.61808	-1252.34955	105.61808
44600.00000	105.81450	-1253.62169	105.81450
44650.00000	105.93445	-1255.67730	105.93445
44700.00000	106.08042	-1256.78674	106.08042
44750.00000	106.23546	-1259.44008	106.23546
44800.00000	106.47917	-1260.69600	106.47917
44850.00000	106.65920	-1262.87228	106.65920
44900.00000	106.85012	-1264.28730	106.85012
44950.00000	107.00855	-1266.41515	107.00855
45000.00000	107.26308	-1268.48462	107.26308
45050.00000	107.47153	-1270.17156	107.47153
45100.00000	107.69944	-1272.50817	107.69944
45150.00000	107.90058	-1274.56135	107.90058
45200.00000	108.18866	-1276.98038	108.18866
45250.00000	108.39806	-1279.12169	108.39806
45300.00000	108.61807	-1281.82389	108.61807
45350.00000	108.85059	-1283.64305	108.85059
45400.00000	109.17112	-1285.95265	109.17112
45450.00000	109.46277	-1288.50500	109.46277
45500.00000	109.66966	-1291.12485	109.66966
45550.00000	110.00038	-1293.85554	110.00038
45600.00000	110.27053	-1296.79680	110.27053
45650.00000	110.52364	-1300.08786	110.52364
45700.00000	110.85105	-1303.28064	110.85105
45750.00000	111.02680	-1306.96856	111.02680
45800.00000	111.27765	-1310.62945	111.27765
45850.00000	111.52438	-1314.65704	111.52438
45900.00000	111.73534	-1318.69563	111.73534
45950.00000	111.83217	-1322.94666	111.83217
46000.00000	112.01035	-1326.71494	112.01035
46050.00000	112.13181	-1331.13685	112.13181
46100.00000	112.21064	-1335.04501	112.21064
46150.00000	112.30420	-1339.36188	112.30420
46200.00000	112.35623	-1343.51919	112.35623
46250.00000	112.39798	-1347.62640	112.39798
46300.00000	112.42415	-1351.66797	112.42415
46350.00000	112.41960	-1355.56227	112.41960
46400.00000	112.40522	-1359.86800	112.40522
46450.00000	112.34328	-1363.34197	112.34328
46500.00000	112.29131	-1367.29281	112.29131
46550.00000	112.21051	-1370.79472	112.21051
46600.00000	112.16402	-1374.87717	112.16402
46650.00000	112.14718	-1378.05012	112.14718
46700.00000	112.04697	-1381.69384	112.04697
46750.00000	111.96453	-1385.22609	111.96453
46800.00000	111.94392	-1388.81981	111.94392
46850.00000	111.90595	-1392.26320	111.90595
46900.00000	111.72133	-1396.14722	111.72133
46950.00000	111.66670	-1398.86067	111.66670
47000.00000	111.48999	-1402.34301	111.48999
47050.00000	111.46604	-1405.71149	111.46604
47100.00000	111.38203	-1408.45080	111.38203
47150.00000	111.29751	-1411.48708	111.29751
47200.00000	111.22202	-1414.97380	111.22202
47250.00000	111.08507	-1417.85448	111.08507
47300.00000	111.07373	-1421.19155	111.07373
47350.00000	110.96528	-1424.25487	110.96528
47400.00000	110.91191	-1427.16460	110.91191
47450.00000	110.83340	-1430.09933	110.83340
47500.00000	110.71557	-1433.19806	110.71557
47550.00000	110.66033	-1436.25827	110.66033
47600.00000	110.52157	-1439.45379	110.52157
47650.00000	110.50158	-1442.61867	110.50158
47700.00000	110.40124	-1445.45922	110.40124
47750.00000	110.30610	-1448.31960	110.30610
47800.00000	110.22970	-1451.19222	110.22970
47850.00000	110.12424	-1454.38608	110.12424
47900.00000	110.06329	-1456.84307	110.06329
47950.00000	110.05707	-1460.41838	110.05707
48000.00000	109.95950	-1463.68338	109.95950
48050.00000	109.86189	-1466.44130	109.86189
48100.00000	109.76487	-1469.79261	109.76487
48150.00000	109.75632	-1473.01096	109.75632
48200.00000	109.62503	-1476.55848	109.62503
48250.00000	109.55852	-1479.57512	109.55852
48300.00000	109.48149	-1482.79070	109.48149
48350.00000	109.42427	-1486.22125	109.42427
48400.00000	109.16038	-1489.77629	109.16038
48450.00000	109.07439	-1493.31597	109.07439
48500.00000	108.93207	-1496.58448	108.93207
48550.00000	108.72770	-1499.62440	108.72770
48600.00000	108.52410	-1503.73338	108.52410
48650.00000	108.43202	-1507.21195	108.43202
48700.00000	108.20651	-1509.81628	108.20651
48750.00000	108.03604	-1514.17896	108.03604
48800.00000	107.77172	-1517.14089	107.77172
48850.00000	107.37207	-1521.18418	107.37207
48900.00000	107.25593	-1523.97851	107.25593
48950.00000	106.72963	-1167.89869	106.72963
49000.00000	106.55568	-1170.76243	106.55568
49050.00000	106.17718	-1174.07134	106.17718
49100.00000	105.68883	-1175.90446	105.68883
49150.00000	105.48501	-1179.11664	105.48501
49200.00000	104.96374	-1179.60634	104.96374
49250.00000	104.69225	-1181.40355	104.69225
49300.00000	104.37111	-823.12354	104.37111
49350.00000	103.94375	-824.54545	103.94375
49400.00000	103.53329	-826.21243	103.53329
49450.00000	103.26135	-467.33385	103.26135
49500.00000	103.09137	-466.82589	103.09137
49550.00000	102.77279	-109.32863	102.77279
49600.00000	102.57903	-109.43619	102.57903
49650.00000	102.42211	247.95798	102.42211
49700.00000	101.99671	248.48467	101.99671
49750.00000	101.91597	608.17519	101.91597
49800.00000	101.76175	608.89368	101.76175
49850.00000	101.64503	1326.30413	101.64503
49900.00000	101.65564	1326.80734	101.65564
49950.00000	101.54327	1685.90028	101.54327
50000.00000	101.67442	1685.43967	101.67442
50050.00000	101.59998	1684.32814	101.59998
50100.00000	101.45978	1682.99503	101.45978
50150.00000	101.67122	1682.13577	101.67122
50200.00000	101.57535	1681.19778	101.57535
50250.00000	101.66721	1679.78062	101.66721
50300.00000	101.73264	1678.91426	101.73264
50350.00000	101.81168	1678.07378	101.81168
50400.00000	101.93579	1676.67534	101.93579
50450.00000	101.93802	1674.58488	101.93802
50500.00000	101.93441	1673.03074	101.93441
50550.00000	101.97538	1671.08252	101.97538
50600.00000	102.14500	1669.52700	102.14500
50650.00000	102.22590	1667.64720	102.22590
50700.00000	102.11566	1665.14914	102.11566
50750.00000	102.34602	1663.40956	102.34602
50800.00000	102.31214	1661.11489	102.31214
50850.00000	102.42085	1658.67674	102.42085
50900.00000	102.28216	1655.97040	102.28216
50950.00000	102.46839	1653.24192	102.46839
51000.00000	102.64323	1650.35346	102.64323
51050.00000	102.68939	1648.77272	102.68939
51100.00000	102.43403	1645.49616	102.43403
51150.00000	102.55315	1643.14012	102.55315
51200.00000	102.46028	1640.13258	102.46028
51250.00000	102.53974	1638.40360	102.53974
51300.00000	102.41100	1634.14699	102.41100
51350.00000	102.38789	1633.40043	102.38789
51400.00000	102.39426	1628.90337	102.39426
51450.00000	102.07894	1627.98208	102.07894
51500.00000	102.09763	1624.92965	102.09763
51550.00000	101.98687	1622.64905	101.98687
51600.00000	101.86885	1619.47674	101.86885
51650.00000	101.48374	1616.70257	101.48374
51700.00000	101.54464	1615.02737	101.54464
51750.00000	101.28607	1612.99682	101.28607
51800.00000	101.15131	1610.34443	101.15131
51850.00000	101.04137	1607.81255	101.04137
51900.00000	100.85952	1606.74490	100.85952
51950.00000	100.38269	1604.66834	100.38269
52000.00000	100.35446	1604.06682	100.35446
52050.00000	100.25207	1601.56490	100.25207
52100.00000	100.06234	1600.94662	100.06234
52150.00000	99.72470	1600.11203	99.72470
52200.00000	99.80759	1598.97127	99.80759
52250.00000	99.69853	1596.36393	99.69853
52300.00000	99.38586	1598.54770	99.38586
52350.00000	99.65714	1596.04617	99.65714
52400.00000	99.59674	1595.06777	99.59674
52450.00000	99.61161	1593.42630	99.61161
52500.00000	99.44405	1593.52509	99.44405
52550.00000	99.54542	1592.56890	99.54542
52600.00000	99.48440	1590.58427	99.48440
52650.00000	99.79519	1589.02397	99.79519
52700.00000	99.66745	1588.87568	99.66745
52750.00000	99.65925	1587.18063	99.65925
52800.00000	99.85851	1584.43251	99.85851
52850.00000	99.70521	1583.98638	99.70521
52900.00000	99.85348	1581.95360	99.85348
52950.00000	100.12504	1579.74886	100.12504
53000.00000	99.89859	1578.03953	99.89859
53050.00000	100.02503	1576.46644	100.02503
53100.00000	100.04574	1573.49697	100.04574
53150.00000	100.28452	1573.31504	100.28452
53200.00000	100.00307	1569.24935	100.00307
53250.00000	100.31562	1569.49224	100.31562
53300.00000	100.30734	1565.39475	100.30734
53350.00000	100.15733	1563.44254	100.15733
53400.00000	100.50781	1562.54836	100.50781
53450.00000	100.32437	1559.32911	100.32437
53500.00000	100.30616	1557.93920	100.30616
53550.00000	100.37436	1554.68418	100.37436
53600.00000	100.33066	1552.57545	100.33066
53650.00000	100.31612	1550.12811	100.31612
53700.00000	100.44609	1548.89111	100.44609
53750.00000	100.37483	1544.65596	100.37483
53800.00000	100.21227	1543.96048	100.21227
53850.00000	100.38918	1540.76949	100.38918
53900.00000	100.20255	1540.13104	100.20255
53950.00000	100.15052	1536.89084	100.15052
54000.00000	100.11022	1534.47747	100.11022
54050.00000	100.06564	1532.33410	100.06564
54100.00000	99.95829	1530.86663	99.95829
54150.00000	100.00586	1528.03952	100.00586
54200.00000	99.70277	1526.71013	99.70277
54250.00000	99.64688	1523.72788	99.64688
54300.00000	99.65627	1521.70160	99.65627
54350.00000	99.53720	1520.63155	99.53720
54400.00000	99.71874	1519.47057	99.71874
54450.00000	99.37697	1516.98051	99.37697
54500.00000	99.37153	1516.32441	99.37153
54550.00000	99.13665	1513.40208	99.13665
54600.00000	99.11756	1512.70803	99.11756
54650.00000	98.99587	1511.05842	98.99587
54700.00000	98.93269	1510.61252	98.93269
54750.00000	99.19893	1508.42512	99.19893
54800.00000	99.03094	1507.69196	99.03094
54850.00000	99.00468	1506.76474	99.00468
54900.00000	98.90931	1504.73987	98.90931
54950.00000	99.00362	1504.48795	99.00362
55000.00000	99.13450	1504.20129	99.13450
55050.00000	99.04063	1503.04683	99.04063
55100.00000	99.13764	1502.23847	99.13764
55150.00000	99.40951	1501.21034	99.40951
55200.00000	99.31340	1499.90629	99.31340
55250.00000	99.46877	1498.62628	99.46877
55300.00000	99.73593	1497.00820	99.73593
55350.00000	99.74431	1496.19066	99.74431
55400.00000	99.95141	1493.69098	99.95141
55450.00000	100.11268	1492.42867	100.11268
55500.00000	100.23532	1491.11405	100.23532
55550.00000	100.41245	1489.66095	100.41245
55600.00000	100.61901	1487.97913	100.61901
55650.00000	100.83154	1486.06337	100.83154
55700.00000	101.10968	1484.27294	101.10968
55750.00000	101.32846	1482.22469	101.32846
55800.00000	101.51175	1480.04572	101.51175
55850.00000	101.85387	1477.91185	101.85387
55900.00000	101.90385	1475.58893	101.90385
55950.00000	102.19591	1473.24229	102.19591
56000.00000	102.43018	1470.18549	102.43018
56050.00000	102.72171	1468.01802	102.72171
56100.00000	102.91493	1464.90246	102.91493
56150.00000	103.11226	1462.44202	103.11226
56200.00000	103.32102	1458.98968	103.32102
56250.00000	103.52539	1455.76861	103.52539
56300.00000	103.72063	1452.61784	103.72063
56350.00000	103.85034	1448.88919	103.85034
56400.00000	104.07974	1446.07947	104.07974
56450.00000	104.14387	1442.47698	104.14387
56500.00000	104.32403	1438.80441	104.32403
56550.00000	104.44965	1434.66808	104.44965
56600.00000	104.50862	1430.65722	104.50862
56650.00000	104.67738	1427.06746	104.67738
56700.00000	104.72891	1422.85897	104.72891
56750.00000	104.78508	1419.85555	104.78508
56800.00000	104.73162	1415.63985	104.73162
56850.00000	104.75589	1411.96253	104.75589
56900.00000	104.69950	1407.82166	104.69950
56950.00000	104.66392	1404.47685	104.66392
57000.00000	104.63669	1400.66686	104.63669
57050.00000	104.56213	1397.11352	104.56213
57100.00000	104.46471	1393.40811	104.46471
57150.00000	104.40356	1389.74087	104.40356
57200.00000	104.24892	1386.71177	104.24892
57250.00000	104.20022	1383.50891	104.20022
57300.00000	104.12586	1380.14627	104.12586
57350.00000	103.95155	1376.85458	103.95155
57400.00000	103.89292	1373.86836	103.89292
57450.00000	103.70214	1370.53553	103.70214
57500.00000	103.59707	1368.02601	103.59707
57550.00000	103.45466	1365.04327	103.45466
57600.00000	103.25995	1362.52340	103.25995
57650.00000	103.16343	1360.01138	103.16343
57700.00000	103.01125	1357.05196	103.01125
57750.00000	102.94818	1354.96181	102.94818
57800.00000	102.84190	1352.84188	102.84190
57850.00000	102.76356	1350.15663	102.76356
57900.00000	102.59842	1348.01893	102.59842
57950.00000	102.55727	1345.95279	102.55727
58000.00000	102.52807	1344.31827	102.52807
58050.00000	102.52720	1342.20579	102.52720
58100.00000	102.53659	1340.05334	102.53659
58150.00000	102.56267	1337.66822	102.56267
58200.00000	102.63066	1335.44557	102.63066
58250.00000	102.64760	1332.80449	102.64760
58300.00000	102.65176	1329.98125	102.65176
58350.00000	102.71426	1327.42178	102.71426
58400.00000	102.81015	1323.98548	102.81015
58450.00000	102.78040	1321.67549	102.78040
58500.00000	102.81385	1318.29297	102.81385
58550.00000	102.81925	1314.77733	102.81925
58600.00000	102.77959	1311.67500	102.77959
58650.00000	102.72628	1308.41367	102.72628
58700.00000	102.69955	1305.22593	102.69955
58750.00000	102.62496	1301.96814	102.62496
58800.00000	102.53957	1298.80264	102.53957
58850.00000	102.47829	1295.63843	102.47829
58900.00000	102.38855	1292.19671	102.38855
58950.00000	102.27585	1289.01559	102.27585
59000.00000	102.15565	1285.57296	102.15565
59050.00000	101.98184	1282.48171	101.98184
59100.00000	101.81852	1279.51599	101.81852
59150.00000	101.68717	1276.35230	101.68717
59200.00000	101.51404	1273.30412	101.51404
59250.00000	101.32394	1270.20821	101.32394
59300.00000	101.11493	1267.68363	101.11493
59350.00000	100.92386	1264.71803	100.92386
59400.00000	100.73971	1261.99363	100.73971
59450.00000	100.50543	1259.57680	100.50543
59500.00000	100.31066	1257.12586	100.31066
59550.00000	100.09133	1254.89685	100.09133
59600.00000	99.85962	1252.63056	99.85962
59650.00000	99.66252	1250.14559	99.66252
59700.00000	99.46664	1248.34522	99.46664
59750.00000	99.34913	1246.12415	99.34913
59800.00000	99.08784	1244.22611	99.08784
59850.00000	98.88776	1242.42428	98.88776
59900.00000	98.65359	1239.94798	98.65359
59950.00000	98.50921	1238.39063	98.50921
60000.00000	98.27899	1237.03476	98.27899
60050.00000	98.13100	1234.72851	98.13100
60100.00000	97.96331	1233.31295	97.96331
60150.00000	97.71875	1231.18552	97.71875
60200.00000	97.55928	1229.42813	97.55928
60250.00000	97.38935	1228.03971	97.38935
60300.00000	97.10197	1226.78512	97.10197
60350.00000	96.75786	1225.40645	96.75786
60400.00000	96.57912	1225.03105	96.57912
60450.00000	96.34461	1224.42343	96.34461
60500.00000	96.13744	1224.98588	96.13744
60550.00000	95.99528	1225.39198	95.99528
60600.00000	95.99655	1226.43538	95.99655
60650.00000	96.03741	1227.33250	96.03741
60700.00000	96.14902	1227.44428	96.14902
60750.00000	96.41921	1228.40466	96.41921
60800.00000	96.73220	1228.19301	96.73220
60850.00000	97.01156	1226.93159	97.01156
60900.00000	97.36900	1225.62877	97.36900
60950.00000	97.70560	1224.03772	97.70560
61000.00000	97.98382	1222.27750	97.98382
61050.00000	98.25061	1219.82839	98.25061
61100.00000	98.51341	1217.27671	98.51341
61150.00000	98.73065	1215.01666	98.73065
61200.00000	98.95444	1212.05472	98.95444
61250.00000	99.09404	1209.47474	99.09404
61300.00000	99.35491	1206.92914	99.35491
61350.00000	99.48692	1203.82925	99.48692
61400.00000	99.61163	1201.19794	99.61163
61450.00000	99.78499	1198.24723	99.78499
61500.00000	99.93448	1195.67909	99.93448
61550.00000	100.09096	1192.31600	100.09096
61600.00000	100.11987	1189.81795	100.11987
61650.00000	100.18071	1186.80900	100.18071
61700.00000	100.35003	1183.09456	100.35003
61750.00000	100.42192	1180.28714	100.42192
61800.00000	100.52638	1177.26879	100.52638
61850.00000	100.58033	1174.04722	100.58033
61900.00000	100.64483	1171.06232	100.64483
61950.00000	100.72896	1167.83538	100.72896
62000.00000	100.81062	1164.21132	100.81062
62050.00000	100.85932	1161.41077	100.85932
62100.00000	100.94347	1158.17869	100.94347
62150.00000	100.93455	1154.68331	100.93455
62200.00000	100.99077	1151.55388	100.99077
62250.00000	100.96305	1148.38237	100.96305
62300.00000	101.02948	1144.94268	101.02948
62350.00000	101.08677	1141.62272	101.08677
62400.00000	101.09363	1138.52212	101.09363
62450.00000	101.05156	1134.98079	101.05156
62500.00000	101.08487	1131.71591	101.08487
62550.00000	101.07614	1128.05497	101.07614
62600.00000	100.97411	1124.81661	100.97411
62650.00000	100.96364	1121.57743	100.96364
62700.00000	100.93017	1117.59288	100.93017
62750.00000	100.83626	1114.52136	100.83626
62800.00000	100.82256	1111.15127	100.82256
62850.00000	100.74923	1107.83995	100.74923
62900.00000	100.62933	1104.43351	100.62933
62950.00000	100.60670	1100.92894	100.60670
63000.00000	100.40675	1098.06273	100.40675
63050.00000	100.34164	1095.87405	100.34164
63100.00000	100.23629	1092.60650	100.23629
63150.00000	100.14092	1089.68309	100.14092
63200.00000	100.07861	1087.00762	100.07861
63250.00000	99.94908	1084.55564	99.94908
63300.00000	99.85117	1081.70091	99.85117
63350.00000	99.90357	1079.54917	99.90357
63400.00000	99.82602	1076.64444	99.82602
63450.00000	99.74129	1073.87420	99.74129
63500.00000	99.87992	1071.35975	99.87992
63550.00000	99.76092	1068.83361	99.76092
63600.00000	99.75408	1066.18696	99.75408
63650.00000	99.87603	1063.23416	99.87603
63700.00000	99.79298	1060.00935	99.79298
63750.00000	99.93580	1057.72821	99.93580
63800.00000	100.01931	1054.31016	100.01931
63850.00000	99.97990	1050.30869	99.97990
63900.00000	100.11098	1047.63156	100.11098
63950.00000	100.20369	1043.28551	100.20369
64000.00000	100.14946	1039.93351	100.14946
64050.00000	100.22219	1036.43365	100.22219
64100.00000	100.26010	1031.91888	100.26010
64150.00000	100.28772	1028.04497	100.28772
64200.00000	100.32810	1023.56861	100.32810
64250.00000	100.37530	1018.22815	100.37530
64300.00000	100.27103	1013.82626	100.27103
64350.00000	100.13704	1008.47033	100.13704
64400.00000	100.00803	1002.25660	100.00803
64450.00000	99.77237	998.12462	99.77237
64500.00000	99.54272	992.55190	99.54272
64550.00000	99.02724	987.91678	99.02724
64600.00000	98.74422	983.83808	98.74422
64650.00000	98.31084	979.63717	98.31084
64700.00000	98.01047	975.52825	98.01047
64750.00000	97.65662	972.78915	97.65662
64800.00000	97.35607	969.25372	97.35607
64850.00000	97.03628	964.74090	97.03628
64900.00000	96.82285	961.31350	96.82285
64950.00000	96.48889	957.00088	96.48889
65000.00000	96.13019	951.61524	96.13019
65050.00000	95.73041	947.79875	95.73041
65100.00000	95.10615	941.94408	95.10615
65150.00000	94.45758	936.81887	94.45758
65200.00000	93.79288	932.71891	93.79288
65250.00000	92.80837	928.10980	92.80837
65300.00000	91.68788	925.05911	91.68788
65350.00000	90.66863	923.27030	90.66863
65400.00000	89.42059	922.77418	89.42059
65450.00000	88.24005	922.74898	88.24005
65500.00000	87.47647	928.21626	87.47647
65550.00000	86.70647	931.68582	86.70647
65600.00000	85.73953	935.83179	85.73953
65650.00000	85.78392	941.05124	85.78392
65700.00000	85.78448	943.50291	85.78448
65750.00000	85.97209	945.79125	85.97209
65800.00000	86.21767	946.50065	86.21767
65850.00000	86.42857	949.19511	86.42857
65900.00000	86.33190	952.82425	86.33190
65950.00000	86.56504	953.36020	86.56504
66000.00000	86.67022	952.63478	86.67022
66050.00000	86.84725	953.34448	86.84725
66100.00000	87.31873	952.74605	87.31873
66150.00000	87.75128	952.64698	87.75128
66200.00000	87.84171	950.39505	87.84171
66250.00000	88.48017	948.32154	88.48017
66300.00000	88.79524	944.68201	88.79524
66350.00000	88.88666	941.62117	88.88666
66400.00000	88.88270	938.78859	88.88270
66450.00000	89.10644	937.31635	89.10644
66500.00000	88.72586	934.24558	88.72586
66550.00000	88.76023	932.11637	88.76023
66600.00000	88.85449	928.14735	88.85449
66650.00000	88.75151	927.04705	88.75151
66700.00000	88.53253	925.47611	88.53253
66750.00000	88.74407	922.63499	88.74407
66800.00000	88.53707	922.73874	88.53707
66850.00000	88.59447	919.77855	88.59447
66900.00000	88.62118	917.10191	88.62118
66950.00000	88.68910	915.88156	88.68910
67000.00000	88.72080	914.37581	88.72080
67050.00000	88.82848	911.86593	88.82848
67100.00000	88.47617	909.07259	88.47617
67150.00000	88.62746	906.88345	88.62746
67200.00000	88.79034	905.94028	88.79034
67250.00000	88.58048	903.46696	88.58048
67300.00000	88.73832	901.91204	88.73832
67350.00000	88.81766	897.96114	88.81766
67400.00000	88.70360	895.79429	88.70360
67450.00000	88.59412	893.63664	88.59412
67500.00000	88.77500	891.16601	88.77500
67550.00000	88.69089	888.77706	88.69089
67600.00000	88.61579	885.50333	88.61579
67650.00000	88.64003	883.84352	88.64003
67700.00000	88.35350	881.30449	88.35350
67750.00000	88.27801	879.15124	88.27801
67800.00000	88.26716	877.09190	88.26716
67850.00000	88.11598	874.80082	88.11598
67900.00000	87.89385	872.33975	87.89385
67950.00000	87.85459	871.69562	87.85459
68000.00000	87.77718	869.16998	87.77718
68050.00000	87.74554	867.37361	87.74554
68100.00000	87.83443	866.24934	87.83443
68150.00000	87.72367	864.13593	87.72367
68200.00000	87.90023	861.78166	87.90023
68250.00000	87.88136	860.49408	87.88136
68300.00000	87.91659	858.32644	87.91659
68350.00000	88.03326	855.58392	88.03326
68400.00000	88.13024	855.65158	88.13024
68450.00000	87.98627	852.15779	87.98627
68500.00000	88.27925	850.06521	88.27925
68550.00000	88.35510	847.45050	88.35510
68600.00000	88.41395	843.72192	88.41395
68650.00000	88.52803	841.04409	88.52803
68700.00000	88.55083	838.50395	88.55083
68750.00000	88.62247	834.77205	88.62247
68800.00000	88.69631	831.33106	88.69631
68850.00000	88.64618	828.03249	88.64618
68900.00000	88.57288	823.92324	88.57288
68950.00000	88.64725	820.69122	88.64725
69000.00000	88.57642	817.08523	88.57642
69050.00000	88.36611	813.48983	88.36611
69100.00000	88.31305	809.03543	88.31305
69150.00000	88.02098	805.61519	88.02098
69200.00000	87.94974	802.04264	87.94974
69250.00000	87.86010	799.15882	87.86010
69300.00000	87.60389	796.65698	87.60389
69350.00000	87.50082	792.37151	87.50082
69400.00000	87.32909	789.29705	87.32909
69450.00000	87.05243	786.66265	87.05243
69500.00000	87.06659	782.80331	87.06659
69550.00000	86.74423	777.91129	86.74423
69600.00000	86.38730	774.15205	86.38730
69650.00000	86.13281	770.23484	86.13281
69700.00000	85.74947	765.57315	85.74947
69750.00000	85.47195	761.67250	85.47195
69800.00000	84.78400	757.40129	84.78400
69850.00000	84.19435	754.02586	84.19435
69900.00000	83.35530	748.80391	83.35530
69950.00000	82.57251	749.23145	82.57251
70000.00000	81.54122	747.51220	81.54122
70050.00000	80.48561	746.48907	80.48561
70100.00000	79.96146	747.22032	79.96146
70150.00000	79.20449	752.59719	79.20449
70200.00000	78.60016	754.31496	78.60016
70250.00000	78.27274	761.23656	78.27274
70300.00000	78.19421	767.47081	78.19421
70350.00000	78.72894	770.01999	78.72894
70400.00000	79.57611	771.82052	79.57611
70450.00000	79.63818	776.20327	79.63818
70500.00000	80.01151	773.95395	80.01151
70550.00000	80.66871	776.82752	80.66871
70600.00000	80.50140	775.52359	80.50140
70650.00000	81.54276	775.10257	81.54276
70700.00000	81.94933	773.59718	81.94933
70750.00000	82.35137	771.69170	82.35137
70800.00000	82.67798	768.95028	82.67798
70850.00000	82.99406	766.33116	82.99406
70900.00000	83.34330	765.51619	83.34330
70950.00000	83.65744	761.61282	83.65744
71000.00000	84.25568	760.67734	84.25568
71050.00000	84.67497	755.89283	84.67497
71100.00000	84.99418	752.99887	84.99418
71150.00000	85.23734	751.64262	85.23734
71200.00000	85.73739	747.82123	85.73739
71250.00000	86.35709	740.79990	86.35709
71300.00000	86.40617	737.91480	86.40617
71350.00000	86.83405	731.08049	86.83405
71400.00000	87.13272	724.48184	87.13272
71450.00000	87.23202	720.07364	87.23202
71500.00000	87.41270	711.04711	87.41270
71550.00000	87.40055	706.63481	87.40055
71600.00000	87.19634	700.72506	87.19634
71650.00000	86.94117	694.53312	86.94117
71700.00000	86.82565	689.91039	86.82565
71750.00000	86.62117	683.33030	86.62117
71800.00000	86.67225	678.72236	86.67225
71850.00000	86.18164	673.94518	86.18164
71900.00000	85.73165	667.79018	85.73165
71950.00000	85.13988	660.20596	85.13988
72000.00000	85.02939	658.08102	85.02939
72050.00000	84.34384	654.29980	84.34384
72100.00000	83.97614	651.24569	83.97614
72150.00000	84.11150	647.68962	84.11150
72200.00000	84.13896	641.97672	84.13896
72250.00000	83.55300	638.51764	83.55300
72300.00000	83.33712	633.71766	83.33712
72350.00000	83.04864	627.07153	83.04864
72400.00000	82.75333	619.52956	82.75333
72450.00000	82.12180	614.95330	82.12180
72500.00000	81.83392	608.80308	81.83392
72550.00000	80.36732	599.37910	80.36732
72600.00000	80.15683	590.84172	80.15683
72650.00000	78.44152	587.86855	78.44152
72700.00000	77.07836	578.20392	77.07836
72750.00000	76.00290	572.51844	76.00290
72800.00000	73.73355	567.55965	73.73355
72850.00000	71.01483	563.26105	71.01483
72900.00000	67.82255	568.89232	67.82255
72950.00000	63.37652	556.00021	63.37652
73000.00000	62.87510	623.05464	62.87510
73050.00000	66.85382	647.70850	66.85382
73100.00000	66.50935	658.33307	66.50935
73150.00000	68.96407	652.33266	68.96407
73200.00000	71.03740	652.82281	71.03740
73250.00000	72.72772	652.01249	72.72772
73300.00000	73.45017	641.60869	73.45017
73350.00000	73.61497	636.48117	73.61497
73400.00000	74.25269	637.77363	74.25269
73450.00000	74.10759	635.68858	74.10759
73500.00000	75.42392	623.12252	75.42392
73550.00000	75.15729	621.93656	75.15729
73600.00000	75.09876	620.90508	75.09876
73650.00000	76.16530	613.26537	76.16530
73700.00000	76.22529	604.51979	76.22529
73750.00000	77.14134	601.79231	77.14134
73800.00000	76.32739	590.74602	76.32739
73850.00000	77.85401	577.96924	77.85401
73900.00000	76.97482	574.21824	76.97482
73950.00000	77.08047	559.31735	77.08047
74000.00000	77.31857	554.04258	77.31857
74050.00000	77.60496	535.48748	77.60496
74100.00000	77.92438	528.20399	77.92438
74150.00000	77.07377	510.02824	77.07377
74200.00000	77.22942	495.38915	77.22942
74250.00000	77.55266	480.43359	77.55266
74300.00000	77.67722	452.92263	77.67722
74350.00000	77.47077	438.18716	77.47077
74400.00000	76.13551	371.12134	76.13551
74450.00000	72.38383	192.49025	72.38383
74500.00000	75.90628	123.64834	75.90628
74550.00000	76.18997	93.19114	76.18997
74600.00000	75.91456	66.04867	75.91456
74650.00000	77.40203	50.57856	77.40203
74700.00000	76.94155	35.52886	76.94155
74750.00000	78.02857	25.28852	78.02857
74800.00000	77.02656	16.53381	77.02656
74850.00000	77.67718	 5.79012	77.67718
74900.00000	78.26916	-8.12615	78.26916
74950.00000	77.95439	-11.29726	77.95439
75000.00000	79.03618	-19.94807	79.03618
75050.00000	77.88213	-28.71283	77.88213
75100.00000	78.00606	-34.83809	78.00606
75150.00000	77.92038	-36.07274	77.92038
75200.00000	77.91495	-46.42189	77.91495
75250.00000	77.54959	-57.20820	77.54959
75300.00000	77.38256	-59.20866	77.38256
75350.00000	77.42504	-64.05734	77.42504
75400.00000	77.57294	-65.07710	77.57294
75450.00000	76.63286	-67.64378	76.63286
75500.00000	76.19461	-76.84504	76.19461
75550.00000	77.13883	-71.89704	77.13883
75600.00000	76.54344	-79.60196	76.54344
75650.00000	75.81877	-82.87088	75.81877
75700.00000	75.75906	-83.92514	75.75906
75750.00000	75.52265	-93.79368	75.52265
75800.00000	76.26760	-86.90040	76.26760
75850.00000	77.05993	-91.30903	77.05993
75900.00000	76.05961	-92.55130	76.05961
75950.00000	75.40330	-92.12214	75.40330
76000.00000	76.55030	-91.08511	76.55030
76050.00000	75.87522	-96.15374	75.87522
76100.00000	75.92132	-95.84038	75.92132
76150.00000	76.74097	-99.58520	76.74097
76200.00000	77.17007	-94.90628	77.17007
76250.00000	76.26831	-99.10105	76.26831
76300.00000	76.94443	-100.63139	76.94443
76350.00000	77.48966	-105.79017	77.48966
76400.00000	76.79353	-105.33713	76.79353
76450.00000	77.18882	-104.49567	77.18882
76500.00000	78.10280	-110.64489	78.10280
76550.00000	78.61069	-114.54176	78.61069
76600.00000	78.40786	-114.73856	78.40786
76650.00000	77.46661	-121.26827	77.46661
76700.00000	79.19898	-117.89825	79.19898
76750.00000	78.79652	-119.45481	78.79652
76800.00000	79.38712	-131.87137	79.38712
76850.00000	79.77788	-129.52633	79.77788
76900.00000	80.02972	-134.73730	80.02972
76950.00000	80.17509	-135.81181	80.17509
77000.00000	80.21984	-137.40067	80.21984
77050.00000	80.61495	-147.28191	80.61495
77100.00000	80.51822	-148.04294	80.51822
77150.00000	80.91344	-152.75690	80.91344
77200.00000	80.38426	-154.47977	80.38426
77250.00000	80.78845	-156.63819	80.78845
77300.00000	79.89092	-163.65681	79.89092
77350.00000	80.82193	-160.58048	80.82193
77400.00000	81.11542	-161.23474	81.11542
77450.00000	80.00636	-175.63887	80.00636
77500.00000	80.59983	-175.17324	80.59983
77550.00000	80.75012	-177.44825	80.75012
77600.00000	80.37999	-180.99153	80.37999
77650.00000	80.63239	-183.47900	80.63239
77700.00000	79.92603	-191.75618	79.92603
77750.00000	80.58926	-190.70282	80.58926
77800.00000	80.17908	-186.61405	80.17908
77850.00000	80.70543	-195.80147	80.70543
77900.00000	81.02418	-197.83776	81.02418
77950.00000	79.93056	-204.28960	79.93056
78000.00000	80.81205	-208.64560	80.81205
78050.00000	80.39448	-205.02027	80.39448
78100.00000	80.68131	-215.45851	80.68131
78150.00000	80.65582	-215.73735	80.65582
78200.00000	80.28192	-219.65909	80.28192
78250.00000	80.73102	-224.16553	80.73102
78300.00000	80.29782	-221.41946	80.29782
78350.00000	80.00740	-229.28981	80.00740
78400.00000	80.33799	-231.30104	80.33799
78450.00000	79.58880	-230.38758	79.58880
78500.00000	79.64008	-240.14514	79.64008
78550.00000	80.00710	-234.60008	80.00710
78600.00000	79.89744	-244.31827	79.89744
78650.00000	80.22347	-244.50847	80.22347
78700.00000	79.02549	-242.57035	79.02549
78750.00000	79.00139	-249.83852	79.00139
78800.00000	79.65993	-247.14426	79.65993
78850.00000	79.40570	-253.45685	79.40570
78900.00000	79.48660	-259.49316	79.48660
78950.00000	78.83887	-257.81746	78.83887
79000.00000	78.93614	-259.46528	78.93614
79050.00000	79.11789	-262.40896	79.11789
79100.00000	78.84580	-265.71971	78.84580
79150.00000	78.96057	-269.55409	78.96057
79200.00000	78.95540	-271.54189	78.95540
79250.00000	78.44841	-275.49569	78.44841
79300.00000	78.85120	-274.20245	78.85120
79350.00000	78.71907	-278.87179	78.71907
79400.00000	78.54303	-281.23583	78.54303
79450.00000	78.60539	-284.33503	78.60539
79500.00000	78.28166	-285.26316	78.28166
79550.00000	78.19109	-288.85911	78.19109
79600.00000	78.51779	-290.90105	78.51779
79650.00000	78.60716	-293.49539	78.60716
79700.00000	77.78142	-295.24627	77.78142
79750.00000	77.74918	-299.47675	77.74918
79800.00000	77.93123	-301.19125	77.93123
79850.00000	77.85960	-303.86987	77.85960
79900.00000	77.89925	-308.29286	77.89925
79950.00000	78.02561	-307.75606	78.02561
80000.00000	77.34094	-309.60676	77.34094
80050.00000	77.30457	-314.00846	77.30457
80100.00000	77.23691	-314.95620	77.23691
80150.00000	77.08574	-319.86868	77.08574
80200.00000	77.28338	-322.78210	77.28338
80250.00000	76.77651	-324.37118	76.77651
80300.00000	76.11869	-326.26785	76.11869
80350.00000	76.00621	-331.70377	76.00621
80400.00000	75.63200	-332.65379	75.63200
80450.00000	74.75916	-333.55180	74.75916
80500.00000	74.06360	-334.91627	74.06360
80550.00000	73.54820	-335.57044	73.54820
80600.00000	73.79534	-327.94599	73.79534
80650.00000	73.52412	-329.65496	73.52412
80700.00000	73.60744	-327.95824	73.60744
80750.00000	74.10617	-326.57900	74.10617
80800.00000	74.05349	-325.84042	74.05349
80850.00000	74.82530	-324.25297	74.82530
80900.00000	74.55427	-326.65526	74.55427
80950.00000	74.93079	-329.15453	74.93079
81000.00000	74.45638	-332.05129	74.45638
81050.00000	75.26159	-335.29140	75.26159
81100.00000	74.25927	-333.78500	74.25927
81150.00000	73.97574	-337.63087	73.97574
81200.00000	73.85431	-337.97619	73.85431
81250.00000	73.72837	-338.52223	73.72837
81300.00000	73.16098	-336.25691	73.16098
81350.00000	73.38462	-337.13305	73.38462
81400.00000	73.22720	-334.35212	73.22720
81450.00000	73.82103	-327.64448	73.82103
81500.00000	73.95160	-332.35698	73.95160
81550.00000	74.49482	-331.71110	74.49482
81600.00000	74.64848	-331.14196	74.64848
81650.00000	74.91466	-331.19345	74.91466
81700.00000	75.51325	-329.41055	75.51325
81750.00000	75.99325	-332.89047	75.99325
81800.00000	75.98058	-336.61423	75.98058
81850.00000	76.27653	-335.70996	76.27653
81900.00000	76.97123	-338.96053	76.97123
81950.00000	77.08454	-340.95082	77.08454
82000.00000	77.02864	-339.71806	77.02864
82050.00000	77.63371	-343.25001	77.63371
82100.00000	77.65459	-344.11387	77.65459
82150.00000	77.82360	-349.02585	77.82360
82200.00000	78.18733	-348.68705	78.18733
82250.00000	77.93448	-352.26079	77.93448
82300.00000	78.17450	-354.10557	78.17450
82350.00000	78.09779	-355.53158	78.09779
82400.00000	78.16368	-356.17342	78.16368
82450.00000	77.81344	-357.32823	77.81344
82500.00000	77.71860	-358.37133	77.71860
82550.00000	77.89541	-356.27671	77.89541
82600.00000	77.80596	-352.01157	77.80596
82650.00000	78.29414	-350.74376	78.29414
82700.00000	78.50176	-345.37188	78.50176
82750.00000	79.88784	-344.10388	79.88784
82800.00000	81.52053	-343.05606	81.52053
82850.00000	82.96228	-346.63202	82.96228
82900.00000	84.19343	-352.39728	84.19343
82950.00000	85.33930	-360.65988	85.33930
83000.00000	86.15762	-366.97958	86.15762
83050.00000	86.64687	-373.35155	86.64687
83100.00000	87.31494	-380.31624	87.31494
83150.00000	87.61600	-385.93440	87.61600
83200.00000	88.14625	-390.47169	88.14625
83250.00000	88.57388	-395.35557	88.57388
83300.00000	88.98317	-401.13315	88.98317
83350.00000	89.31264	-405.06218	89.31264
83400.00000	89.73237	-411.36264	89.73237
83450.00000	90.00532	-416.40934	90.00532
83500.00000	90.43247	-421.54550	90.43247
83550.00000	90.68473	-427.47888	90.68473
83600.00000	91.07250	-432.99413	91.07250
83650.00000	91.15823	-439.35308	91.15823
83700.00000	91.35615	-445.19936	91.35615
83750.00000	91.53856	-452.64186	91.53856
83800.00000	91.56358	-459.26339	91.56358
83850.00000	91.54556	-465.53205	91.54556
83900.00000	91.46881	-473.20241	91.46881
83950.00000	91.24175	-480.24940	91.24175
84000.00000	91.05198	-487.80104	91.05198
84050.00000	90.44973	-493.67229	90.44973
84100.00000	89.95679	-499.71287	89.95679
84150.00000	89.22381	-504.51371	89.22381
84200.00000	88.57029	-507.71355	88.57029
84250.00000	87.70906	-509.11935	87.70906
84300.00000	87.31814	-509.61660	87.31814
84350.00000	87.19663	-508.43157	87.19663
84400.00000	87.36061	-507.77751	87.36061
84450.00000	87.75007	-507.58444	87.75007
84500.00000	88.10525	-510.55436	88.10525
84550.00000	88.66921	-512.83848	88.66921
84600.00000	88.99944	-517.63729	88.99944
84650.00000	89.40183	-522.66740	89.40183
84700.00000	89.72638	-527.71155	89.72638
84750.00000	89.90938	-534.13926	89.90938
84800.00000	89.90844	-540.72972	89.90844
84850.00000	89.98618	-546.83183	89.98618
84900.00000	89.90051	-552.63994	89.90051
84950.00000	89.83844	-557.95579	89.83844
85000.00000	89.71132	-564.98726	89.71132
85050.00000	89.52010	-570.93746	89.52010
85100.00000	89.33721	-576.74612	89.33721
85150.00000	89.02027	-583.15762	89.02027
85200.00000	88.72663	-588.10302	88.72663
85250.00000	88.83931	-594.13428	88.83931
85300.00000	87.81473	-598.78047	87.81473
85350.00000	87.42631	-603.44458	87.42631
85400.00000	87.13261	-608.33319	87.13261
85450.00000	86.68305	-613.49933	86.68305
85500.00000	86.19209	-618.54485	86.19209
85550.00000	85.67108	-622.55252	85.67108
85600.00000	84.99951	-625.42357	84.99951
85650.00000	84.58432	-631.14629	84.58432
85700.00000	84.06509	-632.86642	84.06509
85750.00000	83.50529	-637.01116	83.50529
85800.00000	83.03001	-637.13357	83.03001
85850.00000	82.41710	-642.84897	82.41710
85900.00000	82.06304	-646.75362	82.06304
85950.00000	81.38381	-647.33825	81.38381
86000.00000	81.13946	-649.22165	81.13946
86050.00000	80.27770	-650.95187	80.27770
86100.00000	80.29846	-652.59742	80.29846
86150.00000	79.70212	-655.23776	79.70212
86200.00000	79.66570	-657.86187	79.66570
86250.00000	79.20798	-656.44510	79.20798
86300.00000	78.28940	-659.53211	78.28940
86350.00000	78.30127	-659.28697	78.30127
86400.00000	76.75614	-667.86405	76.75614
86450.00000	76.76333	-664.61201	76.76333
86500.00000	76.18981	-660.30379	76.18981
86550.00000	76.54259	-662.80075	76.54259
86600.00000	75.98151	-665.63827	75.98151
86650.00000	75.64830	-664.63771	75.64830
86700.00000	75.74212	-664.37480	75.74212
86750.00000	75.15712	-665.96234	75.15712
86800.00000	75.00496	-665.63629	75.00496
86850.00000	74.67672	-666.23700	74.67672
86900.00000	74.50656	-665.21157	74.50656
86950.00000	75.25538	-665.89674	75.25538
87000.00000	74.91655	-663.60107	74.91655
87050.00000	74.52274	-671.09942	74.52274
87100.00000	74.07591	-672.48316	74.07591
87150.00000	73.93818	-674.07369	73.93818
87200.00000	73.92645	-670.19318	73.92645
87250.00000	74.29743	-670.33604	74.29743
87300.00000	74.25406	-669.18583	74.25406
87350.00000	73.93224	-672.23114	73.93224
87400.00000	74.00790	-676.71389	74.00790
87450.00000	73.89976	-675.75680	73.89976
87500.00000	74.03670	-675.18528	74.03670
87550.00000	73.48142	-678.19916	73.48142
87600.00000	74.27646	-677.27208	74.27646
87650.00000	73.56545	-680.51958	73.56545
87700.00000	73.87792	-679.12969	73.87792
87750.00000	74.03508	-679.76531	74.03508
87800.00000	74.13111	-679.53889	74.13111
87850.00000	74.11668	-687.35600	74.11668
87900.00000	73.76161	-683.15766	73.76161
87950.00000	74.27351	-689.02459	74.27351
88000.00000	73.82172	-689.71110	73.82172
88050.00000	74.14074	-691.47691	74.14074
88100.00000	74.53085	-691.89445	74.53085
88150.00000	74.42494	-696.06857	74.42494
88200.00000	74.76447	-696.49185	74.76447
88250.00000	74.89558	-696.86268	74.89558
88300.00000	74.91801	-699.29172	74.91801
88350.00000	74.82499	-706.41891	74.82499
88400.00000	74.69928	-705.19967	74.69928
88450.00000	74.53557	-708.75957	74.53557
88500.00000	74.61890	-708.57573	74.61890
88550.00000	74.46460	-709.58972	74.46460
88600.00000	74.61808	-715.14396	74.61808
88650.00000	74.71174	-714.95619	74.71174
88700.00000	74.66635	-717.82522	74.66635
88750.00000	74.84468	-721.79985	74.84468
88800.00000	74.79746	-725.55586	74.79746
88850.00000	74.65101	-725.45256	74.65101
88900.00000	74.54191	-728.98932	74.54191
88950.00000	73.90479	-726.47668	73.90479
89000.00000	74.30653	-727.59703	74.30653
89050.00000	73.94257	-733.46354	73.94257
89100.00000	73.94094	-732.50406	73.94094
89150.00000	73.88739	-736.42609	73.88739
89200.00000	73.85710	-735.98796	73.85710
89250.00000	74.23876	-735.64718	74.23876
89300.00000	74.47773	-738.87017	74.47773
89350.00000	74.12876	-742.76527	74.12876
89400.00000	74.55383	-744.61028	74.55383
89450.00000	74.80028	-742.94563	74.80028
89500.00000	74.53270	-749.92186	74.53270
89550.00000	74.55153	-745.73520	74.55153
89600.00000	74.71523	-749.44106	74.71523
89650.00000	75.04344	-750.40547	75.04344
89700.00000	74.52365	-750.80600	74.52365
89750.00000	74.84174	-756.50464	74.84174
89800.00000	74.74313	-753.31006	74.74313
89850.00000	74.63297	-755.33200	74.63297
89900.00000	74.98579	-757.51670	74.98579
89950.00000	75.28478	-753.41760	75.28478
90000.00000	75.19401	-750.21601	75.19401
90050.00000	75.76283	-743.90606	75.76283
90100.00000	78.05642	-748.15140	78.05642
90150.00000	79.68943	-746.76615	79.68943
90200.00000	82.43490	-754.03528	82.43490
90250.00000	83.49890	-777.10622	83.49890
90300.00000	83.33853	-795.87615	83.33853
90350.00000	81.53183	-811.64002	81.53183
90400.00000	80.87940	-813.13932	80.87940
90450.00000	80.16622	-817.03607	80.16622
90500.00000	79.52520	-823.30538	79.52520
90550.00000	78.47300	-826.83154	78.47300
90600.00000	78.27615	-827.55416	78.27615
90650.00000	77.90507	-832.11601	77.90507
90700.00000	77.52522	-836.23429	77.52522
90750.00000	76.92604	-835.19459	76.92604
90800.00000	76.86040	-836.31559	76.86040
90850.00000	77.39632	-836.73225	77.39632
90900.00000	77.08826	-837.77113	77.08826
90950.00000	77.13947	-837.10864	77.13947
91000.00000	77.28666	-845.18057	77.28666
91050.00000	77.25451	-846.48780	77.25451
91100.00000	77.46962	-850.07434	77.46962
91150.00000	77.43748	-849.34323	77.43748
91200.00000	77.21608	-852.59307	77.21608
91250.00000	77.32519	-858.43799	77.32519
91300.00000	77.23044	-858.70113	77.23044
91350.00000	77.51702	-861.49035	77.51702
91400.00000	77.64591	-866.20922	77.64591
91450.00000	77.30930	-869.19556	77.30930
91500.00000	77.53132	-872.89959	77.53132
91550.00000	77.54035	-875.13043	77.54035
91600.00000	77.64264	-878.85398	77.64264
91650.00000	77.51956	-883.33964	77.51956
91700.00000	77.59475	-885.37806	77.59475
91750.00000	77.93162	-889.78545	77.93162
91800.00000	77.67475	-893.59583	77.67475
91850.00000	77.35096	-897.62353	77.35096
91900.00000	77.51227	-901.67042	77.51227
91950.00000	77.33771	-902.63030	77.33771
92000.00000	77.40455	-907.57163	77.40455
92050.00000	77.72149	-909.37823	77.72149
92100.00000	77.41870	-913.81543	77.41870
92150.00000	77.52397	-915.24629	77.52397
92200.00000	77.87551	-920.77601	77.87551
92250.00000	77.75471	-923.85876	77.75471
92300.00000	77.46850	-926.78215	77.46850
92350.00000	78.19466	-933.15277	78.19466
92400.00000	78.18663	-937.22005	78.18663
92450.00000	78.00794	-938.54224	78.00794
92500.00000	77.95536	-946.54982	77.95536
92550.00000	77.85589	-948.58507	77.85589
92600.00000	77.63851	-950.78723	77.63851
92650.00000	77.93639	-961.30033	77.93639
92700.00000	78.19395	-961.53797	78.19395
92750.00000	77.59883	-966.74553	77.59883
92800.00000	77.80650	-970.65821	77.80650
92850.00000	77.77364	-976.68285	77.77364
92900.00000	78.16526	-979.88308	78.16526
92950.00000	78.20101	-984.97697	78.20101
93000.00000	78.46845	-991.90508	78.46845
93050.00000	77.84136	-993.01228	77.84136
93100.00000	77.55154	-999.60319	77.55154
93150.00000	78.53346	-1005.62714	78.53346
93200.00000	78.17475	-1010.34462	78.17475
93250.00000	78.47740	-1016.10496	78.47740
93300.00000	78.42055	-1023.14160	78.42055
93350.00000	78.20206	-1028.40398	78.20206
93400.00000	78.04809	-1034.18695	78.04809
93450.00000	77.91830	-1041.89053	77.91830
93500.00000	77.69454	-1048.14613	77.69454
93550.00000	77.51804	-1055.10983	77.51804
93600.00000	77.15526	-1059.28018	77.15526
93650.00000	76.77612	-1064.46225	76.77612
93700.00000	77.04225	-1074.21724	77.04225
93750.00000	76.12292	-1080.08142	76.12292
93800.00000	75.73190	-1084.98256	75.73190
93850.00000	74.99308	-1087.74620	74.99308
93900.00000	75.09891	-1091.43930	75.09891
93950.00000	73.72153	-1097.30889	73.72153
94000.00000	73.21529	-1100.53959	73.21529
94050.00000	72.99062	-1105.75598	72.99062
94100.00000	73.13848	-1109.67370	73.13848
94150.00000	71.92951	-1115.97845	71.92951
94200.00000	71.99580	-1113.44478	71.99580
94250.00000	72.22546	-1120.71877	72.22546
94300.00000	71.22042	-1125.79417	71.22042
94350.00000	70.94197	-1124.85521	70.94197
94400.00000	71.78997	-1128.72869	71.78997
94450.00000	71.09625	-1128.96506	71.09625
94500.00000	70.54725	-1139.43700	70.54725
94550.00000	69.78542	-1140.38525	69.78542
94600.00000	70.71997	-1139.97509	70.71997
94650.00000	69.61006	-1154.47615	69.61006
94700.00000	69.52340	-1156.50535	69.52340
94750.00000	70.30741	-1159.03459	70.30741
94800.00000	67.55175	-1163.94600	67.55175
94850.00000	67.68548	-1161.87104	67.68548
94900.00000	67.86061	-1164.24126	67.86061
94950.00000	67.46865	-1165.63537	67.46865
95000.00000	66.87447	-1183.69047	66.87447
95050.00000	65.71596	-1185.78940	65.71596
95100.00000	66.05707	-1185.22953	66.05707
95150.00000	65.96154	-1190.17506	65.96154
95200.00000	63.29678	-1188.71871	63.29678
95250.00000	61.47673	-1194.73371	61.47673
95300.00000	60.68656	-1207.15141	60.68656
95350.00000	61.68954	-1190.27387	61.68954
95400.00000	61.34404	-1215.86003	61.34404
95450.00000	57.29427	-1193.74841	57.29427
95500.00000	59.57072	-1196.54113	59.57072
95550.00000	59.74838	-1193.78570	59.74838
95600.00000	60.95354	-1201.53262	60.95354
95650.00000	62.50231	-1194.32909	62.50231
95700.00000	60.16956	-1176.09777	60.16956
95750.00000	64.93199	-1181.36126	64.93199
95800.00000	62.73726	-1204.26135	62.73726
95850.00000	61.62519	-1199.97536	61.62519
95900.00000	62.61853	-1203.24101	62.61853
95950.00000	63.70385	-1208.15568	63.70385
96000.00000	64.47017	-1212.32948	64.47017
96050.00000	63.73558	-1218.29226	63.73558
96100.00000	65.39290	-1236.48710	65.39290
96150.00000	64.17405	-1237.44308	64.17405
96200.00000	64.50276	-1236.64109	64.50276
96250.00000	66.50439	-1262.06211	66.50439
96300.00000	62.85072	-1264.37491	62.85072
96350.00000	66.94660	-1296.27605	66.94660
96400.00000	66.86153	-1300.39949	66.86153
96450.00000	68.37173	-1299.35113	68.37173
96500.00000	68.30438	-1303.43643	68.30438
96550.00000	65.14781	-1319.34555	65.14781
96600.00000	51.33159	-1317.10283	51.33159
96650.00000	68.85914	-1359.00415	68.85914
96700.00000	65.71123	-1357.81738	65.71123
96750.00000	64.73189	-1353.02527	64.73189
96800.00000	64.45660	-1377.43776	64.45660
96850.00000	64.46876	-1382.45812	64.46876
96900.00000	58.20039	-1380.02633	58.20039
96950.00000	67.29709	-1395.80266	67.29709
97000.00000	62.58020	-1445.99280	62.58020
97050.00000	51.16983	-1439.54775	51.16983
97100.00000	66.32335	-1409.38350	66.32335
97150.00000	62.65043	-1444.04574	62.65043
97200.00000	69.48500	-1476.45947	69.48500
97250.00000	65.02186	-1482.00929	65.02186
97300.00000	62.74231	-1533.65234	62.74231
97350.00000	60.41871	-1598.74203	60.41871
97400.00000	60.70084	-1604.00798	60.70084
97450.00000	53.21869	-1702.48210	53.21869
97500.00000	51.61392	-1774.28341	51.61392
97550.00000	32.82301	-1752.23734	32.82301
97600.00000	49.18818	-1899.00435	49.18818
97650.00000	52.24484	-1961.34208	52.24484
97700.00000	54.52992	-2001.75136	54.52992
97750.00000	58.01600	-2007.15206	58.01600
97800.00000	48.97327	-1997.14761	48.97327
97850.00000	59.34949	-2007.23943	59.34949
97900.00000	59.74731	-2035.57883	59.74731
97950.00000	48.12718	-1987.54250	48.12718
98000.00000	54.11844	-2033.36338	54.11844
98050.00000	55.20531	-2024.18561	55.20531
98100.00000	55.49276	-2023.51697	55.49276
98150.00000	53.65232	-2046.96376	53.65232
98200.00000	57.40724	-2052.73774	57.40724
98250.00000	62.03600	-2058.79508	62.03600
98300.00000	59.83956	-2052.21733	59.83956
98350.00000	64.14302	-2049.15005	64.14302
98400.00000	63.90355	-2048.75184	63.90355
98450.00000	64.95778	-2048.41466	64.95778
98500.00000	63.76672	-2073.72442	63.76672
98550.00000	64.61415	-2075.25450	64.61415
98600.00000	61.76202	-2058.64754	61.76202
98650.00000	61.06586	-2034.36207	61.06586
98700.00000	61.95502	-2069.72101	61.95502
98750.00000	63.98769	-2085.32732	63.98769
98800.00000	65.38313	-2083.42766	65.38313
98850.00000	62.09863	-2070.63910	62.09863
98900.00000	64.12261	-2091.01003	64.12261
98950.00000	64.56620	-2077.27420	64.56620
99000.00000	65.11998	-2091.13913	65.11998
99050.00000	62.87458	-2075.57544	62.87458
99100.00000	63.17150	-2099.58297	63.17150
99150.00000	64.50750	-2096.45907	64.50750
99200.00000	62.65825	-2092.10481	62.65825
99250.00000	65.26168	-2104.62823	65.26168
99300.00000	64.21885	-2108.11871	64.21885
99350.00000	61.17111	-2107.04246	61.17111
99400.00000	62.66575	-2098.72018	62.66575
99450.00000	64.39842	-2116.35414	64.39842
99500.00000	61.93411	-2116.56572	61.93411
99550.00000	62.56272	-2102.08712	62.56272
99600.00000	62.52263	-2135.01506	62.52263
99650.00000	63.00309	-2144.77623	63.00309
99700.00000	61.25283	-2132.23845	61.25283
99750.00000	62.43175	-2124.41210	62.43175
99800.00000	59.81380	-2130.15081	59.81380
99850.00000	61.06624	-2135.81650	61.06624
99900.00000	60.07799	-2142.12700	60.07799
99950.00000	63.29008	-2141.58529	63.29008
