---ACOUSTIC CALIBRATION---
Filename: C:\Data\CL0809 DATA\CL08093\RightSecondary.calib
Date: 8/9/2019 12:24:03 PM
Format: 4
Probe Tube Correction File: C:\Data\Probe Tube Calibrations\74_ProbeTube.calib
Experiment VIs: 2128
EPL_CFTS.exe V15.0.1f5 (2015)
DAQmx V15.1

Attenuation (dB): 40.000000
Min Freq (Hz): 50.000000
Max Freq (Hz): 99950.000000
Freq Step (Hz): 50.000000
Sample Rate (Hz): 200000.000000
[Smoothing]
Method=None
MA.Iterations=0
MA.Length=0
Loess.Length=0
Loess.Type=Linear
Loess.Robust=FALSE


Freq(Hz)	Mag(dB)	Phase(deg)	Unsmoothed(dB)

50.00000	91.87371	179.05157	91.87371
100.00000	71.37327	243.69583	71.37327
150.00000	68.52661	490.61760	68.52661
200.00000	65.26078	566.51168	65.26078
250.00000	58.64178	798.23226	58.64178
300.00000	61.52068	870.06607	61.52068
350.00000	61.28745	1021.87950	61.28745
400.00000	61.48508	1078.77275	61.48508
450.00000	65.28595	1113.11082	65.28595
500.00000	71.25002	1227.27136	71.25002
550.00000	78.27794	1152.49330	78.27794
600.00000	76.33292	1116.39256	76.33292
650.00000	83.90436	1105.04159	83.90436
700.00000	83.35188	1104.75892	83.35188
750.00000	87.23576	1071.94095	87.23576
800.00000	88.83672	1053.76894	88.83672
850.00000	87.74447	1040.41236	87.74447
900.00000	88.28884	1034.21231	88.28884
950.00000	89.65231	1016.75253	89.65231
1000.00000	89.69648	1009.70552	89.69648
1050.00000	89.66390	993.12809	89.66390
1100.00000	88.86831	984.88168	88.86831
1150.00000	87.97218	982.48555	87.97218
1200.00000	87.51187	988.94429	87.51187
1250.00000	88.24924	992.85578	88.24924
1300.00000	89.69375	992.23085	89.69375
1350.00000	90.31671	989.08926	90.31671
1400.00000	91.13509	990.43665	91.13509
1450.00000	92.14434	989.69982	92.14434
1500.00000	93.46384	987.69181	93.46384
1550.00000	94.73729	982.73505	94.73729
1600.00000	96.07354	978.19384	96.07354
1650.00000	97.14457	973.90398	97.14457
1700.00000	101.26158	957.24515	101.26158
1750.00000	98.31636	936.19093	98.31636
1800.00000	98.07442	931.08778	98.07442
1850.00000	97.84274	923.38610	97.84274
1900.00000	97.84417	915.84164	97.84417
1950.00000	97.17806	908.89089	97.17806
2000.00000	96.37640	903.63313	96.37640
2050.00000	95.31835	903.90507	95.31835
2100.00000	95.66470	910.65699	95.66470
2150.00000	96.98815	906.92143	96.98815
2200.00000	97.26574	897.40478	97.26574
2250.00000	96.70170	892.29148	96.70170
2300.00000	96.30693	890.94495	96.30693
2350.00000	96.28302	888.53405	96.28302
2400.00000	96.36161	886.53248	96.36161
2450.00000	96.15608	882.08285	96.15608
2500.00000	95.53325	882.65311	95.53325
2550.00000	95.69191	882.65315	95.69191
2600.00000	95.85551	881.38341	95.85551
2650.00000	96.04245	880.84493	96.04245
2700.00000	96.21734	878.91440	96.21734
2750.00000	96.42906	877.37639	96.42906
2800.00000	96.69483	875.20835	96.69483
2850.00000	96.97913	873.55351	96.97913
2900.00000	97.28312	871.43779	97.28312
2950.00000	97.58326	869.35060	97.58326
3000.00000	97.78407	867.23871	97.78407
3050.00000	98.01093	864.62929	98.01093
3100.00000	98.23916	861.92384	98.23916
3150.00000	98.26443	859.55893	98.26443
3200.00000	98.40571	856.72941	98.40571
3250.00000	98.63169	854.65206	98.63169
3300.00000	98.64197	852.49990	98.64197
3350.00000	98.86909	850.79649	98.86909
3400.00000	98.98501	849.14785	98.98501
3450.00000	99.15163	848.24872	99.15163
3500.00000	99.35763	847.56396	99.35763
3550.00000	100.03563	845.63837	100.03563
3600.00000	100.11500	842.29479	100.11500
3650.00000	100.41003	841.93729	100.41003
3700.00000	100.66438	840.67805	100.66438
3750.00000	101.18736	838.29027	101.18736
3800.00000	102.01900	836.81324	102.01900
3850.00000	102.56602	827.98629	102.56602
3900.00000	102.96451	820.82827	102.96451
3950.00000	102.21711	818.01302	102.21711
4000.00000	101.86606	819.73494	101.86606
4050.00000	102.27535	821.38154	102.27535
4100.00000	102.97979	822.02412	102.97979
4150.00000	104.63777	819.39074	104.63777
4200.00000	105.62576	814.89986	105.62576
4250.00000	105.76578	802.44400	105.76578
4300.00000	105.90415	799.52685	105.90415
4350.00000	106.32873	794.85933	106.32873
4400.00000	106.70574	788.90533	106.70574
4450.00000	106.83434	781.99330	106.83434
4500.00000	106.99113	775.97997	106.99113
4550.00000	106.93500	770.70100	106.93500
4600.00000	107.00185	765.32807	107.00185
4650.00000	107.05224	760.60015	107.05224
4700.00000	107.06549	755.75223	107.06549
4750.00000	107.09188	751.08866	107.09188
4800.00000	107.14347	746.65428	107.14347
4850.00000	107.20212	741.79223	107.20212
4900.00000	107.25210	736.28654	107.25210
4950.00000	107.27269	731.02781	107.27269
5000.00000	107.22304	725.36399	107.22304
5050.00000	107.13874	719.66734	107.13874
5100.00000	106.97378	713.83086	106.97378
5150.00000	106.69751	707.95307	106.69751
5200.00000	106.22306	702.11740	106.22306
5250.00000	105.29337	699.39348	105.29337
5300.00000	105.48703	701.51211	105.48703
5350.00000	105.89509	695.75093	105.89509
5400.00000	105.74374	689.43362	105.74374
5450.00000	105.42645	684.38892	105.42645
5500.00000	105.10733	679.80231	105.10733
5550.00000	104.80379	675.85847	104.80379
5600.00000	104.46875	671.41841	104.46875
5650.00000	104.02992	667.78733	104.02992
5700.00000	103.61534	664.19082	103.61534
5750.00000	103.23277	661.03956	103.23277
5800.00000	102.85422	658.33431	102.85422
5850.00000	102.47597	655.71528	102.47597
5900.00000	102.12509	653.07558	102.12509
5950.00000	101.80234	650.70327	101.80234
6000.00000	101.48124	648.39096	101.48124
6050.00000	101.17156	645.99289	101.17156
6100.00000	100.82982	643.65629	100.82982
6150.00000	100.45321	641.34067	100.45321
6200.00000	100.09574	639.53065	100.09574
6250.00000	99.74849	637.78473	99.74849
6300.00000	99.42345	636.05594	99.42345
6350.00000	99.09634	634.81462	99.09634
6400.00000	98.80868	633.57349	98.80868
6450.00000	98.50233	632.50923	98.50233
6500.00000	98.20755	631.64753	98.20755
6550.00000	97.94579	631.32798	97.94579
6600.00000	97.77885	630.95931	97.77885
6650.00000	97.62087	630.50463	97.62087
6700.00000	97.55799	630.18648	97.55799
6750.00000	97.62961	629.39423	97.62961
6800.00000	97.70662	628.03701	97.70662
6850.00000	97.78790	626.00340	97.78790
6900.00000	97.74956	623.65986	97.74956
6950.00000	97.68669	621.18574	97.68669
7000.00000	97.50721	618.55271	97.50721
7050.00000	97.27917	616.11724	97.27917
7100.00000	96.97546	613.98760	96.97546
7150.00000	96.75526	611.93630	96.75526
7200.00000	96.44125	610.29007	96.44125
7250.00000	96.10254	609.21546	96.10254
7300.00000	95.78164	608.63942	95.78164
7350.00000	95.53388	608.36914	95.53388
7400.00000	95.25174	608.48081	95.25174
7450.00000	95.00732	609.20704	95.00732
7500.00000	94.88789	610.45579	94.88789
7550.00000	94.85787	611.10323	94.85787
7600.00000	94.86238	611.25083	94.86238
7650.00000	94.99837	611.96229	94.99837
7700.00000	95.23692	612.16185	95.23692
7750.00000	95.50218	611.38737	95.50218
7800.00000	95.67336	610.80551	95.67336
7850.00000	95.77995	610.15380	95.77995
7900.00000	96.00346	608.98106	96.00346
7950.00000	96.15322	607.24714	96.15322
8000.00000	96.24073	605.59603	96.24073
8050.00000	96.38074	604.15871	96.38074
8100.00000	96.54960	602.44294	96.54960
8150.00000	96.69618	600.56243	96.69618
8200.00000	96.79851	599.00305	96.79851
8250.00000	96.89783	597.52579	96.89783
8300.00000	96.99738	595.96551	96.99738
8350.00000	97.10281	593.83547	97.10281
8400.00000	97.17067	591.85148	97.17067
8450.00000	97.23931	590.02277	97.23931
8500.00000	97.37261	588.06860	97.37261
8550.00000	97.48301	586.12833	97.48301
8600.00000	97.55594	584.29972	97.55594
8650.00000	97.62951	582.60143	97.62951
8700.00000	97.70427	580.84754	97.70427
8750.00000	97.76169	578.85084	97.76169
8800.00000	97.78222	576.53364	97.78222
8850.00000	97.87456	574.94398	97.87456
8900.00000	97.95761	573.03604	97.95761
8950.00000	98.10935	571.13129	98.10935
9000.00000	98.14322	568.91195	98.14322
9050.00000	98.17761	567.15500	98.17761
9100.00000	98.25297	565.60525	98.25297
9150.00000	98.35296	563.49773	98.35296
9200.00000	98.41075	561.33098	98.41075
9250.00000	98.45247	559.09609	98.45247
9300.00000	98.57187	557.37035	98.57187
9350.00000	98.68137	554.99481	98.68137
9400.00000	98.73618	552.70790	98.73618
9450.00000	98.79092	550.68350	98.79092
9500.00000	98.89316	548.44834	98.89316
9550.00000	98.99626	546.10048	98.99626
9600.00000	99.14086	543.68660	99.14086
9650.00000	99.27183	541.20520	99.27183
9700.00000	99.35475	538.69734	99.35475
9750.00000	99.45385	536.34952	99.45385
9800.00000	99.51745	533.60644	99.51745
9850.00000	99.58428	530.98728	99.58428
9900.00000	99.66218	528.63957	99.66218
9950.00000	99.71485	526.13007	99.71485
10000.00000	99.89235	523.76341	99.89235
10050.00000	99.97641	520.85037	99.97641
10100.00000	100.03621	518.03214	100.03621
10150.00000	100.02498	515.26001	100.02498
10200.00000	100.06192	512.19510	100.06192
10250.00000	100.03985	509.47564	100.03985
10300.00000	100.04644	506.78971	100.04644
10350.00000	100.02959	504.06094	100.02959
10400.00000	100.01903	501.37155	100.01903
10450.00000	100.02185	498.46743	100.02185
10500.00000	99.98206	495.53847	99.98206
10550.00000	99.96206	492.87020	99.96206
10600.00000	100.00274	489.62289	100.00274
10650.00000	100.00032	486.70009	100.00032
10700.00000	100.00862	483.27910	100.00862
10750.00000	99.94338	480.42624	99.94338
10800.00000	99.95955	477.16565	99.95955
10850.00000	99.97763	473.95185	99.97763
10900.00000	99.95125	470.66039	99.95125
10950.00000	99.89418	467.34115	99.89418
11000.00000	99.87176	464.24046	99.87176
11050.00000	99.77861	461.07254	99.77861
11100.00000	99.73633	457.67192	99.73633
11150.00000	99.60530	454.18263	99.60530
11200.00000	99.47114	450.86052	99.47114
11250.00000	99.26840	447.22139	99.26840
11300.00000	99.08383	443.86051	99.08383
11350.00000	98.85953	440.37376	98.85953
11400.00000	98.58530	436.85207	98.58530
11450.00000	98.26812	433.28002	98.26812
11500.00000	97.98598	429.72860	97.98598
11550.00000	97.64559	426.26413	97.64559
11600.00000	97.27665	423.04149	97.27665
11650.00000	96.86759	420.04386	96.86759
11700.00000	96.46906	417.36491	96.46906
11750.00000	96.06484	414.96460	96.06484
11800.00000	95.68012	413.04805	95.68012
11850.00000	95.31760	411.01964	95.31760
11900.00000	94.85522	409.82711	94.85522
11950.00000	94.49477	409.04616	94.49477
12000.00000	94.16510	408.64940	94.16510
12050.00000	93.79589	408.81833	93.79589
12100.00000	93.38443	408.37608	93.38443
12150.00000	92.98325	408.30964	92.98325
12200.00000	92.70405	408.59711	92.70405
12250.00000	92.42120	408.90756	92.42120
12300.00000	91.98793	408.81882	91.98793
12350.00000	91.73681	408.99566	91.73681
12400.00000	91.42856	408.76562	91.42856
12450.00000	91.27420	408.57774	91.27420
12500.00000	91.15359	409.32518	91.15359
12550.00000	90.95466	409.17449	90.95466
12600.00000	91.00144	408.55897	91.00144
12650.00000	90.93866	409.61725	90.93866
12700.00000	90.83716	409.14048	90.83716
12750.00000	90.74809	409.60842	90.74809
12800.00000	90.81159	409.50856	90.81159
12850.00000	90.68624	410.07717	90.68624
12900.00000	90.65029	409.30048	90.65029
12950.00000	90.72651	408.21647	90.72651
13000.00000	90.69143	406.79495	90.69143
13050.00000	90.57963	405.34048	90.57963
13100.00000	90.73547	403.06179	90.73547
13150.00000	91.04487	401.88122	91.04487
13200.00000	91.39185	397.91053	91.39185
13250.00000	91.98304	393.59752	91.98304
13300.00000	92.86499	394.18759	92.86499
13350.00000	94.00333	392.93559	94.00333
13400.00000	95.16960	397.03266	95.16960
13450.00000	95.88704	406.74600	95.88704
13500.00000	95.62710	420.53192	95.62710
13550.00000	94.57446	426.88395	94.57446
13600.00000	92.83302	429.52160	92.83302
13650.00000	91.31703	427.83663	91.31703
13700.00000	90.20197	423.37402	90.20197
13750.00000	89.47448	414.52648	89.47448
13800.00000	89.22822	405.77537	89.22822
13850.00000	89.32270	397.36420	89.32270
13900.00000	89.78157	387.72063	89.78157
13950.00000	90.64541	381.84347	90.64541
14000.00000	92.10680	377.06415	92.10680
14050.00000	93.98702	376.83413	93.98702
14100.00000	96.02490	379.85682	96.02490
14150.00000	97.42880	392.79004	97.42880
14200.00000	97.55297	407.96764	97.55297
14250.00000	96.32311	420.10390	96.32311
14300.00000	94.94382	424.59074	94.94382
14350.00000	93.77567	422.53806	93.77567
14400.00000	93.08445	419.99844	93.08445
14450.00000	92.55448	414.44782	92.55448
14500.00000	92.35604	408.93431	92.35604
14550.00000	92.65969	401.60263	92.65969
14600.00000	92.87720	396.32836	92.87720
14650.00000	93.52737	390.80355	93.52737
14700.00000	94.32373	384.51614	94.32373
14750.00000	95.26516	380.01223	95.26516
14800.00000	96.17382	377.43781	96.17382
14850.00000	97.36688	376.72723	97.36688
14900.00000	98.41887	377.59484	98.41887
14950.00000	99.08897	380.60748	99.08897
15000.00000	99.27843	383.61926	99.27843
15050.00000	99.21057	386.29889	99.21057
15100.00000	98.87736	386.50880	98.87736
15150.00000	98.54311	384.33627	98.54311
15200.00000	98.33841	381.08368	98.33841
15250.00000	98.10118	376.41880	98.10118
15300.00000	98.06912	370.99994	98.06912
15350.00000	98.33792	365.76576	98.33792
15400.00000	98.48998	360.13013	98.48998
15450.00000	98.84544	354.06499	98.84544
15500.00000	99.32545	349.59331	99.32545
15550.00000	99.77631	346.34426	99.77631
15600.00000	100.21124	343.47378	100.21124
15650.00000	100.74111	341.35558	100.74111
15700.00000	100.79418	339.86192	100.79418
15750.00000	100.96551	339.04085	100.96551
15800.00000	100.75955	338.18256	100.75955
15850.00000	100.55917	336.90770	100.55917
15900.00000	100.26530	335.11787	100.26530
15950.00000	100.02526	332.53070	100.02526
16000.00000	99.91005	329.77901	99.91005
16050.00000	99.85433	326.29025	99.85433
16100.00000	99.85195	322.91236	99.85195
16150.00000	99.97808	319.88077	99.97808
16200.00000	100.20956	317.38496	100.20956
16250.00000	100.41245	314.00332	100.41245
16300.00000	100.66789	312.11693	100.66789
16350.00000	100.89039	310.40358	100.89039
16400.00000	101.06757	308.43330	101.06757
16450.00000	101.16477	307.24705	101.16477
16500.00000	101.24778	305.62469	101.24778
16550.00000	101.30384	303.58293	101.30384
16600.00000	101.28407	301.39968	101.28407
16650.00000	101.23147	298.79703	101.23147
16700.00000	101.17020	296.37741	101.17020
16750.00000	101.24724	293.61892	101.24724
16800.00000	101.27316	290.93115	101.27316
16850.00000	101.41531	288.11022	101.41531
16900.00000	101.62551	285.96373	101.62551
16950.00000	101.67571	283.29596	101.67571
17000.00000	101.79051	281.07989	101.79051
17050.00000	101.91954	279.39383	101.91954
17100.00000	102.05917	277.59159	102.05917
17150.00000	102.15018	275.14654	102.15018
17200.00000	102.14034	273.31012	102.14034
17250.00000	102.18812	270.56663	102.18812
17300.00000	102.22745	267.81313	102.22745
17350.00000	102.32513	265.17099	102.32513
17400.00000	102.39708	262.08625	102.39708
17450.00000	102.45053	259.14409	102.45053
17500.00000	102.51351	256.74526	102.51351
17550.00000	102.61081	253.75219	102.61081
17600.00000	102.72580	251.17811	102.72580
17650.00000	102.79301	248.34852	102.79301
17700.00000	102.80833	246.05011	102.80833
17750.00000	102.89834	243.24814	102.89834
17800.00000	102.86848	240.99857	102.86848
17850.00000	102.87508	238.67485	102.87508
17900.00000	102.94006	236.23578	102.94006
17950.00000	102.91197	233.56725	102.91197
18000.00000	102.88210	231.15060	102.88210
18050.00000	102.89068	228.78726	102.89068
18100.00000	102.94749	226.15012	102.94749
18150.00000	102.95893	223.22761	102.95893
18200.00000	102.97178	220.45901	102.97178
18250.00000	102.96949	217.69466	102.96949
18300.00000	102.93532	214.92306	102.93532
18350.00000	102.91206	212.38752	102.91206
18400.00000	102.82538	209.72055	102.82538
18450.00000	102.83664	207.89509	102.83664
18500.00000	102.84962	205.41321	102.84962
18550.00000	102.81358	202.98048	102.81358
18600.00000	102.74908	200.70697	102.74908
18650.00000	102.75553	198.26499	102.75553
18700.00000	102.73449	196.38353	102.73449
18750.00000	102.71493	193.99751	102.71493
18800.00000	102.70695	191.30021	102.70695
18850.00000	102.60141	189.33101	102.60141
18900.00000	102.52211	187.05053	102.52211
18950.00000	102.42075	184.99713	102.42075
19000.00000	102.35892	183.44765	102.35892
19050.00000	102.35666	181.23704	102.35666
19100.00000	102.28175	179.35133	102.28175
19150.00000	102.29183	177.97052	102.29183
19200.00000	102.30503	176.00863	102.30503
19250.00000	102.28113	174.17780	102.28113
19300.00000	102.31225	172.36276	102.31225
19350.00000	102.29042	170.25875	102.29042
19400.00000	102.20612	168.92522	102.20612
19450.00000	102.22168	167.51266	102.22168
19500.00000	102.30221	165.92713	102.30221
19550.00000	102.40668	164.34946	102.40668
19600.00000	102.38931	162.50713	102.38931
19650.00000	102.44350	160.57906	102.44350
19700.00000	102.47533	158.88613	102.47533
19750.00000	102.54320	157.07600	102.54320
19800.00000	102.59215	155.89790	102.59215
19850.00000	102.71580	153.99447	102.71580
19900.00000	102.82532	152.22902	102.82532
19950.00000	102.93198	150.49411	102.93198
20000.00000	103.07568	148.17180	103.07568
20050.00000	103.13908	145.96685	103.13908
20100.00000	103.23759	144.03161	103.23759
20150.00000	103.35501	141.88477	103.35501
20200.00000	103.43945	139.61778	103.43945
20250.00000	103.59223	137.86706	103.59223
20300.00000	103.69892	135.50596	103.69892
20350.00000	103.83485	133.12845	103.83485
20400.00000	103.92745	130.69431	103.92745
20450.00000	104.05931	128.28761	104.05931
20500.00000	104.20018	125.67474	104.20018
20550.00000	104.28862	122.83215	104.28862
20600.00000	104.35824	120.11483	104.35824
20650.00000	104.45761	117.47178	104.45761
20700.00000	104.57134	114.94551	104.57134
20750.00000	104.60314	112.14595	104.60314
20800.00000	104.68006	109.33241	104.68006
20850.00000	104.72755	106.35107	104.72755
20900.00000	104.77099	103.55067	104.77099
20950.00000	104.81672	100.51156	104.81672
21000.00000	104.88683	97.33346	104.88683
21050.00000	104.91761	94.60029	104.91761
21100.00000	104.94177	91.78845	104.94177
21150.00000	104.95107	88.78728	104.95107
21200.00000	104.91611	85.99722	104.91611
21250.00000	104.87686	83.15311	104.87686
21300.00000	104.86055	80.09800	104.86055
21350.00000	104.82185	77.13148	104.82185
21400.00000	104.80915	74.03957	104.80915
21450.00000	104.80201	71.13093	104.80201
21500.00000	104.76649	68.52419	104.76649
21550.00000	104.71880	65.84585	104.71880
21600.00000	104.63742	62.94407	104.63742
21650.00000	104.55894	60.56055	104.55894
21700.00000	104.45420	57.56404	104.45420
21750.00000	104.37773	54.89102	104.37773
21800.00000	104.29595	52.02431	104.29595
21850.00000	104.22743	49.59615	104.22743
21900.00000	104.11412	47.25425	104.11412
21950.00000	104.06574	44.93811	104.06574
22000.00000	103.86325	42.68435	103.86325
22050.00000	103.78374	40.59393	103.78374
22100.00000	103.70314	38.80239	103.70314
22150.00000	103.63169	36.57881	103.63169
22200.00000	103.54409	34.38586	103.54409
22250.00000	103.50845	32.30123	103.50845
22300.00000	103.44561	30.23643	103.44561
22350.00000	103.37282	28.15850	103.37282
22400.00000	103.35955	25.93788	103.35955
22450.00000	103.31196	24.22693	103.31196
22500.00000	103.27792	21.82002	103.27792
22550.00000	103.25861	19.77816	103.25861
22600.00000	103.21245	17.81186	103.21245
22650.00000	103.13670	16.15124	103.13670
22700.00000	103.10011	14.13830	103.10011
22750.00000	103.12844	11.66990	103.12844
22800.00000	103.09816	 9.56275	103.09816
22850.00000	103.02535	 7.50432	103.02535
22900.00000	103.05286	 5.63004	103.05286
22950.00000	103.02242	 3.56229	103.02242
23000.00000	103.01895	 1.63085	103.01895
23050.00000	103.00772	-0.38178	103.00772
23100.00000	102.96881	-2.67450	102.96881
23150.00000	102.90830	-5.01807	102.90830
23200.00000	102.92219	-7.57969	102.92219
23250.00000	102.97309	-9.77100	102.97309
23300.00000	102.99809	-12.41505	102.99809
23350.00000	102.93787	-14.18299	102.93787
23400.00000	102.91925	-16.28168	102.91925
23450.00000	102.88945	-18.54749	102.88945
23500.00000	102.86718	-20.58266	102.86718
23550.00000	102.84849	-22.88584	102.84849
23600.00000	102.85132	-25.22904	102.85132
23650.00000	102.73461	-27.16899	102.73461
23700.00000	102.79444	-28.96124	102.79444
23750.00000	102.77366	-31.71787	102.77366
23800.00000	102.75508	-33.97999	102.75508
23850.00000	102.79683	-36.18121	102.79683
23900.00000	102.72793	-38.51522	102.72793
23950.00000	102.69168	-41.03598	102.69168
24000.00000	102.72058	-43.44548	102.72058
24050.00000	102.68275	-45.86735	102.68275
24100.00000	102.62963	-48.44980	102.62963
24150.00000	102.57218	-50.63077	102.57218
24200.00000	102.54572	-53.70677	102.54572
24250.00000	102.50732	-55.78032	102.50732
24300.00000	102.47828	-58.38647	102.47828
24350.00000	102.46947	-60.90321	102.46947
24400.00000	102.45160	-63.36140	102.45160
24450.00000	102.29286	-65.30308	102.29286
24500.00000	102.20246	-68.73381	102.20246
24550.00000	102.16541	-71.31448	102.16541
24600.00000	102.11591	-73.79436	102.11591
24650.00000	102.04085	-76.71440	102.04085
24700.00000	101.94939	-79.15480	101.94939
24750.00000	101.87687	-82.02524	101.87687
24800.00000	101.69308	-84.09999	101.69308
24850.00000	101.61785	-86.70857	101.61785
24900.00000	101.38371	-88.97634	101.38371
24950.00000	101.31304	-91.36955	101.31304
25000.00000	101.12931	-94.16138	101.12931
25050.00000	101.01030	-95.71326	101.01030
25100.00000	100.89057	-97.53765	100.89057
25150.00000	100.66663	-99.87601	100.66663
25200.00000	100.53103	-101.79005	100.53103
25250.00000	100.31704	-104.19211	100.31704
25300.00000	100.07693	-106.07936	100.07693
25350.00000	99.99326	-108.31206	99.99326
25400.00000	99.82346	-109.98088	99.82346
25450.00000	99.67839	-112.48830	99.67839
25500.00000	99.53610	-113.52989	99.53610
25550.00000	99.34318	-115.28535	99.34318
25600.00000	99.16094	-116.32514	99.16094
25650.00000	99.02955	-118.18726	99.02955
25700.00000	98.93497	-119.40104	98.93497
25750.00000	98.82481	-121.44081	98.82481
25800.00000	98.67544	-122.15781	98.67544
25850.00000	98.56008	-123.67343	98.56008
25900.00000	98.41635	-125.47060	98.41635
25950.00000	98.34280	-126.40679	98.34280
26000.00000	98.29132	-127.59512	98.29132
26050.00000	98.25894	-129.28887	98.25894
26100.00000	98.17303	-130.56526	98.17303
26150.00000	98.06523	-132.42671	98.06523
26200.00000	97.96296	-133.51306	97.96296
26250.00000	97.94781	-135.24176	97.94781
26300.00000	97.78142	-137.06601	97.78142
26350.00000	97.78696	-138.70889	97.78696
26400.00000	97.76376	-140.32872	97.76376
26450.00000	97.62197	-142.39604	97.62197
26500.00000	97.55686	-143.93596	97.55686
26550.00000	97.51121	-144.68175	97.51121
26600.00000	97.43784	-146.52508	97.43784
26650.00000	97.35675	-148.80957	97.35675
26700.00000	97.22963	-150.35536	97.22963
26750.00000	97.07007	-151.79272	97.07007
26800.00000	96.95034	-153.50251	96.95034
26850.00000	96.80804	-154.33577	96.80804
26900.00000	96.70056	-156.34901	96.70056
26950.00000	96.54085	-157.33477	96.54085
27000.00000	96.39936	-158.84684	96.39936
27050.00000	96.33464	-159.69580	96.33464
27100.00000	96.19330	-161.19620	96.19330
27150.00000	96.00091	-162.48150	96.00091
27200.00000	95.95384	-164.22544	95.95384
27250.00000	95.80991	-164.92044	95.80991
27300.00000	95.69166	-166.07398	95.69166
27350.00000	95.52758	-166.90241	95.52758
27400.00000	95.47107	-167.50785	95.47107
27450.00000	95.45498	-168.45564	95.45498
27500.00000	95.29965	-169.46283	95.29965
27550.00000	95.20221	-169.85344	95.20221
27600.00000	95.14778	-170.52829	95.14778
27650.00000	95.04244	-171.13154	95.04244
27700.00000	94.98528	-171.88942	94.98528
27750.00000	94.90366	-172.38104	94.90366
27800.00000	94.90481	-172.91978	94.90481
27850.00000	94.89614	-173.44133	94.89614
27900.00000	94.91929	-174.36767	94.91929
27950.00000	94.84645	-174.14537	94.84645
28000.00000	94.84757	-174.71287	94.84757
28050.00000	94.84895	-175.28011	94.84895
28100.00000	94.81831	-175.55998	94.81831
28150.00000	94.86166	-176.27878	94.86166
28200.00000	94.94565	-177.15850	94.94565
28250.00000	94.92620	-177.44660	94.92620
28300.00000	94.96633	-178.64796	94.96633
28350.00000	95.06915	-178.48968	95.06915
28400.00000	95.11949	-179.68340	95.11949
28450.00000	95.15470	-180.05185	95.15470
28500.00000	95.22728	-180.98781	95.22728
28550.00000	95.31393	-181.69125	95.31393
28600.00000	95.47210	-182.45757	95.47210
28650.00000	95.53849	-182.92782	95.53849
28700.00000	95.58181	-183.75962	95.58181
28750.00000	95.68803	-184.26055	95.68803
28800.00000	95.70176	-185.90606	95.70176
28850.00000	95.81258	-186.30866	95.81258
28900.00000	95.91168	-187.36686	95.91168
28950.00000	96.00785	-187.82258	96.00785
29000.00000	96.22171	-188.87846	96.22171
29050.00000	96.31386	-189.73606	96.31386
29100.00000	96.36435	-190.47342	96.36435
29150.00000	96.48648	-192.44504	96.48648
29200.00000	96.67838	-192.73021	96.67838
29250.00000	96.68834	-193.58778	96.68834
29300.00000	96.85624	-194.68459	96.85624
29350.00000	96.95822	-195.47709	96.95822
29400.00000	97.04363	-196.43610	97.04363
29450.00000	97.23529	-197.61961	97.23529
29500.00000	97.40037	-198.89068	97.40037
29550.00000	97.54363	-199.35898	97.54363
29600.00000	97.63914	-200.70818	97.63914
29650.00000	97.80500	-201.42783	97.80500
29700.00000	97.96454	-202.19488	97.96454
29750.00000	98.14273	-203.46499	98.14273
29800.00000	98.28514	-204.69322	98.28514
29850.00000	98.50924	-205.88528	98.50924
29900.00000	98.63738	-207.04346	98.63738
29950.00000	98.81113	-207.86068	98.81113
30000.00000	98.98999	-209.31103	98.98999
30050.00000	99.15622	-210.10947	99.15622
30100.00000	99.38152	-211.52860	99.38152
30150.00000	99.56302	-212.81106	99.56302
30200.00000	99.77618	-213.81611	99.77618
30250.00000	99.98460	-215.11065	99.98460
30300.00000	100.18621	-216.74823	100.18621
30350.00000	100.44396	-218.01888	100.44396
30400.00000	100.65213	-219.64620	100.65213
30450.00000	100.85824	-220.96285	100.85824
30500.00000	101.12953	-222.47104	101.12953
30550.00000	101.32242	-223.86083	101.32242
30600.00000	101.59108	-225.64468	101.59108
30650.00000	101.82446	-227.17432	101.82446
30700.00000	102.05458	-229.12289	102.05458
30750.00000	102.24921	-230.78209	102.24921
30800.00000	102.46243	-232.33414	102.46243
30850.00000	102.71274	-234.26949	102.71274
30900.00000	102.98120	-236.28923	102.98120
30950.00000	103.18407	-238.19275	103.18407
31000.00000	103.44077	-240.04668	103.44077
31050.00000	103.66714	-242.07686	103.66714
31100.00000	103.92224	-244.20545	103.92224
31150.00000	104.15377	-246.36683	104.15377
31200.00000	104.33713	-248.64671	104.33713
31250.00000	104.59791	-250.78866	104.59791
31300.00000	104.81488	-253.12518	104.81488
31350.00000	105.01760	-255.17008	105.01760
31400.00000	105.25568	-257.41252	105.25568
31450.00000	105.48272	-259.72726	105.48272
31500.00000	105.66663	-262.14908	105.66663
31550.00000	105.91060	-264.63994	105.91060
31600.00000	106.12902	-267.30970	106.12902
31650.00000	106.32493	-269.77308	106.32493
31700.00000	106.48901	-272.29276	106.48901
31750.00000	106.69545	-274.86585	106.69545
31800.00000	106.85865	-277.67166	106.85865
31850.00000	107.01779	-280.00664	107.01779
31900.00000	107.20209	-282.65981	107.20209
31950.00000	107.38959	-285.47529	107.38959
32000.00000	107.53080	-288.03030	107.53080
32050.00000	107.69745	-290.75380	107.69745
32100.00000	107.86462	-293.27343	107.86462
32150.00000	108.00061	-296.02635	108.00061
32200.00000	108.15165	-298.72606	108.15165
32250.00000	108.29386	-301.35235	108.29386
32300.00000	108.40740	-303.92278	108.40740
32350.00000	108.55029	-306.72334	108.55029
32400.00000	108.68296	-309.38197	108.68296
32450.00000	108.84641	-312.24183	108.84641
32500.00000	108.93421	-314.98650	108.93421
32550.00000	109.03683	-317.53769	109.03683
32600.00000	109.18473	-320.22228	109.18473
32650.00000	109.29230	-323.07928	109.29230
32700.00000	109.37438	-325.71453	109.37438
32750.00000	109.46708	-328.47897	109.46708
32800.00000	109.57524	-330.98318	109.57524
32850.00000	109.70816	-333.76712	109.70816
32900.00000	109.78691	-336.45104	109.78691
32950.00000	109.90597	-339.11700	109.90597
33000.00000	109.99889	-341.98569	109.99889
33050.00000	110.08516	-344.67724	110.08516
33100.00000	110.16114	-347.45540	110.16114
33150.00000	110.25914	-350.17132	110.25914
33200.00000	110.31383	-352.97296	110.31383
33250.00000	110.34767	-355.50049	110.34767
33300.00000	110.42439	-358.01690	110.42439
33350.00000	110.52422	-360.89086	110.52422
33400.00000	110.54660	-363.52154	110.54660
33450.00000	110.63271	-365.99713	110.63271
33500.00000	110.69967	-368.52693	110.69967
33550.00000	110.75784	-371.41488	110.75784
33600.00000	110.80537	-374.17182	110.80537
33650.00000	110.82757	-376.88131	110.82757
33700.00000	110.83773	-379.39632	110.83773
33750.00000	110.86076	-381.91172	110.86076
33800.00000	110.89588	-384.30276	110.89588
33850.00000	110.94076	-386.62534	110.94076
33900.00000	110.97040	-389.05641	110.97040
33950.00000	111.01994	-391.27937	111.01994
34000.00000	111.05156	-393.54332	111.05156
34050.00000	111.09245	-395.57993	111.09245
34100.00000	111.15118	-397.88728	111.15118
34150.00000	111.20618	-400.23017	111.20618
34200.00000	111.26254	-402.32966	111.26254
34250.00000	111.32873	-404.56009	111.32873
34300.00000	111.40143	-406.86895	111.40143
34350.00000	111.46698	-409.06996	111.46698
34400.00000	111.55210	-411.21678	111.55210
34450.00000	111.61699	-413.47782	111.61699
34500.00000	111.70361	-415.63016	111.70361
34550.00000	111.78478	-417.91813	111.78478
34600.00000	111.87013	-420.07135	111.87013
34650.00000	111.98071	-422.36609	111.98071
34700.00000	112.07900	-424.43514	112.07900
34750.00000	112.19609	-426.92532	112.19609
34800.00000	112.32457	-429.55443	112.32457
34850.00000	112.40070	-432.22796	112.40070
34900.00000	112.42303	-434.86029	112.42303
34950.00000	112.43055	-437.21017	112.43055
35000.00000	112.44687	-439.04834	112.44687
35050.00000	112.53711	-440.86367	112.53711
35100.00000	112.62006	-442.84050	112.62006
35150.00000	112.75143	-444.77220	112.75143
35200.00000	112.88593	-446.80299	112.88593
35250.00000	113.01786	-448.88402	113.01786
35300.00000	113.14880	-451.01716	113.14880
35350.00000	113.30055	-453.22009	113.30055
35400.00000	113.44715	-455.51482	113.44715
35450.00000	113.56565	-457.73851	113.56565
35500.00000	113.72879	-459.93358	113.72879
35550.00000	113.89201	-462.20968	113.89201
35600.00000	114.07057	-464.69919	114.07057
35650.00000	114.22584	-467.07633	114.22584
35700.00000	114.38197	-469.47544	114.38197
35750.00000	114.56120	-471.83507	114.56120
35800.00000	114.72883	-474.35489	114.72883
35850.00000	114.92781	-476.78332	114.92781
35900.00000	115.12251	-479.43325	115.12251
35950.00000	115.30945	-481.99239	115.30945
36000.00000	115.52724	-484.67620	115.52724
36050.00000	115.72151	-487.68127	115.72151
36100.00000	115.89290	-490.49063	115.89290
36150.00000	116.08674	-493.40786	116.08674
36200.00000	116.27009	-496.38443	116.27009
36250.00000	116.46122	-499.31585	116.46122
36300.00000	116.67330	-502.45966	116.67330
36350.00000	116.83943	-505.66289	116.83943
36400.00000	117.02284	-508.85672	117.02284
36450.00000	117.21117	-512.08497	117.21117
36500.00000	117.39956	-515.50752	117.39956
36550.00000	117.56437	-518.89294	117.56437
36600.00000	117.72727	-522.37993	117.72727
36650.00000	117.87069	-525.86504	117.87069
36700.00000	118.03408	-529.36746	118.03408
36750.00000	118.17453	-533.08180	118.17453
36800.00000	118.30032	-536.75755	118.30032
36850.00000	118.41604	-540.37080	118.41604
36900.00000	118.50301	-543.99213	118.50301
36950.00000	118.61203	-547.64092	118.61203
37000.00000	118.69580	-551.12695	118.69580
37050.00000	118.80953	-554.59259	118.80953
37100.00000	118.92207	-558.20824	118.92207
37150.00000	119.02251	-561.95275	119.02251
37200.00000	119.09603	-565.58795	119.09603
37250.00000	119.18572	-569.18605	119.18572
37300.00000	119.28803	-572.74734	119.28803
37350.00000	119.39359	-576.32212	119.39359
37400.00000	119.51942	-580.16814	119.51942
37450.00000	119.62703	-583.96009	119.62703
37500.00000	119.76087	-587.84930	119.76087
37550.00000	119.86534	-592.11909	119.86534
37600.00000	119.95504	-596.10804	119.95504
37650.00000	120.08932	-600.30821	120.08932
37700.00000	120.18199	-604.77022	120.18199
37750.00000	120.25321	-609.33648	120.25321
37800.00000	120.32539	-614.01277	120.32539
37850.00000	120.37236	-618.70877	120.37236
37900.00000	120.39821	-623.74021	120.39821
37950.00000	120.36592	-628.80718	120.36592
38000.00000	120.30926	-633.91760	120.30926
38050.00000	120.17169	-639.08851	120.17169
38100.00000	120.02284	-643.89900	120.02284
38150.00000	119.85522	-648.64814	119.85522
38200.00000	119.64833	-653.35689	119.64833
38250.00000	119.40843	-657.68927	119.40843
38300.00000	119.18725	-661.93671	119.18725
38350.00000	118.94505	-666.09694	118.94505
38400.00000	118.70176	-670.00268	118.70176
38450.00000	118.47178	-673.88986	118.47178
38500.00000	118.22246	-677.44205	118.22246
38550.00000	117.99569	-681.14639	117.99569
38600.00000	117.75969	-684.64090	117.75969
38650.00000	117.54133	-688.03429	117.54133
38700.00000	117.31678	-691.44524	117.31678
38750.00000	117.10243	-694.74501	117.10243
38800.00000	116.88796	-698.20949	116.88796
38850.00000	116.67501	-701.66714	116.67501
38900.00000	116.44276	-704.94053	116.44276
38950.00000	116.24357	-708.10417	116.24357
39000.00000	116.04107	-711.70284	116.04107
39050.00000	115.79049	-715.12984	115.79049
39100.00000	115.57274	-718.51611	115.57274
39150.00000	115.30897	-722.03811	115.30897
39200.00000	115.00297	-725.33191	115.00297
39250.00000	114.74345	-728.30497	114.74345
39300.00000	114.43776	-731.43215	114.43776
39350.00000	114.15564	-734.43068	114.15564
39400.00000	113.86931	-737.37224	113.86931
39450.00000	113.57181	-740.24028	113.57181
39500.00000	113.29623	-742.89278	113.29623
39550.00000	112.99113	-745.60941	112.99113
39600.00000	112.70600	-748.38596	112.70600
39650.00000	112.38965	-750.91632	112.38965
39700.00000	112.10260	-753.35509	112.10260
39750.00000	111.78931	-755.75671	111.78931
39800.00000	111.45727	-757.89658	111.45727
39850.00000	111.18436	-759.98117	111.18436
39900.00000	110.89574	-762.21865	110.89574
39950.00000	110.61174	-764.33151	110.61174
40000.00000	110.31174	-766.17393	110.31174
40050.00000	110.02671	-768.06306	110.02671
40100.00000	109.79256	-769.90760	109.79256
40150.00000	109.53234	-771.69852	109.53234
40200.00000	109.29986	-773.35510	109.29986
40250.00000	109.08828	-775.03478	109.08828
40300.00000	108.87761	-776.94633	108.87761
40350.00000	108.66816	-778.68603	108.66816
40400.00000	108.44990	-780.51097	108.44990
40450.00000	108.21898	-782.33787	108.21898
40500.00000	108.01471	-784.21453	108.01471
40550.00000	107.75570	-785.87321	107.75570
40600.00000	107.56266	-787.31420	107.56266
40650.00000	107.35086	-789.07162	107.35086
40700.00000	107.16118	-790.83458	107.16118
40750.00000	106.94578	-792.45779	106.94578
40800.00000	106.70830	-794.42843	106.70830
40850.00000	106.48602	-795.76914	106.48602
40900.00000	106.29078	-797.73596	106.29078
40950.00000	106.06204	-799.16526	106.06204
41000.00000	105.81834	-800.66539	105.81834
41050.00000	105.53122	-801.96475	105.53122
41100.00000	105.28646	-803.00504	105.28646
41150.00000	105.08908	-804.45124	105.08908
41200.00000	104.87098	-805.59095	104.87098
41250.00000	104.61924	-806.53874	104.61924
41300.00000	104.41778	-807.27015	104.41778
41350.00000	104.14467	-808.27115	104.14467
41400.00000	103.95345	-808.83851	103.95345
41450.00000	103.76296	-809.12885	103.76296
41500.00000	103.54832	-809.57795	103.54832
41550.00000	103.38898	-810.16680	103.38898
41600.00000	103.21766	-810.50025	103.21766
41650.00000	103.17885	-810.44148	103.17885
41700.00000	103.00230	-810.32295	103.00230
41750.00000	102.94348	-810.40506	102.94348
41800.00000	102.92090	-810.11489	102.92090
41850.00000	102.86350	-810.91220	102.86350
41900.00000	102.88809	-810.61384	102.88809
41950.00000	102.88523	-810.68625	102.88523
42000.00000	102.95352	-810.80395	102.95352
42050.00000	103.05222	-810.72645	103.05222
42100.00000	103.25008	-810.74647	103.25008
42150.00000	103.43814	-811.84001	103.43814
42200.00000	103.49618	-812.57577	103.49618
42250.00000	103.71438	-813.29561	103.71438
42300.00000	103.85607	-814.10544	103.85607
42350.00000	104.04409	-815.44601	104.04409
42400.00000	104.21528	-816.58712	104.21528
42450.00000	104.36251	-818.20842	104.36251
42500.00000	104.47642	-819.91590	104.47642
42550.00000	104.60865	-821.61809	104.60865
42600.00000	104.77881	-823.55773	104.77881
42650.00000	104.93286	-824.67559	104.93286
42700.00000	105.05653	-826.54450	105.05653
42750.00000	105.16188	-829.24619	105.16188
42800.00000	105.29981	-830.90294	105.29981
42850.00000	105.41504	-832.91033	105.41504
42900.00000	105.48822	-835.23319	105.48822
42950.00000	105.57671	-836.86391	105.57671
43000.00000	105.63243	-838.92149	105.63243
43050.00000	105.72485	-841.05604	105.72485
43100.00000	105.88969	-843.41169	105.88969
43150.00000	106.00054	-845.18759	106.00054
43200.00000	106.02098	-847.26883	106.02098
43250.00000	106.11516	-849.50729	106.11516
43300.00000	106.20930	-851.32897	106.20930
43350.00000	106.27626	-853.28532	106.27626
43400.00000	106.36109	-855.34402	106.36109
43450.00000	106.39799	-857.33230	106.39799
43500.00000	106.48091	-859.91761	106.48091
43550.00000	106.61221	-862.32702	106.61221
43600.00000	106.64729	-864.58908	106.64729
43650.00000	106.71395	-866.78994	106.71395
43700.00000	106.75653	-869.02844	106.75653
43750.00000	106.86364	-871.60710	106.86364
43800.00000	106.92465	-874.35516	106.92465
43850.00000	106.95699	-876.80010	106.95699
43900.00000	107.05393	-878.94718	107.05393
43950.00000	107.10977	-882.20381	107.10977
44000.00000	107.11825	-884.34108	107.11825
44050.00000	107.13134	-887.47666	107.13134
44100.00000	107.14905	-889.68789	107.14905
44150.00000	107.14866	-892.27678	107.14866
44200.00000	107.11317	-895.15136	107.11317
44250.00000	107.14428	-898.16513	107.14428
44300.00000	107.14515	-900.43575	107.14515
44350.00000	107.08450	-902.59582	107.08450
44400.00000	107.06396	-905.64575	107.06396
44450.00000	107.00388	-907.98914	107.00388
44500.00000	106.89518	-910.45649	106.89518
44550.00000	106.80315	-912.66434	106.80315
44600.00000	106.69820	-914.97046	106.69820
44650.00000	106.62384	-917.43444	106.62384
44700.00000	106.63317	-919.12956	106.63317
44750.00000	106.51597	-921.20400	106.51597
44800.00000	106.38991	-923.07763	106.38991
44850.00000	106.36012	-925.24405	106.36012
44900.00000	106.20208	-927.75603	106.20208
44950.00000	106.14106	-929.19958	106.14106
45000.00000	106.05040	-931.12411	106.05040
45050.00000	105.94781	-933.37477	105.94781
45100.00000	106.00026	-934.33986	106.00026
45150.00000	105.85041	-936.34876	105.85041
45200.00000	105.86056	-937.40211	105.86056
45250.00000	105.77777	-938.77812	105.77777
45300.00000	105.64663	-940.97064	105.64663
45350.00000	105.78942	-941.70685	105.78942
45400.00000	105.81283	-943.14522	105.81283
45450.00000	105.80951	-944.92615	105.80951
45500.00000	105.89553	-946.22113	105.89553
45550.00000	105.88298	-948.32119	105.88298
45600.00000	105.93813	-950.43958	105.93813
45650.00000	105.95979	-951.92829	105.95979
45700.00000	105.93229	-953.76088	105.93229
45750.00000	105.86369	-955.34605	105.86369
45800.00000	105.90345	-957.66484	105.90345
45850.00000	105.94592	-958.53765	105.94592
45900.00000	106.00769	-960.17205	106.00769
45950.00000	106.07224	-962.57790	106.07224
46000.00000	106.10623	-964.52855	106.10623
46050.00000	106.29282	-966.01285	106.29282
46100.00000	106.24839	-968.83046	106.24839
46150.00000	106.28326	-971.06648	106.28326
46200.00000	106.16158	-973.58805	106.16158
46250.00000	106.17124	-974.70581	106.17124
46300.00000	106.22660	-977.16827	106.22660
46350.00000	106.07284	-979.46098	106.07284
46400.00000	105.99400	-980.81714	105.99400
46450.00000	105.94096	-982.47759	105.94096
46500.00000	105.86377	-984.15682	105.86377
46550.00000	105.77156	-985.76113	105.77156
46600.00000	105.80198	-986.47051	105.80198
46650.00000	105.76420	-987.58801	105.76420
46700.00000	105.73726	-988.90515	105.73726
46750.00000	105.76706	-989.80565	105.76706
46800.00000	105.83104	-990.28739	105.83104
46850.00000	105.93543	-991.38651	105.93543
46900.00000	106.00733	-992.76520	106.00733
46950.00000	106.11292	-993.37839	106.11292
47000.00000	106.15079	-994.22394	106.15079
47050.00000	106.30131	-996.00609	106.30131
47100.00000	106.48955	-996.39024	106.48955
47150.00000	106.70798	-997.08400	106.70798
47200.00000	106.81292	-998.92023	106.81292
47250.00000	107.02951	-1000.25211	107.02951
47300.00000	107.31994	-1001.33303	107.31994
47350.00000	107.45038	-1002.57387	107.45038
47400.00000	107.70680	-1004.39898	107.70680
47450.00000	107.87136	-1005.82339	107.87136
47500.00000	108.25054	-1007.64488	108.25054
47550.00000	108.39589	-1009.33629	108.39589
47600.00000	108.66244	-1011.44904	108.66244
47650.00000	108.88128	-1013.06925	108.88128
47700.00000	109.19831	-1015.72012	109.19831
47750.00000	109.42912	-1017.74012	109.42912
47800.00000	109.67471	-1020.01242	109.67471
47850.00000	109.96950	-1021.93035	109.96950
47900.00000	110.25161	-1024.17058	110.25161
47950.00000	110.57840	-1027.27018	110.57840
48000.00000	110.79487	-1030.05459	110.79487
48050.00000	111.05350	-1032.30141	111.05350
48100.00000	111.34732	-1035.81641	111.34732
48150.00000	111.59869	-1038.94740	111.59869
48200.00000	111.84941	-1041.86724	111.84941
48250.00000	112.06279	-1044.57821	112.06279
48300.00000	112.35927	-1047.86272	112.35927
48350.00000	112.66575	-1051.07140	112.66575
48400.00000	112.75409	-1054.84167	112.75409
48450.00000	113.02317	-1058.45090	113.02317
48500.00000	113.21010	-1061.56088	113.21010
48550.00000	113.37440	-1065.35917	113.37440
48600.00000	113.53050	-1069.77927	113.53050
48650.00000	113.74669	-1073.19056	113.74669
48700.00000	113.81197	-1076.32209	113.81197
48750.00000	114.01371	-1080.59457	114.01371
48800.00000	114.11739	-1083.79135	114.11739
48850.00000	114.17204	-728.74974	114.17204
48900.00000	114.41206	-372.08627	114.41206
48950.00000	114.37294	-15.93140	114.37294
49000.00000	114.51026	339.65136	114.51026
49050.00000	114.61377	695.36808	114.61377
49100.00000	114.65433	1052.15472	114.65433
49150.00000	114.77227	1407.30433	114.77227
49200.00000	114.67930	1763.96920	114.67930
49250.00000	114.80277	2120.12320	114.80277
49300.00000	114.81154	2476.44216	114.81154
49350.00000	114.70673	2832.61651	114.70673
49400.00000	114.56628	3187.58305	114.56628
49450.00000	114.62089	3544.46352	114.62089
49500.00000	114.54906	3901.23597	114.54906
49550.00000	114.48074	4257.25169	114.48074
49600.00000	114.45991	4613.72772	114.45991
49650.00000	114.44104	4968.85376	114.44104
49700.00000	114.19803	5325.68120	114.19803
49750.00000	114.17430	5682.71924	114.17430
49800.00000	114.04918	5679.83015	114.04918
49850.00000	113.98667	6394.87074	113.98667
49900.00000	113.94568	6392.15980	113.94568
49950.00000	113.70746	6749.45425	113.70746
50000.00000	113.74036	6746.16562	113.74036
50050.00000	113.53433	6743.05312	113.53433
50100.00000	113.37581	6739.79706	113.37581
50150.00000	113.39123	6736.82931	113.39123
50200.00000	113.29181	6733.46553	113.29181
50250.00000	113.10320	6730.78988	113.10320
50300.00000	113.08674	6728.03238	113.08674
50350.00000	112.94901	6725.70806	112.94901
50400.00000	112.93967	6722.68863	112.93967
50450.00000	112.73569	6720.01957	112.73569
50500.00000	112.62389	6718.09036	112.62389
50550.00000	112.48943	6714.69261	112.48943
50600.00000	112.50828	6711.83638	112.50828
50650.00000	112.47659	6709.57333	112.47659
50700.00000	112.28250	6706.42019	112.28250
50750.00000	112.21610	6703.98977	112.21610
50800.00000	112.18533	6701.30673	112.18533
50850.00000	112.16870	6698.89287	112.16870
50900.00000	112.00440	6695.57865	112.00440
50950.00000	112.04628	6692.88061	112.04628
51000.00000	112.15463	6689.51531	112.15463
51050.00000	112.07073	6687.37268	112.07073
51100.00000	111.98093	6683.85968	111.98093
51150.00000	111.89841	6680.69873	111.89841
51200.00000	111.80856	6677.69712	111.80856
51250.00000	111.82359	6674.81104	111.82359
51300.00000	111.77447	6670.90772	111.77447
51350.00000	111.67688	6668.94283	111.67688
51400.00000	111.57584	6664.29396	111.57584
51450.00000	111.34761	6662.17089	111.34761
51500.00000	111.26491	6658.83667	111.26491
51550.00000	111.15919	6655.62778	111.15919
51600.00000	110.93977	6652.08971	110.93977
51650.00000	110.63128	6648.94760	110.63128
51700.00000	110.50718	6645.52076	110.50718
51750.00000	110.21745	6643.17162	110.21745
51800.00000	110.02247	6640.14456	110.02247
51850.00000	109.82403	6637.16251	109.82403
51900.00000	109.47819	6635.03150	109.47819
51950.00000	109.02277	6632.59915	109.02277
52000.00000	108.73116	6630.99160	108.73116
52050.00000	108.63104	6629.35996	108.63104
52100.00000	108.32452	6627.93708	108.32452
52150.00000	108.03640	6626.91881	108.03640
52200.00000	107.81598	6625.53096	107.81598
52250.00000	107.65894	6624.31324	107.65894
52300.00000	107.24398	6625.08687	107.24398
52350.00000	107.33263	6623.73308	107.33263
52400.00000	107.29462	6622.44582	107.29462
52450.00000	107.23937	6621.16640	107.23937
52500.00000	107.27653	6620.27731	107.27653
52550.00000	107.16667	6620.50172	107.16667
52600.00000	107.10030	6619.03904	107.10030
52650.00000	107.24607	6617.86523	107.24607
52700.00000	107.41062	6617.03205	107.41062
52750.00000	107.45231	6615.70414	107.45231
52800.00000	107.58153	6614.18034	107.58153
52850.00000	107.57651	6612.64181	107.57651
52900.00000	107.77275	6610.99800	107.77275
52950.00000	107.93179	6609.05841	107.93179
53000.00000	107.99925	6606.88719	107.99925
53050.00000	107.99431	6604.63233	107.99431
53100.00000	108.17443	6602.53088	108.17443
53150.00000	108.37039	6600.82474	108.37039
53200.00000	108.43474	6597.86627	108.43474
53250.00000	108.58286	6596.21293	108.58286
53300.00000	108.65644	6592.59445	108.65644
53350.00000	108.71665	6590.58142	108.71665
53400.00000	108.90255	6588.21140	108.90255
53450.00000	108.97763	6584.96675	108.97763
53500.00000	109.07204	6582.65870	109.07204
53550.00000	109.24438	6579.39490	109.24438
53600.00000	109.23286	6575.90800	109.23286
53650.00000	109.29946	6573.48729	109.29946
53700.00000	109.38728	6569.51789	109.38728
53750.00000	109.40741	6566.85084	109.40741
53800.00000	109.47422	6564.11983	109.47422
53850.00000	109.51406	6560.75135	109.51406
53900.00000	109.57707	6558.18093	109.57707
53950.00000	109.56878	6553.85893	109.56878
54000.00000	109.62703	6550.78543	109.62703
54050.00000	109.62494	6547.07371	109.62494
54100.00000	109.61801	6543.42608	109.61801
54150.00000	109.57554	6539.79230	109.57554
54200.00000	109.44290	6536.95711	109.44290
54250.00000	109.51265	6532.64941	109.51265
54300.00000	109.36402	6528.75279	109.36402
54350.00000	109.34028	6525.44835	109.34028
54400.00000	109.43382	6522.57922	109.43382
54450.00000	109.25843	6518.40297	109.25843
54500.00000	109.00680	6515.24309	109.00680
54550.00000	108.81847	6511.81102	108.81847
54600.00000	108.76106	6509.10878	108.76106
54650.00000	108.65120	6504.65239	108.65120
54700.00000	108.48820	6501.72974	108.48820
54750.00000	108.46582	6498.10884	108.46582
54800.00000	108.16141	6494.61046	108.16141
54850.00000	107.89461	6491.56861	107.89461
54900.00000	107.76070	6487.99823	107.76070
54950.00000	107.48692	6485.92035	107.48692
55000.00000	107.48428	6482.53634	107.48428
55050.00000	107.08344	6478.99180	107.08344
55100.00000	106.95568	6476.59134	106.95568
55150.00000	106.80055	6473.57480	106.80055
55200.00000	106.54608	6470.90796	106.54608
55250.00000	106.33858	6468.43967	106.33858
55300.00000	106.17809	6465.43542	106.17809
55350.00000	105.92844	6463.27924	105.92844
55400.00000	105.74332	6460.23610	105.74332
55450.00000	105.58408	6457.97791	105.58408
55500.00000	105.37419	6455.17100	105.37419
55550.00000	105.21085	6452.66219	105.21085
55600.00000	104.99730	6449.99409	104.99730
55650.00000	104.82914	6447.69689	104.82914
55700.00000	104.61930	6445.05429	104.61930
55750.00000	104.38341	6442.97458	104.38341
55800.00000	104.22826	6439.91546	104.22826
55850.00000	104.06212	6437.45277	104.06212
55900.00000	103.78405	6434.82424	103.78405
55950.00000	103.67913	6432.68927	103.67913
56000.00000	103.40997	6430.11066	103.40997
56050.00000	103.29161	6427.72284	103.29161
56100.00000	103.08089	6424.60599	103.08089
56150.00000	102.88217	6422.06863	102.88217
56200.00000	102.66967	6419.97286	102.66967
56250.00000	102.32734	6417.33195	102.32734
56300.00000	102.15783	6414.77793	102.15783
56350.00000	101.81774	6412.26461	101.81774
56400.00000	101.60181	6410.08374	101.60181
56450.00000	101.12756	6407.79655	101.12756
56500.00000	101.04168	6406.17102	101.04168
56550.00000	100.62973	6403.84132	100.62973
56600.00000	100.38176	6402.56605	100.38176
56650.00000	100.06895	6400.61027	100.06895
56700.00000	99.66447	6399.35730	99.66447
56750.00000	99.33163	6397.90522	99.33163
56800.00000	99.03804	6396.53830	99.03804
56850.00000	98.89045	6395.88555	98.89045
56900.00000	98.54591	6394.62105	98.54591
56950.00000	98.36981	6394.53016	98.36981
57000.00000	98.20535	6393.21101	98.20535
57050.00000	97.84819	6393.30845	97.84819
57100.00000	97.79641	6391.95000	97.79641
57150.00000	97.60759	6391.53567	97.60759
57200.00000	97.53333	6391.34322	97.53333
57250.00000	97.37031	6389.68801	97.37031
57300.00000	97.34200	6389.27832	97.34200
57350.00000	97.30236	6388.72304	97.30236
57400.00000	97.21160	6388.06532	97.21160
57450.00000	97.12456	6387.22101	97.12456
57500.00000	97.01296	6386.35819	97.01296
57550.00000	97.01869	6384.14980	97.01869
57600.00000	96.96754	6383.60747	96.96754
57650.00000	96.75229	6383.32436	96.75229
57700.00000	96.74195	6382.21765	96.74195
57750.00000	96.76665	6380.87373	96.76665
57800.00000	96.71360	6379.91114	96.71360
57850.00000	96.55266	6378.96368	96.55266
57900.00000	96.57899	6377.39764	96.57899
57950.00000	96.59421	6377.11637	96.59421
58000.00000	96.49396	6376.22857	96.49396
58050.00000	96.56078	6376.02637	96.56078
58100.00000	96.62048	6374.81102	96.62048
58150.00000	96.61047	6373.69192	96.61047
58200.00000	96.56491	6373.14961	96.56491
58250.00000	96.57140	6371.19090	96.57140
58300.00000	96.67363	6370.27463	96.67363
58350.00000	96.54977	6369.37785	96.54977
58400.00000	96.73146	6368.80012	96.73146
58450.00000	96.75763	6367.14994	96.75763
58500.00000	96.72060	6366.53234	96.72060
58550.00000	96.76074	6365.02643	96.76074
58600.00000	96.78841	6364.02368	96.78841
58650.00000	96.82527	6362.82219	96.82527
58700.00000	96.80227	6362.52548	96.80227
58750.00000	96.81400	6361.42706	96.81400
58800.00000	96.96707	6360.58067	96.96707
58850.00000	97.02768	6360.31697	97.02768
58900.00000	97.05496	6359.57972	97.05496
58950.00000	97.17913	6358.48431	97.17913
59000.00000	97.32465	6358.18379	97.32465
59050.00000	97.36067	6357.16367	97.36067
59100.00000	97.55492	6356.58576	97.55492
59150.00000	97.72966	6355.95566	97.72966
59200.00000	97.97877	6355.22833	97.97877
59250.00000	98.05425	6354.01219	98.05425
59300.00000	98.37710	6353.91283	98.37710
59350.00000	98.56645	6352.83316	98.56645
59400.00000	98.86590	6351.97985	98.86590
59450.00000	99.12032	6351.04557	99.12032
59500.00000	99.46567	6350.49442	99.46567
59550.00000	99.86138	6349.47431	99.86138
59600.00000	100.24139	6347.92786	100.24139
59650.00000	100.73969	6346.47833	100.73969
59700.00000	101.19581	6344.59606	101.19581
59750.00000	101.71802	6342.52095	101.71802
59800.00000	102.15527	6339.93982	102.15527
59850.00000	102.72598	6336.89151	102.72598
59900.00000	103.19612	6333.51059	103.19612
59950.00000	103.71317	6329.62489	103.71317
60000.00000	104.18442	6325.44803	104.18442
60050.00000	104.55689	6320.65324	104.55689
60100.00000	104.88270	6315.61029	104.88270
60150.00000	105.16239	6310.65730	105.16239
60200.00000	105.43306	6305.20908	105.43306
60250.00000	105.56241	6299.77113	105.56241
60300.00000	105.71381	6294.26204	105.71381
60350.00000	105.70709	6289.03946	105.70709
60400.00000	105.73542	6283.82164	105.73542
60450.00000	105.67516	6278.95337	105.67516
60500.00000	105.62587	6274.07632	105.62587
60550.00000	105.48120	6269.25253	105.48120
60600.00000	105.36941	6264.91318	105.36941
60650.00000	105.22081	6260.74549	105.22081
60700.00000	105.06855	6256.37697	105.06855
60750.00000	104.87034	6252.31758	104.87034
60800.00000	104.65487	6248.50231	104.65487
60850.00000	104.47375	6244.79248	104.47375
60900.00000	104.26342	6241.09030	104.26342
60950.00000	104.05590	6237.93107	104.05590
61000.00000	103.81222	6234.65590	103.81222
61050.00000	103.60855	6231.46913	103.60855
61100.00000	103.41103	6228.66982	103.41103
61150.00000	103.18861	6225.95912	103.18861
61200.00000	102.96568	6223.37749	102.96568
61250.00000	102.78751	6220.79144	102.78751
61300.00000	102.58850	6218.39100	102.58850
61350.00000	102.39452	6215.96951	102.39452
61400.00000	102.23321	6213.55546	102.23321
61450.00000	102.06857	6211.57638	102.06857
61500.00000	101.92760	6209.64081	101.92760
61550.00000	101.77211	6207.76077	101.77211
61600.00000	101.65241	6205.87260	101.65241
61650.00000	101.55047	6203.63027	101.55047
61700.00000	101.45368	6201.75292	101.45368
61750.00000	101.34061	6200.27774	101.34061
61800.00000	101.25296	6198.85837	101.25296
61850.00000	101.24398	6196.95860	101.24398
61900.00000	101.26566	6195.55752	101.26566
61950.00000	101.26833	6193.93984	101.26833
62000.00000	101.28980	6191.95927	101.28980
62050.00000	101.36112	6189.74362	101.36112
62100.00000	101.43787	6188.06731	101.43787
62150.00000	101.55042	6186.14885	101.55042
62200.00000	101.64647	6183.48845	101.64647
62250.00000	101.71994	6180.72895	101.71994
62300.00000	101.75872	6178.41652	101.75872
62350.00000	101.84772	6175.34161	101.84772
62400.00000	101.92459	6172.70076	101.92459
62450.00000	101.94817	6169.86308	101.94817
62500.00000	102.01613	6166.60784	102.01613
62550.00000	102.02804	6163.99721	102.02804
62600.00000	102.04886	6160.81681	102.04886
62650.00000	102.10440	6157.72533	102.10440
62700.00000	102.14634	6155.02547	102.14634
62750.00000	102.11350	6151.41522	102.11350
62800.00000	102.11563	6148.66742	102.11563
62850.00000	102.13772	6145.60482	102.13772
62900.00000	102.07245	6142.61660	102.07245
62950.00000	102.11810	6139.51683	102.11810
63000.00000	102.03986	6135.97338	102.03986
63050.00000	101.99302	6133.18254	101.99302
63100.00000	101.92831	6130.25034	101.92831
63150.00000	101.96692	6126.84799	101.96692
63200.00000	101.91543	6123.99753	101.91543
63250.00000	101.85045	6121.05500	101.85045
63300.00000	101.84494	6117.55827	101.84494
63350.00000	101.74328	6114.94836	101.74328
63400.00000	101.68157	6112.05655	101.68157
63450.00000	101.67006	6108.97634	101.67006
63500.00000	101.63894	6106.22667	101.63894
63550.00000	101.58956	6102.99326	101.58956
63600.00000	101.52693	6099.60201	101.52693
63650.00000	101.52318	6096.90589	101.52318
63700.00000	101.43409	6093.94317	101.43409
63750.00000	101.46285	6090.41292	101.46285
63800.00000	101.50391	6087.18312	101.50391
63850.00000	101.45913	6083.82046	101.45913
63900.00000	101.42841	6080.30480	101.42841
63950.00000	101.40231	6076.12214	101.40231
64000.00000	101.30413	6071.88814	101.30413
64050.00000	101.14286	6067.67755	101.14286
64100.00000	100.99695	6063.41662	100.99695
64150.00000	100.77073	6058.82662	100.77073
64200.00000	100.37634	6054.88911	100.37634
64250.00000	100.01045	6051.60377	100.01045
64300.00000	99.60849	6048.94549	99.60849
64350.00000	99.19131	6046.49383	99.19131
64400.00000	98.86035	6044.49184	98.86035
64450.00000	98.55135	6043.18875	98.55135
64500.00000	98.29958	6042.03375	98.29958
64550.00000	98.14463	6040.57874	98.14463
64600.00000	98.06519	6039.16582	98.06519
64650.00000	97.86785	6037.56449	97.86785
64700.00000	97.79220	6035.31788	97.79220
64750.00000	97.87236	6033.39819	97.87236
64800.00000	97.69985	6031.84017	97.69985
64850.00000	97.59148	6028.89088	97.59148
64900.00000	97.59120	6026.32144	97.59120
64950.00000	97.53508	6024.56698	97.53508
65000.00000	97.43454	6022.12718	97.43454
65050.00000	97.44860	6019.53352	97.44860
65100.00000	97.41127	6017.53821	97.41127
65150.00000	97.34880	6014.75923	97.34880
65200.00000	97.20647	6011.36504	97.20647
65250.00000	97.12977	6009.71353	97.12977
65300.00000	97.03420	6006.73207	97.03420
65350.00000	96.93582	6003.11914	96.93582
65400.00000	96.84513	6001.24538	96.84513
65450.00000	96.73685	5998.01580	96.73685
65500.00000	96.60451	5994.93050	96.60451
65550.00000	96.31198	5992.12573	96.31198
65600.00000	96.25241	5989.30838	96.25241
65650.00000	96.01529	5986.64575	96.01529
65700.00000	95.74322	5985.37642	95.74322
65750.00000	95.63159	5982.36674	95.63159
65800.00000	95.43941	5980.04324	95.43941
65850.00000	95.35353	5977.45477	95.35353
65900.00000	95.02138	5975.65199	95.02138
65950.00000	94.86532	5972.91364	94.86532
66000.00000	94.85082	5970.79318	94.85082
66050.00000	94.53267	5968.70533	94.53267
66100.00000	94.49585	5965.67121	94.49585
66150.00000	94.30334	5964.40367	94.30334
66200.00000	94.02949	5962.87586	94.02949
66250.00000	93.98129	5960.57977	93.98129
66300.00000	93.79048	5959.40820	93.79048
66350.00000	93.51874	5957.12673	93.51874
66400.00000	93.46147	5954.60340	93.46147
66450.00000	93.36885	5952.71274	93.36885
66500.00000	93.05838	5950.71760	93.05838
66550.00000	92.88833	5948.94222	92.88833
66600.00000	92.67582	5947.82599	92.67582
66650.00000	92.51873	5946.40630	92.51873
66700.00000	92.21951	5944.64449	92.21951
66750.00000	92.26665	5943.23821	92.26665
66800.00000	92.21639	5942.42352	92.21639
66850.00000	92.05123	5940.79427	92.05123
66900.00000	92.04203	5940.25541	92.04203
66950.00000	91.87654	5938.70614	91.87654
67000.00000	91.87087	5936.01301	91.87087
67050.00000	91.90883	5935.36890	91.90883
67100.00000	91.89929	5934.91755	91.89929
67150.00000	91.89835	5932.74256	91.89835
67200.00000	91.86622	5931.19408	91.86622
67250.00000	91.78687	5929.08960	91.78687
67300.00000	91.78253	5928.56083	91.78253
67350.00000	91.88944	5926.41667	91.88944
67400.00000	91.88390	5924.23801	91.88390
67450.00000	91.84454	5922.79049	91.84454
67500.00000	91.90743	5920.26002	91.90743
67550.00000	91.82298	5918.81724	91.82298
67600.00000	91.87506	5916.37688	91.87506
67650.00000	91.95034	5915.56495	91.95034
67700.00000	91.82826	5913.25265	91.82826
67750.00000	91.83946	5910.15943	91.83946
67800.00000	91.84530	5908.70264	91.84530
67850.00000	91.83641	5906.64053	91.83641
67900.00000	91.94329	5903.76375	91.94329
67950.00000	91.99551	5902.75380	91.99551
68000.00000	91.93048	5900.14057	91.93048
68050.00000	91.97671	5897.78921	91.97671
68100.00000	91.97698	5896.25312	91.97698
68150.00000	91.94579	5893.79131	91.94579
68200.00000	92.01310	5891.53848	92.01310
68250.00000	92.11693	5890.30391	92.11693
68300.00000	92.24017	5887.44706	92.24017
68350.00000	92.19833	5884.83925	92.19833
68400.00000	92.18661	5883.72841	92.18661
68450.00000	92.15485	5881.07916	92.15485
68500.00000	92.32474	5878.52763	92.32474
68550.00000	92.35061	5877.47534	92.35061
68600.00000	92.33293	5873.88817	92.33293
68650.00000	92.58729	5872.47576	92.58729
68700.00000	92.55244	5870.44141	92.55244
68750.00000	92.70405	5867.70485	92.70405
68800.00000	92.74864	5864.72712	92.74864
68850.00000	92.92866	5863.31725	92.92866
68900.00000	92.95662	5860.27623	92.95662
68950.00000	93.19261	5857.36757	93.19261
69000.00000	93.26793	5855.07501	93.26793
69050.00000	93.41202	5851.77519	93.41202
69100.00000	93.72996	5849.62933	93.72996
69150.00000	93.83490	5846.11995	93.83490
69200.00000	94.05119	5843.01142	94.05119
69250.00000	94.27565	5839.43771	94.27565
69300.00000	94.35114	5836.04070	94.35114
69350.00000	94.62719	5831.38065	94.62719
69400.00000	94.67671	5827.66790	94.67671
69450.00000	94.82310	5822.93573	94.82310
69500.00000	94.99442	5818.08661	94.99442
69550.00000	95.05181	5813.44824	95.05181
69600.00000	95.07574	5808.89171	95.07574
69650.00000	95.14982	5804.01518	95.14982
69700.00000	95.10860	5798.76754	95.10860
69750.00000	95.07045	5793.43479	95.07045
69800.00000	95.03113	5788.07837	95.03113
69850.00000	94.89197	5783.00882	94.89197
69900.00000	94.76450	5777.97548	94.76450
69950.00000	94.63109	5772.62042	94.63109
70000.00000	94.26161	5768.07793	94.26161
70050.00000	94.08197	5762.79562	94.08197
70100.00000	93.81820	5757.60825	93.81820
70150.00000	93.46866	5752.46033	93.46866
70200.00000	93.23649	5747.37215	93.23649
70250.00000	92.84080	5742.92447	92.84080
70300.00000	92.43650	5737.92455	92.43650
70350.00000	92.07511	5734.06011	92.07511
70400.00000	91.62094	5729.50089	91.62094
70450.00000	91.00822	5724.56079	91.00822
70500.00000	90.60804	5720.35024	90.60804
70550.00000	89.98864	5716.32117	89.98864
70600.00000	89.38627	5712.95440	89.38627
70650.00000	88.64314	5710.43237	88.64314
70700.00000	87.86192	5707.80812	87.86192
70750.00000	87.33183	5707.20521	87.33183
70800.00000	86.69291	5707.89366	86.69291
70850.00000	86.24195	5707.47270	86.24195
70900.00000	86.15533	5708.90429	86.15533
70950.00000	86.48713	5709.31721	86.48713
71000.00000	86.77750	5704.72653	86.77750
71050.00000	87.10716	5699.87540	87.10716
71100.00000	86.73479	5694.72783	86.73479
71150.00000	86.73996	5687.54095	86.73996
71200.00000	86.40458	5684.56991	86.40458
71250.00000	85.73227	5679.10344	85.73227
71300.00000	85.04786	5673.62716	85.04786
71350.00000	84.36407	5668.10257	84.36407
71400.00000	83.70489	5663.79877	83.70489
71450.00000	83.11776	5660.47670	83.11776
71500.00000	82.35505	5659.30589	82.35505
71550.00000	81.55621	5655.32083	81.55621
71600.00000	81.22964	5652.13519	81.22964
71650.00000	79.94814	5653.40384	79.94814
71700.00000	79.21725	5643.83785	79.21725
71750.00000	78.55542	5647.03841	78.55542
71800.00000	76.96451	5640.83705	76.96451
71850.00000	75.66688	5636.02201	75.66688
71900.00000	75.07774	5640.02913	75.07774
71950.00000	72.42414	5633.96483	72.42414
72000.00000	71.60157	5629.03783	71.60157
72050.00000	70.32666	5644.10921	70.32666
72100.00000	67.83383	5649.77177	67.83383
72150.00000	66.88552	5649.72766	66.88552
72200.00000	63.61959	5689.46107	63.61959
72250.00000	65.63280	5715.67699	65.63280
72300.00000	66.09778	5722.36231	66.09778
72350.00000	68.76571	5734.23704	68.76571
72400.00000	70.69507	5737.29637	70.69507
72450.00000	71.98861	5733.24873	71.98861
72500.00000	73.85823	5738.56585	73.85823
72550.00000	74.40304	5728.90277	74.40304
72600.00000	76.10947	5724.23247	76.10947
72650.00000	76.90829	5723.29046	76.90829
72700.00000	77.13841	5716.35261	77.13841
72750.00000	78.00961	5715.25760	78.00961
72800.00000	78.11421	5710.77295	78.11421
72850.00000	78.39657	5700.35659	78.39657
72900.00000	79.21924	5703.99787	79.21924
72950.00000	78.52759	5697.71996	78.52759
73000.00000	79.40642	5688.43274	79.40642
73050.00000	79.50267	5691.44028	79.50267
73100.00000	78.24730	5686.51320	78.24730
73150.00000	79.83066	5676.48574	79.83066
73200.00000	79.25930	5681.54461	79.25930
73250.00000	78.36307	5675.04525	78.36307
73300.00000	78.75069	5669.09843	78.75069
73350.00000	78.21460	5674.70838	78.21460
73400.00000	78.70209	5665.22931	78.70209
73450.00000	79.03014	5667.24818	79.03014
73500.00000	78.28165	5666.54931	78.28165
73550.00000	78.97541	5661.98804	78.97541
73600.00000	79.17941	5663.42065	79.17941
73650.00000	78.67725	5659.37655	78.67725
73700.00000	79.77474	5656.37950	79.77474
73750.00000	79.48993	5658.12474	79.48993
73800.00000	78.89131	5644.67901	78.89131
73850.00000	80.24541	5645.11731	80.24541
73900.00000	79.22052	5642.07457	79.22052
73950.00000	80.13842	5628.90945	80.13842
74000.00000	80.43853	5632.86683	80.43853
74050.00000	79.39915	5627.44754	79.39915
74100.00000	80.37718	5614.29144	80.37718
74150.00000	80.30812	5616.14520	80.30812
74200.00000	78.97390	5604.25122	78.97390
74250.00000	80.06654	5597.15953	80.06654
74300.00000	79.82114	5591.39477	79.82114
74350.00000	80.39082	5565.81751	80.39082
74400.00000	79.00953	5520.84183	79.00953
74450.00000	72.46225	5358.55384	72.46225
74500.00000	78.41753	5284.44152	78.41753
74550.00000	77.60985	5270.14435	77.60985
74600.00000	75.39253	5242.81523	75.39253
74650.00000	78.50573	5235.54872	78.50573
74700.00000	75.73285	5237.92062	75.73285
74750.00000	74.30771	5217.33588	74.30771
74800.00000	77.51370	5223.19649	77.51370
74850.00000	71.78187	5212.58994	71.78187
74900.00000	75.61304	5191.04342	75.61304
74950.00000	72.79804	5215.83703	72.79804
75000.00000	69.02579	5176.27372	69.02579
75050.00000	72.16703	5183.40096	72.16703
75100.00000	65.95713	5215.98315	65.95713
75150.00000	66.35346	5142.12960	66.35346
75200.00000	64.37755	5218.33589	64.37755
75250.00000	59.12680	4964.98737	59.12680
75300.00000	50.12236	4719.09663	50.12236
75350.00000	66.72630	4544.56139	66.72630
75400.00000	68.96042	4608.35651	68.96042
75450.00000	63.28416	4558.90303	63.28416
75500.00000	72.27851	4572.82520	72.27851
75550.00000	69.91719	4585.24455	69.91719
75600.00000	72.70098	4546.18727	72.70098
75650.00000	75.18107	4573.62945	75.18107
75700.00000	71.72468	4563.32817	71.72468
75750.00000	75.32659	4539.28836	75.32659
75800.00000	75.64180	4560.41758	75.64180
75850.00000	73.99134	4535.01727	73.99134
75900.00000	76.93843	4535.54924	76.93843
75950.00000	74.64037	4540.59394	74.64037
76000.00000	75.97599	4514.66298	75.97599
76050.00000	77.41136	4529.09628	77.41136
76100.00000	74.35706	4516.18749	74.35706
76150.00000	77.96431	4505.18900	77.96431
76200.00000	76.06829	4523.39677	76.06829
76250.00000	75.68554	4498.17238	75.68554
76300.00000	78.01582	4511.26268	78.01582
76350.00000	74.64052	4506.02621	74.64052
76400.00000	76.48988	4495.70936	76.48988
76450.00000	77.32277	4505.99036	77.32277
76500.00000	75.70292	4490.15907	75.70292
76550.00000	78.10558	4484.48957	78.10558
76600.00000	76.51889	4500.49707	76.51889
76650.00000	75.50436	4476.85446	75.50436
76700.00000	77.88852	4488.17252	77.88852
76750.00000	75.58606	4490.98374	75.58606
76800.00000	78.09076	4468.98021	78.09076
76850.00000	77.36496	4486.81353	77.36496
76900.00000	76.27184	4472.64243	76.27184
76950.00000	79.66923	4471.07828	79.66923
77000.00000	77.34838	4480.74653	77.34838
77050.00000	77.26605	4457.67661	77.26605
77100.00000	79.28015	4466.89720	79.28015
77150.00000	77.18314	4461.58999	77.18314
77200.00000	79.51132	4447.99377	79.51132
77250.00000	78.84817	4464.42759	78.84817
77300.00000	77.74788	4444.38753	77.74788
77350.00000	80.45226	4438.96673	80.45226
77400.00000	77.90284	4444.63969	77.90284
77450.00000	79.05176	4427.52505	79.05176
77500.00000	78.92956	4434.85999	78.92956
77550.00000	77.31254	4427.80881	77.31254
77600.00000	78.92130	4424.55977	78.92130
77650.00000	78.22852	4422.85711	78.22852
77700.00000	76.90683	4408.43008	76.90683
77750.00000	78.75688	4413.85113	78.75688
77800.00000	76.71443	4408.18545	76.71443
77850.00000	78.33944	4405.06374	78.33944
77900.00000	76.92480	4408.58136	76.92480
77950.00000	74.86968	4399.08869	74.86968
78000.00000	76.71084	4399.89416	76.71084
78050.00000	75.66671	4400.31534	75.66671
78100.00000	74.94941	4387.87044	74.94941
78150.00000	75.89323	4392.88472	75.89323
78200.00000	75.00291	4392.08271	75.00291
78250.00000	75.45580	4382.23328	75.45580
78300.00000	74.83611	4391.82791	74.83611
78350.00000	73.68154	4380.87272	73.68154
78400.00000	75.01313	4386.61691	75.01313
78450.00000	73.38648	4393.43924	73.38648
78500.00000	74.08840	4377.38045	74.08840
78550.00000	74.11089	4394.28949	74.11089
78600.00000	73.10072	4388.71586	73.10072
78650.00000	73.60680	4391.20874	73.60680
78700.00000	72.99900	4398.12865	72.99900
78750.00000	72.44777	4386.78469	72.44777
78800.00000	73.39310	4391.22038	73.39310
78850.00000	74.59696	4399.90412	74.59696
78900.00000	73.45855	4388.06775	73.45855
78950.00000	75.33931	4394.95508	75.33931
79000.00000	74.24316	4390.54137	74.24316
79050.00000	76.33283	4388.72718	76.33283
79100.00000	74.84733	4387.05563	74.84733
79150.00000	75.77747	4385.14251	75.77747
79200.00000	76.74293	4379.57974	76.74293
79250.00000	76.74052	4376.79383	76.74052
79300.00000	77.82826	4374.71368	77.82826
79350.00000	77.68666	4371.93559	77.68666
79400.00000	77.65797	4365.89348	77.65797
79450.00000	77.62851	4363.44485	77.62851
79500.00000	78.27094	4357.49980	78.27094
79550.00000	78.80562	4354.86552	78.80562
79600.00000	78.67780	4350.72378	78.67780
79650.00000	78.44405	4345.33690	78.44405
79700.00000	78.48682	4341.09295	78.48682
79750.00000	78.77455	4340.98855	78.77455
79800.00000	78.28288	4329.36309	78.28288
79850.00000	77.99573	4329.62123	77.99573
79900.00000	77.94534	4325.18764	77.94534
79950.00000	77.72099	4320.37888	77.72099
80000.00000	77.42011	4317.22119	77.42011
80050.00000	77.39406	4313.87831	77.39406
80100.00000	76.99567	4309.96701	76.99567
80150.00000	76.62146	4304.36895	76.62146
80200.00000	76.55216	4303.57439	76.55216
80250.00000	76.16426	4299.76616	76.16426
80300.00000	75.52866	4299.28895	75.52866
80350.00000	74.93335	4296.06610	74.93335
80400.00000	74.73083	4294.61985	74.73083
80450.00000	74.34615	4296.75068	74.34615
80500.00000	74.49018	4291.81340	74.49018
80550.00000	74.27736	4290.88318	74.27736
80600.00000	74.29291	4288.41212	74.29291
80650.00000	73.53440	4290.92625	73.53440
80700.00000	73.33194	4288.20556	73.33194
80750.00000	73.83194	4289.89437	73.83194
80800.00000	73.29057	4288.98328	73.29057
80850.00000	73.41295	4287.27533	73.41295
80900.00000	73.63089	4285.57730	73.63089
80950.00000	73.37528	4285.82726	73.37528
81000.00000	72.93142	4285.18674	72.93142
81050.00000	73.30141	4285.32376	73.30141
81100.00000	73.30745	4285.25525	73.30745
81150.00000	73.82383	4284.81130	73.82383
81200.00000	73.80661	4279.75446	73.80661
81250.00000	74.17472	4278.94589	74.17472
81300.00000	74.40460	4273.95260	74.40460
81350.00000	74.69822	4273.90412	74.69822
81400.00000	74.80012	4268.63604	74.80012
81450.00000	75.12169	4263.63210	75.12169
81500.00000	75.42735	4260.54487	75.42735
81550.00000	75.64312	4254.49272	75.64312
81600.00000	75.80669	4249.85048	75.80669
81650.00000	75.74299	4245.02855	75.74299
81700.00000	75.84916	4238.11403	75.84916
81750.00000	75.81022	4229.62664	75.81022
81800.00000	75.26797	4218.75788	75.26797
81850.00000	74.79138	4211.78153	74.79138
81900.00000	74.56708	4197.90281	74.56708
81950.00000	73.31130	4183.50680	73.31130
82000.00000	72.11184	4169.23182	72.11184
82050.00000	70.24329	4147.24664	70.24329
82100.00000	68.15397	4118.60760	68.15397
82150.00000	67.68412	4073.85248	67.68412
82200.00000	68.54501	4031.96330	68.54501
82250.00000	70.54364	4000.41154	70.54364
82300.00000	72.34221	3978.93475	72.34221
82350.00000	74.68925	3965.75255	74.68925
82400.00000	75.44155	3953.77398	75.44155
82450.00000	76.34014	3939.32686	76.34014
82500.00000	77.58098	3928.62098	77.58098
82550.00000	78.19032	3920.61402	78.19032
82600.00000	78.61403	3911.85026	78.61403
82650.00000	79.12414	3903.45518	79.12414
82700.00000	79.39379	3895.13152	79.39379
82750.00000	79.50908	3887.76129	79.50908
82800.00000	79.46161	3880.82345	79.46161
82850.00000	79.82734	3873.88541	79.82734
82900.00000	79.86632	3867.99492	79.86632
82950.00000	79.98186	3861.11107	79.98186
83000.00000	79.96520	3855.28519	79.96520
83050.00000	80.46411	3851.57755	80.46411
83100.00000	80.68815	3847.43773	80.68815
83150.00000	80.92181	3842.00847	80.92181
83200.00000	81.01225	3839.40956	81.01225
83250.00000	81.04508	3833.42713	81.04508
83300.00000	81.45793	3829.03167	81.45793
83350.00000	81.50786	3825.28534	81.50786
83400.00000	81.53693	3821.53988	81.53693
83450.00000	81.65225	3818.31187	81.65225
83500.00000	81.88318	3814.38381	81.88318
83550.00000	82.23770	3808.13722	82.23770
83600.00000	81.91487	3806.18803	81.91487
83650.00000	82.14536	3799.05005	82.14536
83700.00000	82.16296	3795.56009	82.16296
83750.00000	82.29915	3791.16276	82.29915
83800.00000	82.13043	3788.81786	82.13043
83850.00000	82.35946	3782.99273	82.35946
83900.00000	82.06064	3777.58087	82.06064
83950.00000	82.12794	3773.71778	82.12794
84000.00000	82.47190	3768.08771	82.47190
84050.00000	82.28705	3764.59557	82.28705
84100.00000	81.93937	3758.17367	81.93937
84150.00000	81.95627	3755.43202	81.95627
84200.00000	82.10187	3751.42398	82.10187
84250.00000	81.92254	3748.27800	81.92254
84300.00000	82.01128	3743.86062	82.01128
84350.00000	81.80465	3739.10452	81.80465
84400.00000	81.77448	3736.36610	81.77448
84450.00000	81.84444	3728.96245	81.84444
84500.00000	82.17610	3727.19668	82.17610
84550.00000	81.87254	3721.28758	81.87254
84600.00000	81.74337	3715.92752	81.74337
84650.00000	81.79799	3710.58976	81.79799
84700.00000	81.64711	3707.53016	81.64711
84750.00000	81.76903	3702.09993	81.76903
84800.00000	81.55285	3698.38419	81.55285
84850.00000	81.49084	3692.09723	81.49084
84900.00000	81.59325	3686.86007	81.59325
84950.00000	81.55554	3681.45959	81.55554
85000.00000	81.34016	3676.11689	81.34016
85050.00000	81.56056	3671.73526	81.56056
85100.00000	81.12095	3664.39846	81.12095
85150.00000	81.04027	3659.73883	81.04027
85200.00000	80.78449	3652.22893	80.78449
85250.00000	81.04465	3644.75428	81.04465
85300.00000	80.52474	3641.23539	80.52474
85350.00000	80.27064	3635.20786	80.27064
85400.00000	79.97290	3627.50641	79.97290
85450.00000	79.46026	3622.19436	79.46026
85500.00000	78.95316	3612.45667	78.95316
85550.00000	78.79217	3607.91464	78.79217
85600.00000	77.88564	3602.67395	77.88564
85650.00000	77.35179	3594.56738	77.35179
85700.00000	77.12035	3586.56879	77.12035
85750.00000	77.13840	3581.54295	77.13840
85800.00000	76.11122	3575.85913	76.11122
85850.00000	75.29182	3569.73364	75.29182
85900.00000	74.85134	3561.53987	74.85134
85950.00000	73.76007	3559.55929	73.76007
86000.00000	73.56021	3552.67348	73.56021
86050.00000	71.67294	3544.85083	71.67294
86100.00000	71.70737	3544.47446	71.70737
86150.00000	70.55307	3531.94579	70.55307
86200.00000	70.26795	3532.63036	70.26795
86250.00000	68.62110	3521.20509	68.62110
86300.00000	67.79306	3522.43683	67.79306
86350.00000	67.07933	3516.76122	67.07933
86400.00000	66.73838	3510.03317	66.73838
86450.00000	64.76372	3516.38658	64.76372
86500.00000	65.20675	3497.88172	65.20675
86550.00000	61.81302	3520.53285	61.81302
86600.00000	63.15128	3494.38135	63.15128
86650.00000	61.46798	3500.83649	61.46798
86700.00000	60.86919	3497.66655	60.86919
86750.00000	59.77662	3505.84962	59.77662
86800.00000	59.36513	3504.92893	59.36513
86850.00000	59.66707	3510.65702	59.66707
86900.00000	61.51502	3523.99253	61.51502
86950.00000	59.81197	3486.95621	59.81197
87000.00000	57.13523	3482.36177	57.13523
87050.00000	56.80238	3483.33091	56.80238
87100.00000	58.74781	3478.93401	58.74781
87150.00000	58.04437	3480.30905	58.04437
87200.00000	58.77086	3480.56384	58.77086
87250.00000	59.72500	3476.19463	59.72500
87300.00000	60.50931	3457.45534	60.50931
87350.00000	59.27135	3475.49752	59.27135
87400.00000	57.41498	3429.44127	57.41498
87450.00000	57.03314	3432.45459	57.03314
87500.00000	56.65988	3425.16034	56.65988
87550.00000	57.31457	3392.68462	57.31457
87600.00000	60.05898	3432.39685	60.05898
87650.00000	57.83449	3397.45998	57.83449
87700.00000	59.27564	3399.84039	59.27564
87750.00000	59.08645	3368.84944	59.08645
87800.00000	57.94367	3374.89398	57.94367
87850.00000	59.65105	3356.91372	59.65105
87900.00000	59.44870	3344.24841	59.44870
87950.00000	60.75853	3344.22009	60.75853
88000.00000	62.00159	3329.78488	62.00159
88050.00000	62.84344	3314.87418	62.84344
88100.00000	63.27743	3295.98412	63.27743
88150.00000	63.60494	3298.05062	63.60494
88200.00000	63.77197	3285.96495	63.77197
88250.00000	64.60025	3286.36899	64.60025
88300.00000	66.08909	3269.79018	66.08909
88350.00000	65.83043	3267.87495	65.83043
88400.00000	67.51488	3262.49036	67.51488
88450.00000	67.37481	3250.75091	67.37481
88500.00000	69.03238	3237.26983	69.03238
88550.00000	69.19866	3233.60378	69.19866
88600.00000	69.99632	3224.64383	69.99632
88650.00000	69.83494	3218.72449	69.83494
88700.00000	69.84164	3206.87364	69.84164
88750.00000	70.92263	3211.22298	70.92263
88800.00000	71.48592	3197.52398	71.48592
88850.00000	71.92833	3188.26324	71.92833
88900.00000	72.16214	3183.24187	72.16214
88950.00000	72.08470	3174.37221	72.08470
89000.00000	72.59023	3172.30430	72.59023
89050.00000	73.05487	3160.36994	73.05487
89100.00000	72.68967	3154.46294	72.68967
89150.00000	72.77989	3147.33282	72.77989
89200.00000	72.71643	3143.44242	72.71643
89250.00000	72.82886	3131.27236	72.82886
89300.00000	72.66733	3127.21898	72.66733
89350.00000	72.55442	3122.19287	72.55442
89400.00000	72.46860	3119.67343	72.46860
89450.00000	72.73425	3112.68819	72.73425
89500.00000	72.46308	3106.03091	72.46308
89550.00000	71.98832	3102.74321	71.98832
89600.00000	71.79071	3097.88723	71.79071
89650.00000	72.22643	3091.69773	72.22643
89700.00000	71.11654	3091.14931	71.11654
89750.00000	71.01330	3085.63531	71.01330
89800.00000	70.96373	3086.55788	70.96373
89850.00000	70.37315	3079.96516	70.37315
89900.00000	70.07484	3079.30263	70.07484
89950.00000	70.45367	3080.97196	70.45367
90000.00000	70.08945	3085.73058	70.08945
90050.00000	71.35058	3088.12975	71.35058
90100.00000	72.77277	3086.06390	72.77277
90150.00000	73.53717	3088.54971	73.53717
90200.00000	76.19237	3080.90262	76.19237
90250.00000	77.68706	3053.28088	77.68706
90300.00000	77.85372	3037.87997	77.85372
90350.00000	74.72168	3023.08679	74.72168
90400.00000	74.19776	3017.13703	74.19776
90450.00000	73.48173	3010.46937	73.48173
90500.00000	73.34514	3008.43359	73.34514
90550.00000	72.30883	3004.87121	72.30883
90600.00000	71.78107	3003.90190	71.78107
90650.00000	71.07221	2999.37202	71.07221
90700.00000	71.19565	2998.44494	71.19565
90750.00000	70.96396	2997.13814	70.96396
90800.00000	71.38589	2994.17718	71.38589
90850.00000	71.17354	2988.81647	71.17354
90900.00000	71.51415	2984.67664	71.51415
90950.00000	71.24231	2982.30793	71.24231
91000.00000	71.04018	2977.27329	71.04018
91050.00000	71.59250	2972.51404	71.59250
91100.00000	71.97989	2966.55910	71.97989
91150.00000	71.62426	2963.74734	71.62426
91200.00000	71.73656	2965.64676	71.73656
91250.00000	71.72780	2958.20234	71.72780
91300.00000	71.52186	2955.90195	71.52186
91350.00000	71.78248	2954.68902	71.78248
91400.00000	71.76643	2947.03495	71.76643
91450.00000	71.70634	2948.98340	71.70634
91500.00000	72.00502	2939.80068	72.00502
91550.00000	72.21443	2936.86481	72.21443
91600.00000	72.61601	2932.65155	72.61601
91650.00000	72.20810	2927.49622	72.20810
91700.00000	72.79090	2923.33780	72.79090
91750.00000	72.26473	2920.66473	72.26473
91800.00000	73.17754	2918.15595	73.17754
91850.00000	72.97705	2912.29195	72.97705
91900.00000	72.97066	2909.43615	72.97066
91950.00000	72.43948	2900.56728	72.43948
92000.00000	73.51544	2896.43188	73.51544
92050.00000	73.25020	2895.36346	73.25020
92100.00000	73.46067	2885.39467	73.46067
92150.00000	73.97425	2887.72833	73.97425
92200.00000	73.58175	2880.40308	73.58175
92250.00000	73.66954	2876.66477	73.66954
92300.00000	73.65526	2873.74733	73.65526
92350.00000	74.38887	2869.94473	74.38887
92400.00000	74.13450	2866.80963	74.13450
92450.00000	74.40339	2862.96872	74.40339
92500.00000	73.85075	2855.45575	73.85075
92550.00000	73.82691	2852.29422	73.82691
92600.00000	74.07919	2847.29112	74.07919
92650.00000	74.18354	2841.53145	74.18354
92700.00000	74.19917	2841.09569	74.19917
92750.00000	74.07834	2835.61008	74.07834
92800.00000	74.29523	2832.56167	74.29523
92850.00000	73.78106	2826.89309	73.78106
92900.00000	73.56248	2822.39470	73.56248
92950.00000	73.32394	2820.63941	73.32394
93000.00000	73.92978	2812.07599	73.92978
93050.00000	73.45275	2814.69405	73.45275
93100.00000	72.78088	2809.58161	72.78088
93150.00000	72.85546	2804.36740	72.85546
93200.00000	72.93097	2800.02722	72.93097
93250.00000	72.92310	2801.53367	72.92310
93300.00000	72.35194	2795.06030	72.35194
93350.00000	71.31651	2785.02193	71.31651
93400.00000	71.75453	2789.48591	71.75453
93450.00000	71.61867	2784.31248	71.61867
93500.00000	70.71530	2780.77937	70.71530
93550.00000	69.64449	2773.57376	69.64449
93600.00000	69.71901	2779.10579	69.71901
93650.00000	69.19920	2774.58203	69.19920
93700.00000	69.58595	2782.74614	69.58595
93750.00000	69.03241	2775.81901	69.03241
93800.00000	68.49305	2777.20437	68.49305
93850.00000	68.42526	2778.92719	68.42526
93900.00000	69.69391	2777.96651	69.69391
93950.00000	68.95340	2779.40492	68.95340
94000.00000	68.72173	2764.57003	68.72173
94050.00000	69.47283	2771.42847	69.47283
94100.00000	68.17827	2767.32641	68.17827
94150.00000	68.65018	2760.51962	68.65018
94200.00000	69.80175	2767.05860	69.80175
94250.00000	67.87549	2764.83036	67.87549
94300.00000	69.14863	2768.33176	69.14863
94350.00000	69.12198	2754.12553	69.12198
94400.00000	68.68228	2751.51277	68.68228
94450.00000	69.30800	2745.95090	69.30800
94500.00000	68.26521	2740.08628	68.26521
94550.00000	68.14409	2749.55970	68.14409
94600.00000	67.79672	2724.95255	67.79672
94650.00000	67.55193	2728.46306	67.55193
94700.00000	67.06384	2729.24553	67.06384
94750.00000	68.30917	2727.56221	68.30917
94800.00000	67.39857	2719.77404	67.39857
94850.00000	67.31894	2713.10738	67.31894
94900.00000	67.18221	2712.12521	67.18221
94950.00000	66.34033	2707.96504	66.34033
95000.00000	66.81330	2707.01046	66.81330
95050.00000	66.70275	2710.01271	66.70275
95100.00000	66.76557	2704.52984	66.76557
95150.00000	64.18207	2694.94670	64.18207
95200.00000	65.54377	2691.95709	65.54377
95250.00000	66.32804	2679.56641	66.32804
95300.00000	66.58352	2677.67872	66.58352
95350.00000	64.84279	2680.73417	64.84279
95400.00000	65.52484	2668.24856	65.52484
95450.00000	63.83872	2671.86873	63.83872
95500.00000	66.15012	2676.81847	66.15012
95550.00000	64.43604	2664.08423	64.43604
95600.00000	64.46097	2668.06185	64.46097
95650.00000	62.96102	2657.74335	62.96102
95700.00000	63.44394	2641.51484	63.44394
95750.00000	63.16139	2650.39617	63.16139
95800.00000	62.63947	2635.13792	62.63947
95850.00000	66.32237	2644.78941	66.32237
95900.00000	63.69611	2635.89125	63.69611
95950.00000	60.73448	2649.84971	60.73448
96000.00000	57.96286	2640.78427	57.96286
96050.00000	65.08596	2627.56765	65.08596
96100.00000	66.27721	2595.64910	66.27721
96150.00000	64.01530	2634.66071	64.01530
96200.00000	60.85023	2605.95765	60.85023
96250.00000	62.68589	2611.83776	62.68589
96300.00000	64.37757	2605.88558	64.37757
96350.00000	65.01159	2593.53461	65.01159
96400.00000	61.16623	2623.72813	61.16623
96450.00000	61.03993	2603.22696	61.03993
96500.00000	60.58452	2636.88235	60.58452
96550.00000	64.28380	2638.62321	64.28380
96600.00000	65.77270	2616.02723	65.77270
96650.00000	61.26457	2615.89552	61.26457
96700.00000	64.29655	2640.96107	64.29655
96750.00000	67.71892	2601.98848	67.71892
96800.00000	65.94809	2597.21572	65.94809
96850.00000	68.45553	2588.99103	68.45553
96900.00000	66.75409	2574.08652	66.75409
96950.00000	68.71712	2592.28909	68.71712
97000.00000	69.79997	2549.74113	69.79997
97050.00000	70.72479	2614.53834	70.72479
97100.00000	70.50411	2603.56549	70.50411
97150.00000	72.71713	2534.97069	72.71713
97200.00000	72.12823	2590.58756	72.12823
97250.00000	73.77525	2556.56388	73.77525
97300.00000	74.28251	2539.51771	74.28251
97350.00000	69.70586	2486.56437	69.70586
97400.00000	71.22124	2492.52140	71.22124
97450.00000	66.82520	2498.51227	66.82520
97500.00000	69.28011	2495.84078	69.28011
97550.00000	66.70495	2519.80675	66.70495
97600.00000	65.47497	2518.37950	65.47497
97650.00000	63.23629	2501.00780	63.23629
97700.00000	62.70423	2504.39664	62.70423
97750.00000	63.73602	2514.89444	63.73602
97800.00000	63.95523	2503.55247	63.95523
97850.00000	62.32013	2489.30432	62.32013
97900.00000	65.82128	2490.40860	65.82128
97950.00000	63.15213	2507.61393	63.15213
98000.00000	61.85783	2485.83859	61.85783
98050.00000	64.12003	2489.09125	64.12003
98100.00000	59.97089	2496.48372	59.97089
98150.00000	61.42772	2482.70092	61.42772
98200.00000	60.30897	2492.60083	60.30897
98250.00000	62.78016	2502.28331	62.78016
98300.00000	60.40993	2502.14184	60.40993
98350.00000	61.09722	2505.83091	61.09722
98400.00000	53.48364	2547.26395	53.48364
98450.00000	63.39647	2489.00010	63.39647
98500.00000	59.02437	2501.73911	59.02437
98550.00000	61.16736	2518.15435	61.16736
98600.00000	58.18790	2523.72031	58.18790
98650.00000	52.58868	2469.40226	52.58868
98700.00000	47.67422	2484.68661	47.67422
98750.00000	57.43144	2487.34183	57.43144
98800.00000	57.73396	2501.34140	57.73396
98850.00000	50.08520	2485.06445	50.08520
98900.00000	59.95773	2493.22973	59.95773
98950.00000	59.39873	2476.81209	59.39873
99000.00000	46.67779	2503.63626	46.67779
99050.00000	53.48865	2513.25131	53.48865
99100.00000	51.36199	2355.77806	51.36199
99150.00000	54.31073	2472.86097	54.31073
99200.00000	54.96329	2500.78903	54.96329
99250.00000	57.79037	2481.10492	57.79037
99300.00000	49.20991	2413.91649	49.20991
99350.00000	34.94256	2327.26443	34.94256
99400.00000	51.89358	2500.03972	51.89358
99450.00000	55.77529	2481.73066	55.77529
99500.00000	41.22972	2491.75750	41.22972
99550.00000	43.29288	2466.81569	43.29288
99600.00000	53.25620	2473.39124	53.25620
99650.00000	53.01944	2431.92142	53.01944
99700.00000	45.54033	2265.96636	45.54033
99750.00000	50.11266	2118.42056	50.11266
99800.00000	47.99742	2274.99204	47.99742
99850.00000	52.36041	2435.09097	52.36041
99900.00000	45.35074	2264.63889	45.35074
99950.00000	52.54663	2162.94082	52.54663
